ALX,ALY,ALZ,ARX,ARY,ARZ,EMG0L,EMG1L,EMG2L,EMG3L,EMG4L,EMG5L,EMG6L,EMG7L,EMG0R,EMG1R,EMG2R,EMG3R,EMG4R,EMG5R,EMG6R,EMG7R,GLX,GLY,GLZ,GRX,GRY,GRZ,ORL,OPL,OYL,ORR,OPR,OYR,LHNX,LHNY,LHNZ,RHNX,RHNY,RHNZ,HX,HY,HZ,LTX,LTY,LTZ,RTX,RTY,RTZ,SpineMidX,SpineMidY,SpineMidZ,SpineBaseX,SpineBaseY,SpineBaseZ,ShoulderLeftX,ShoulderLeftY,ShoulderLeftZ,ShoulderRightX,ShoulderRightY,ShoulderRightZ,ElbowLeftX,ElbowLeftY,ElbowLeftZ,ElbowRightX,ElbowRightY,ElbowRightZ,Myo_Pose_left,Myo_Pose_Right,Kinect_pose_left,Kinect_pose_right
0.7924805,-0.6210938,0.3828125,0.7832031,0.5029297,0.4555664,-1,0,-5,-2,-9,-15,1,-6,-1,-4,0,2,-2,-11,-2,-4,23,23,23,6.1875,6.1875,6.1875,3.37562,3.714451,5.722452,6.41753,3.603266,0.02008759,-0.06420563,-0.4235756,1.355863,0.2426868,-0.4553484,1.368182,0.103596,0.3064854,1.542688,-0.0623064,-0.4030595,1.311093,0.2768864,-0.4616627,1.33548,0.09413978,-0.1450946,1.562193,0.09163915,-0.454942,1.540233,-0.07825907,0.03008978,1.554094,0.01231903,-0.4432199,1.508186,-0.1429176,-0.211779,1.548849,0.320206,-0.2168555,1.528616,NA,NA,Unknown,Unknown,
0.625,-0.65625,0.4199219,0.6914063,0.550293,0.5258789,-2,-1,3,-4,23,13,1,5,-1,-3,-6,-5,-2,-2,-2,-2,8.4375,8.4375,8.4375,4.8125,4.8125,4.8125,3.450625,3.914636,5.648157,6.370281,3.795114,0.09168003,-0.02695045,-0.3939286,1.36674,0.221761,-0.4207596,1.347948,0.1040853,0.3068059,1.543829,-0.04622869,-0.3603142,1.28759,0.2107713,-0.3895659,1.323659,0.09395382,-0.1448885,1.56206,0.09071261,-0.4542676,1.538482,-0.07814951,0.03029742,1.554387,0.01090805,-0.4425131,1.506405,-0.144682,-0.205202,1.551051,0.3235017,-0.2083578,1.528854,NA,NA,Unknown,Unknown,
0.4785156,-0.6889648,0.4541016,0.5874023,0.5766602,0.5639648,0,1,-12,14,37,-1,7,-3,-1,-2,-2,1,-5,-4,-2,-2,0.875,0.875,0.875,7.8125,7.8125,7.8125,3.504419,4.16135,5.567906,6.333495,3.992909,0.1646158,-0.01457643,-0.3493489,1.337156,0.187252,-0.3877808,1.353427,0.1044623,0.3067956,1.544992,-0.0375654,-0.3182737,1.276433,0.1860274,-0.3598956,1.303385,0.09373158,-0.1448258,1.562057,0.08945757,-0.4541574,1.537762,-0.07804265,0.03112095,1.553272,0.009622965,-0.4419783,1.505709,-0.1461011,-0.1992835,1.552003,0.3245255,-0.2007448,1.527568,NA,NA,Unknown,Unknown,
0.4296875,-0.6704102,0.5063477,0.5078125,0.6591797,0.6113281,-1,-2,-3,-8,-19,-7,9,0,1,-4,-37,-27,7,-4,2,1,0.875,0.875,0.875,9.625,9.625,9.625,3.526483,4.316212,5.521443,6.309426,4.192153,0.2366395,-0.002828551,-0.3043186,1.31119,0.1676226,-0.3489783,1.342537,0.1045593,0.3069995,1.546032,-0.03387978,-0.2882656,1.269986,0.1714092,-0.3144785,1.300767,0.09366497,-0.1446562,1.562377,0.08928392,-0.4539149,1.537983,-0.0778643,0.03190694,1.553311,0.009697017,-0.4415528,1.505896,-0.1472437,-0.1934308,1.552148,0.3242325,-0.1927715,1.52465,NA,NA,NotTracked,NotTracked,
0.3808594,-0.6923828,0.5429688,0.2636719,0.7299805,0.6420898,-4,0,-14,-1,-2,20,22,1,1,-2,12,17,-21,-35,-3,1,-1.1875,-1.1875,-1.1875,-2.875,-2.875,-2.875,3.536578,4.436286,5.48309,6.269388,4.572213,0.3587779,0.0007830886,-0.2727306,1.316498,0.1462094,-0.2950945,1.35892,0.1051091,0.3072321,1.547367,-0.01785774,-0.2439272,1.26576,0.161436,-0.2613156,1.309415,0.09364999,-0.1444144,1.562805,0.08939242,-0.4536747,1.538123,-0.07734247,0.03238671,1.554768,0.01005162,-0.4411402,1.506124,-0.1479334,-0.1888569,1.551634,0.3268324,-0.1902365,1.51974,NA,NA,NotTracked,NotTracked,
0.3125,-0.7167969,0.559082,0.1459961,0.6708984,0.6396484,-2,0,-6,-1,-23,-14,-9,0,-2,2,8,5,-3,19,3,3,-14.875,-14.875,-14.875,-1.75,-1.75,-1.75,3.540552,4.522701,5.440509,6.249816,4.799283,0.4352784,-0.002150795,-0.2465811,1.304627,0.09394427,-0.2445548,1.320771,0.1058765,0.3075398,1.549003,-0.01417975,-0.2300483,1.263642,0.0325742,-0.2239418,1.262148,0.09382117,-0.1438716,1.56345,0.08943467,-0.4526393,1.538516,-0.07655794,0.03307352,1.556323,0.01033697,-0.440006,1.506617,-0.1890503,-0.1926161,1.559834,0.3294032,-0.1885102,1.512624,NA,NA,NotTracked,NotTracked,
0.2705078,-0.7490234,0.5737305,0.0078125,0.6748047,0.6538086,-2,-4,-13,-4,-2,6,14,3,-13,-45,-12,-12,5,15,1,-2,-8.5,-8.5,-8.5,-4.0625,-4.0625,-4.0625,3.545196,4.597329,5.357902,6.243234,5.008725,0.4943918,0.00551293,-0.233941,1.312375,0.03748801,-0.2242953,1.301544,0.1065609,0.3075527,1.549946,0.002497118,-0.2035177,1.26937,0.06970014,-0.2383399,1.272658,0.0938688,-0.1433957,1.563798,0.08959118,-0.451505,1.538655,-0.07615665,0.03334507,1.556624,0.01060077,-0.4390227,1.506553,-0.1912128,-0.1898746,1.563292,0.33704,-0.1806795,1.46864,NA,NA,NotTracked,NotTracked,
0.262207,-0.769043,0.5986328,-0.1376953,0.6313477,0.6860352,1,1,-5,18,22,9,-1,-2,-1,1,-2,-9,0,5,2,1,-6.6875,-6.6875,-6.6875,-0.75,-0.75,-0.75,3.548208,4.636549,5.294415,6.23586,5.190684,0.5270619,-0.000435443,-0.2239913,1.330513,0.06556419,-0.1999355,1.317223,0.1073655,0.3078182,1.55145,0.02928307,-0.1831747,1.287286,0.07426167,-0.2365809,1.295143,0.09418906,-0.1427628,1.564462,0.08994533,-0.4502594,1.538952,-0.07629172,0.03370631,1.55556,0.01110023,-0.4377737,1.506912,-0.1481388,-0.1795886,1.54254,0.3511798,-0.1826968,1.471784,NA,NA,NotTracked,NotTracked,
0.2250977,-0.8071289,0.6025391,-0.2080078,0.6381836,0.5942383,-2,-6,-16,-14,-4,0,-1,-5,-10,-22,-8,-4,-4,-6,0,-4,-2.25,-2.25,-2.25,12.5625,12.5625,12.5625,3.552236,4.67329,5.238158,6.247281,5.371782,0.4853678,0.04204561,-0.2178921,1.351553,0.1270737,-0.1424603,1.344052,0.1080489,0.3079415,1.552383,0.08107064,-0.1369085,1.3336,0.1247761,-0.1992766,1.404373,0.09427691,-0.1424381,1.564783,0.09008364,-0.4496841,1.539074,-0.07587945,0.03378089,1.556121,0.01130207,-0.4372149,1.506994,-0.1988217,-0.1969341,1.578,0.3552809,-0.1806825,1.472762,NA,NA,NotTracked,NotTracked,
0.1484375,-0.8232422,0.6166992,-0.1870117,0.6401367,0.6333008,-3,-2,1,3,17,9,8,-3,-1,8,-1,1,4,7,1,-6,3.8125,3.8125,3.8125,14.75,14.75,14.75,3.561434,4.73923,5.185279,6.250132,5.409666,0.3952852,0.04776445,-0.212455,1.360211,0.1419741,-0.1346949,1.321099,0.1087309,0.3081474,1.553854,0.03970408,-0.1705677,1.295137,0.09829968,-0.2118549,1.320579,0.09428451,-0.1421798,1.56522,0.09008256,-0.4493139,1.539277,-0.07535648,0.03395693,1.557063,0.01134529,-0.4369055,1.507119,-0.2003636,-0.201706,1.583956,0.3368422,-0.1799223,1.475004,NA,NA,NotTracked,NotTracked,
0.125,-0.8100586,0.6171875,-0.1450195,0.6367188,0.6918945,8,1,-29,4,16,20,1,8,-23,-4,-4,0,-2,3,0,-47,2.875,2.875,2.875,16.5625,16.5625,16.5625,3.565787,4.779877,5.17062,6.250782,5.351424,0.266411,0.04742238,-0.1804263,1.380049,0.1433845,-0.1441361,1.297202,0.1089286,0.3083165,1.554463,0.03876683,-0.1479096,1.305722,0.1001218,-0.1915023,1.340237,0.09418269,-0.1416749,1.565781,0.09014812,-0.4484632,1.539536,-0.07510886,0.03402092,1.557899,0.01144097,-0.4362357,1.50728,-0.2008121,-0.2031029,1.584494,0.3342446,-0.1801332,1.47395,NA,NA,NotTracked,NotTracked,
0.02783203,-0.7607422,0.6010742,-0.1162109,0.6445313,0.78125,2,-10,-44,-15,-3,-23,-18,1,4,-2,-2,-3,-17,-18,-2,-3,3.375,3.375,3.375,13.4375,13.4375,13.4375,3.581216,4.887507,5.180683,6.258183,5.262049,0.2032256,0.1516933,-0.1647166,1.2735,0.1741926,-0.162377,1.275788,0.1090925,0.3084767,1.555043,0.1229101,-0.1560055,1.22125,0.1304369,-0.1727199,1.259375,0.09417295,-0.1412597,1.566255,0.09026187,-0.4478457,1.539783,-0.07491116,0.03433764,1.558625,0.01156418,-0.4357466,1.507424,-0.1099459,-0.1943725,1.485914,0.333907,-0.179996,1.473916,NA,NA,NotTracked,NotTracked,
0.004394531,-0.7504883,0.5869141,-0.09130859,0.7353516,0.7685547,2,-5,-1,-5,11,19,9,15,-4,-7,-15,-9,1,3,-3,1,0.3125,0.3125,0.3125,6.9375,6.9375,6.9375,3.580878,4.927144,5.208068,6.268529,5.160529,0.1841149,0.1680978,-0.1923407,1.279261,0.1877643,-0.1890609,1.289244,0.109211,0.3085552,1.555576,0.1268727,-0.210876,1.236857,0.1857533,-0.2293402,1.268667,0.09415738,-0.1411062,1.566523,0.09016732,-0.4476042,1.539901,-0.07478059,0.03436613,1.55904,0.01149497,-0.4355249,1.507468,-0.1073183,-0.1963389,1.471185,0.3368114,-0.1805056,1.481386,NA,NA,NotTracked,NotTracked,
0.04296875,-0.7382813,0.5942383,-0.06445313,0.7485352,0.7998047,2,-13,-39,-8,0,1,-5,1,0,-3,-10,-11,-32,31,5,10,-8.125,-8.125,-8.125,-0.125,-0.125,-0.125,3.572349,4.928244,5.238244,6.268319,5.08586,0.2093371,0.04908687,-0.1687302,1.356719,0.1811095,-0.2032605,1.318776,0.1092875,0.3085737,1.556028,0.02659524,-0.1288455,1.295176,0.1970617,-0.2053965,1.28,0.09429547,-0.1408738,1.566818,0.09023123,-0.4472083,1.540086,-0.07470801,0.03444801,1.559287,0.01164162,-0.4350834,1.50772,-0.1481298,-0.1760162,1.543473,0.3367238,-0.1804675,1.483103,NA,NA,NotTracked,NotTracked,
0.08984375,-0.7495117,0.6396484,-0.1279297,0.7768555,0.7768555,-6,1,18,2,-10,-1,0,-4,0,-4,-8,-7,19,-10,-2,4,-4.3125,-4.3125,-4.3125,-16.125,-16.125,-16.125,3.565307,4.898221,5.257349,6.251021,5.072025,0.3034474,0.0767139,-0.1746234,1.363847,0.1679336,-0.1964336,1.358464,0.1093167,0.3085503,1.556091,0.01407216,-0.1664816,1.289022,0.2118222,-0.1609108,1.327796,0.09432425,-0.1408402,1.566941,0.09022433,-0.447112,1.540149,-0.07469382,0.03445835,1.559391,0.01165303,-0.4350143,1.507697,-0.1480716,-0.1760266,1.543016,0.3372481,-0.1807977,1.485866,NA,NA,NotTracked,NotTracked,
0.152832,-0.8110352,0.7026367,-0.171875,0.7758789,0.7348633,-2,-3,-9,-2,0,11,3,6,-1,5,2,2,3,3,2,6,-4.3125,-4.3125,-4.3125,-30.3125,-30.3125,-30.3125,3.551803,4.84407,5.253282,6.210515,5.130204,0.3632268,0.04633865,-0.1804688,1.335978,0.1529835,-0.1842862,1.373937,0.1093835,0.3085234,1.556116,0.02225257,-0.1478322,1.282152,0.2104395,-0.1566905,1.336582,0.09439573,-0.1406517,1.567097,0.09035481,-0.4467452,1.5402,-0.07462373,0.03454888,1.55939,0.01179655,-0.4346592,1.507626,-0.1483311,-0.175825,1.542351,0.3368958,-0.1810983,1.487014,NA,NA,NotTracked,NotTracked,
0.1533203,-0.8032227,0.6958008,-0.2050781,0.7045898,0.7524414,3,-2,1,-1,-18,-7,0,1,4,17,5,-2,-2,-3,-1,-3,-5.25,-5.25,-5.25,-32.75,-32.75,-32.75,3.551731,4.828951,5.241435,6.159158,5.22604,0.3576277,0.04934333,-0.1741,1.341248,0.1533227,-0.1626573,1.372254,0.1096529,0.3083535,1.556112,0.02357768,-0.1513977,1.28392,0.1975279,-0.1814991,1.359367,0.09445318,-0.1405108,1.567215,0.09053432,-0.4464352,1.540329,-0.07431665,0.03466437,1.55932,0.01200078,-0.4342817,1.507766,-0.1482646,-0.1756287,1.541738,0.3360637,-0.181944,1.489759,NA,NA,NotTracked,NotTracked,
0.06054688,-0.8193359,0.6337891,-0.1708984,0.6259766,0.6650391,-3,-19,-6,1,13,15,-9,-5,11,-1,-2,4,-2,14,4,15,4.5,4.5,4.5,-11.9375,-11.9375,-11.9375,3.56219,4.847539,5.234662,6.096411,5.343217,0.252968,0.04205353,-0.1825248,1.339681,0.1564227,-0.1382392,1.355174,0.1098839,0.3082292,1.556181,0.0235736,-0.1487614,1.287099,0.09250098,-0.1683518,1.294871,0.09452296,-0.1404168,1.567462,0.09063025,-0.4463071,1.540521,-0.07409705,0.03482352,1.559283,0.01212292,-0.4341651,1.507967,-0.1483869,-0.1753504,1.541627,0.3340413,-0.1839235,1.490998,NA,NA,NotTracked,NotTracked,
0.04589844,-0.8095703,0.6254883,-0.1259766,0.6103516,0.7011719,0,0,3,0,-1,25,-7,0,-1,-3,-1,1,3,-4,-3,6,7.125,7.125,7.125,12.1875,12.1875,12.1875,3.569554,4.881612,5.260335,6.084818,5.365803,0.1304251,0.03782978,-0.1804308,1.345395,0.1394195,-0.1307746,1.31188,0.1100855,0.3081278,1.556332,0.02081878,-0.1443816,1.287991,0.08682624,-0.1713867,1.30873,0.09460919,-0.1403319,1.567623,0.09073304,-0.4461723,1.540722,-0.07388874,0.03495702,1.559403,0.01224745,-0.434092,1.508265,-0.1484552,-0.1751199,1.541596,0.3331166,-0.1844009,1.491102,NA,NA,NotTracked,NotTracked,
0.04394531,-0.7993164,0.6137695,-0.1152344,0.5839844,0.831543,0,-1,-3,-1,-8,-9,-1,3,8,1,2,-2,12,24,9,72,3.8125,3.8125,3.8125,14.75,14.75,14.75,3.571919,4.90542,5.284103,6.086013,5.289129,0.005003624,0.03422932,-0.1724641,1.342361,0.1872718,-0.1408674,1.31033,0.1101223,0.3081676,1.556401,0.01240101,-0.1376052,1.286522,0.1383685,-0.1477501,1.397333,0.09456991,-0.1403002,1.567659,0.0907782,-0.4461776,1.540763,-0.07386978,0.03496437,1.559405,0.01229018,-0.4341492,1.508348,-0.1487864,-0.1751685,1.541789,0.3838648,-0.2187979,1.516721,NA,NA,NotTracked,NotTracked,
0.01806641,-0.7597656,0.6079102,-0.1918945,0.5976563,0.8544922,2,-1,20,0,-5,-9,18,18,7,-10,-10,-2,-6,-17,2,26,0.75,0.75,0.75,3.25,3.25,3.25,3.574195,4.933593,5.337428,6.085468,5.223428,9.962851,0.02995305,-0.1668035,1.336516,0.1929319,-0.1588828,1.319989,0.1100929,0.308135,1.556511,0.004573161,-0.1364328,1.281806,0.1498661,-0.1770182,1.410652,0.09457186,-0.1402162,1.567709,0.09083587,-0.4459918,1.540866,-0.07389468,0.03499595,1.559509,0.01235697,-0.4339696,1.508567,-0.148857,-0.1754057,1.541818,0.3378946,-0.1831412,1.501209,NA,NA,NotTracked,NotTracked,
0.04980469,-0.7612305,0.6337891,-0.2358398,0.6308594,0.8369141,1,-4,-3,-2,-6,-1,11,9,-2,0,8,-1,-5,-14,-5,-19,-6.8125,-6.8125,-6.8125,-4.9375,-4.9375,-4.9375,3.566849,4.923382,5.369374,6.079353,5.186226,9.968762,0.0249846,-0.167132,1.330948,0.1909872,-0.1666315,1.339175,0.1100598,0.3081513,1.55656,-0.003545689,-0.1424453,1.278017,0.1508097,-0.203205,1.410273,0.09457553,-0.1401985,1.567779,0.09081324,-0.4459225,1.540981,-0.07476108,0.03512575,1.557652,0.01231147,-0.4339196,1.508771,-0.1488928,-0.175376,1.541808,0.339037,-0.1834794,1.503356,NA,NA,NotTracked,NotTracked,
0.08154297,-0.8051758,0.6884766,-0.2275391,0.6210938,0.7895508,-1,-2,-9,-3,0,6,7,4,-7,-10,-4,1,-4,-11,-5,-4,-3.0625,-3.0625,-3.0625,-6.75,-6.75,-6.75,3.559019,4.893349,5.366878,6.068331,5.198535,0.008727212,0.02449413,-0.1700423,1.327404,0.1851909,-0.1664068,1.350298,0.1100562,0.3081,1.556626,-0.002472791,-0.1472149,1.276577,0.1567636,-0.1365204,1.425933,0.09459162,-0.1401387,1.567874,0.09085072,-0.445783,1.541088,-0.07462548,0.03508456,1.558322,0.01235857,-0.4337909,1.508975,-0.1492095,-0.1756504,1.542029,0.3390575,-0.1827733,1.505295,NA,NA,NotTracked,NotTracked,
0.0546875,-0.7978516,0.652832,-0.1621094,0.6582031,0.7709961,-2,-1,-13,-4,-6,-15,5,1,1,7,7,5,6,15,-2,-1,-2.125,-2.125,-2.125,-4.5625,-4.5625,-4.5625,3.560483,4.886608,5.350503,6.066155,5.213136,0.01346251,0.02284633,-0.1716135,1.32672,0.1827842,-0.1647351,1.350024,0.1101191,0.3080746,1.556623,0.001555879,-0.1458507,1.279316,0.1495792,-0.212452,1.413096,0.09464946,-0.1401085,1.567967,0.09090345,-0.4456354,1.54127,-0.07437817,0.03522464,1.558756,0.01239473,-0.4336388,1.509205,-0.1492684,-0.1757037,1.542025,0.3386425,-0.1833843,1.506392,NA,NA,NotTracked,NotTracked,
0.07568359,-0.8007813,0.628418,-0.1040039,0.6611328,0.7978516,-6,-5,-25,-3,-7,-8,-54,-39,-3,-3,0,-2,-3,-4,-1,-9,1.25,1.25,1.25,2,2,2,3.563669,4.886104,5.342876,6.068125,5.22168,0.000293148,0.02412864,-0.1713864,1.327078,0.1825758,-0.163818,1.347816,0.1102218,0.3080677,1.55659,0.002316883,-0.1439314,1.279867,0.1488202,-0.211616,1.413214,0.09468075,-0.1400668,1.568071,0.09100148,-0.4455569,1.541423,-0.07414134,0.03536901,1.55919,0.01249057,-0.4335727,1.509431,-0.1493044,-0.1756923,1.54198,0.3381832,-0.1834786,1.506644,NA,NA,NotTracked,NotTracked,
0.08105469,-0.7915039,0.6181641,-0.1103516,0.6474609,0.8100586,-2,-3,2,3,-4,2,4,4,3,2,-2,-5,-15,-4,-1,8,-0.125,-0.125,-0.125,3.1875,3.1875,3.1875,3.562992,4.886615,5.349191,6.071652,5.226945,9.986693,0.02397682,-0.1718101,1.327437,0.1878262,-0.1616339,1.339034,0.1104247,0.3079706,1.556646,0.002669099,-0.1475428,1.278717,0.1494959,-0.1967265,1.407709,0.09481826,-0.1399897,1.568339,0.09116371,-0.4453263,1.541811,-0.07391011,0.03550318,1.559574,0.01266191,-0.433358,1.509806,-0.1494012,-0.1757657,1.542114,0.3374389,-0.1837078,1.507432,NA,NA,NotTracked,NotTracked,
0.08886719,-0.7773438,0.5844727,-0.1303711,0.6269531,0.7851563,1,-1,-1,-1,12,12,9,7,3,2,3,4,10,21,3,7,-2.875,-2.875,-2.875,3.5625,3.5625,3.5625,3.557111,4.877397,5.360098,6.07719,5.227634,9.976997,0.02309702,-0.1732712,1.32649,0.1853348,-0.1642892,1.348909,0.1106659,0.3078583,1.556613,0.0002911768,-0.1480712,1.277662,0.1517372,-0.1453082,1.427867,0.09484731,-0.1399871,1.568437,0.09123049,-0.4453558,1.542071,-0.07377189,0.0354657,1.559719,0.01272513,-0.4334434,1.510116,-0.1493879,-0.1757612,1.54211,0.3372667,-0.1839585,1.507497,NA,NA,NotTracked,NotTracked,
0.08496094,-0.7387695,0.5302734,-0.1489258,0.6323242,0.7382813,-1,-15,-27,-2,-3,-1,-2,0,-1,0,0,3,-9,-3,1,4,-7.6875,-7.6875,-7.6875,8.625,8.625,8.625,3.540141,4.819708,5.397401,6.089192,5.203831,9.956755,0.01982069,-0.1804368,1.321476,0.192816,-0.1684553,1.336246,0.1108263,0.3078065,1.556664,-0.00260849,-0.1563358,1.275924,0.1543823,-0.1961043,1.41325,0.09488673,-0.1399913,1.568653,0.09120156,-0.4453913,1.542338,-0.07362457,0.03560127,1.560397,0.01269643,-0.4334559,1.510365,-0.1492881,-0.1756074,1.542327,0.3377019,-0.1846366,1.508086,NA,NA,NotTracked,NotTracked,
0.1269531,-0.7177734,0.5327148,-0.1391602,0.5859375,0.6435547,-1,0,4,0,-4,0,6,0,-2,-2,-3,0,2,-5,-1,3,-12.5,-12.5,-12.5,8.75,8.75,8.75,3.521842,4.760791,5.433848,6.107018,5.119067,9.894041,0.0118156,-0.2011139,1.309366,0.2008085,-0.1841633,1.330662,0.1109512,0.3077259,1.556715,-0.006595558,-0.1757551,1.268924,0.1555683,-0.1960244,1.415074,0.09489033,-0.1400367,1.568798,0.09108944,-0.4455624,1.542514,-0.07426774,0.03548911,1.558483,0.0125469,-0.4335971,1.510531,-0.1499259,-0.1756165,1.543336,0.33791,-0.1846666,1.510884,NA,NA,NotTracked,NotTracked,
0.2626953,-0.8217773,0.5737305,-0.05712891,0.5581055,0.6289063,-5,-15,-5,-2,0,0,-4,-2,-9,-5,-3,-8,-5,-10,-5,-7,6.625,6.625,6.625,22.375,22.375,22.375,3.488554,4.576356,5.523058,6.13655,4.973141,9.815527,0.001109989,-0.2389459,1.310015,0.220768,-0.2191752,1.309316,0.1114129,0.3076276,1.556793,-0.02080267,-0.212721,1.260278,0.1950984,-0.2655551,1.3151,0.0949048,-0.1400773,1.568983,0.09099703,-0.4458982,1.542826,-0.07387559,0.03576429,1.559311,0.01240814,-0.4338979,1.510836,-0.1928043,-0.2015386,1.557204,0.3380169,-0.1853847,1.519595,NA,NA,Closed,Unknown,
0.3720703,-0.6474609,0.5180664,0.206543,0.6176758,0.6049805,1,-2,-1,0,0,-1,-4,0,1,0,-1,-2,4,-4,-2,3,-1.5625,-1.5625,-1.5625,26.5625,26.5625,26.5625,3.470749,4.35065,5.660938,6.192452,4.726019,9.708787,-0.01698794,-0.2867571,1.299545,0.2419447,-0.275587,1.300361,0.1117066,0.307605,1.556881,-0.03912468,-0.2655244,1.25486,0.2197455,-0.3302937,1.3149,0.09489,-0.140334,1.569107,0.09095228,-0.4469293,1.543011,-0.07369458,0.03568267,1.559786,0.01230435,-0.4349188,1.510947,-0.1891991,-0.192772,1.549122,0.386833,-0.1756135,1.537554,NA,NA,Unknown,Lasso,
0.5375977,-0.6293945,0.4233398,0.3564453,0.6293945,0.6621094,-1,-3,-2,-2,-1,-1,-1,-3,-1,-1,-1,2,-5,-2,-2,2,-28.1875,-28.1875,-28.1875,35.125,35.125,35.125,3.383154,4.136253,5.780063,6.266216,4.457601,9.589226,-0.04192088,-0.3438715,1.314304,0.264368,-0.3413643,1.303943,0.1119169,0.3075637,1.556907,-0.06048676,-0.3228998,1.263567,0.2173783,-0.3728447,1.304857,0.09498469,-0.1405459,1.569204,0.09129667,-0.4479044,1.543025,-0.0736004,0.03559271,1.560079,0.01252742,-0.4359905,1.510937,-0.1565573,-0.185851,1.549961,0.3278668,-0.1901499,1.538095,NA,NA,Unknown,Unknown,
0.7617188,-0.6391602,0.3745117,0.7280273,0.5830078,0.6694336,-1,-1,-1,1,-1,-1,-2,0,0,1,-2,-1,1,-3,-1,2,-26,-26,-26,15.375,15.375,15.375,3.230493,3.798832,5.929611,6.379291,4.085873,9.444121,-0.06132197,-0.3999393,1.360641,0.2895962,-0.3982274,1.327325,0.1120746,0.3075276,1.556875,-0.0777613,-0.3731867,1.282383,0.3053499,-0.4591288,1.3526,0.09540371,-0.1410715,1.569391,0.09282336,-0.4494928,1.543429,-0.07379542,0.03511531,1.560618,0.01377639,-0.438265,1.511277,-0.1533474,-0.1891958,1.549545,0.3275331,-0.1909348,1.538024,NA,NA,Unknown,Unknown,
0.8085938,-0.5288086,0.3046875,0.652832,0.6450195,0.4575195,-3,-3,-1,-2,-3,-3,-3,2,-2,0,0,1,6,0,-3,-3,-23.375,-23.375,-23.375,19.25,19.25,19.25,3.090046,3.523804,6.068138,6.478106,3.853962,9.34339,-0.1006696,-0.4382499,1.36426,0.3119546,-0.4410709,1.357269,0.1122518,0.3075293,1.55684,-0.08706445,-0.4259214,1.322228,0.3386778,-0.48065,1.36275,0.0956611,-0.1415093,1.569576,0.09351597,-0.4506027,1.544203,-0.07382236,0.03496534,1.560718,0.01430229,-0.4395134,1.512052,-0.1498758,-0.1947866,1.547268,0.329673,-0.2013949,1.537322,NA,NA,Unknown,Unknown,
1.006348,-0.484375,0.2197266,0.8364258,0.5170898,0.425293,-1,-1,-3,0,-3,-2,-1,-1,-1,0,0,-1,3,1,-2,0,-6.875,-6.875,-6.875,-3.3125,-3.3125,-3.3125,2.816547,3.270191,6.361393,6.572199,3.627794,9.210908,-0.1229648,-0.47758,1.402884,0.3316527,-0.4777032,1.389512,0.1125207,0.307528,1.55657,-0.08687753,-0.483394,1.426154,0.3704553,-0.4818699,1.382684,0.09566557,-0.1419203,1.569821,0.09308562,-0.4515854,1.545093,-0.07378426,0.03478756,1.560733,0.01391811,-0.44042,1.512951,-0.1481346,-0.2015835,1.545207,0.3309977,-0.2127243,1.537112,NA,NA,Unknown,Lasso,
1.113281,-0.2827148,-0.06005859,0.9399414,0.4760742,0.2900391,-1,-3,-2,-2,-2,-1,-1,0,-1,-1,0,1,-3,-12,-3,0,-21.1875,-21.1875,-21.1875,39.5,39.5,39.5,2.27522,3.033975,6.938061,6.779461,3.366621,9.01762,-0.1350518,-0.5017588,1.445611,0.344868,-0.5013244,1.418907,0.1131665,0.3074621,1.555772,-0.08258966,-0.4659623,1.457261,0.3643384,-0.5081777,1.339,0.09547056,-0.1422215,1.569913,0.09227429,-0.4524961,1.545806,-0.07362144,0.03454608,1.560372,0.01330023,-0.4411165,1.51362,-0.1447408,-0.2105477,1.542966,0.3308632,-0.2183967,1.537397,NA,NA,NotTracked,Unknown,
1.091309,-0.2275391,-0.1044922,0.9765625,0.3666992,0.1958008,-1,0,-1,-1,-1,-2,-2,-2,-5,-2,0,-2,-2,3,1,1,-69.4375,-69.4375,-69.4375,45.1875,45.1875,45.1875,1.919387,2.941764,7.217856,6.956874,3.208466,8.890357,-0.1378556,-0.5119251,1.478578,0.3482289,-0.5145893,1.450746,0.1138049,0.3074023,1.555055,-0.08375851,-0.4870701,1.461525,0.3807147,-0.4922366,1.4161,0.09540585,-0.1425395,1.569932,0.09179963,-0.4530676,1.546256,-0.07358596,0.0344528,1.560196,0.01293859,-0.4415706,1.514061,-0.1408696,-0.2193872,1.543561,0.3300227,-0.2226045,1.539319,NA,NA,NotTracked,Lasso,
0.9526367,-0.3579102,0.06884766,0.9414063,0.3710938,0.1420898,-1,-1,0,-1,-1,-1,-1,-1,-5,-3,-1,-1,-3,-13,-5,-3,-86.0625,-86.0625,-86.0625,79.9375,79.9375,79.9375,1.994885,2.863348,6.940111,7.150581,3.095433,8.805162,-0.1300339,-0.5132757,1.496844,0.3422351,-0.5240692,1.474073,0.114523,0.3074093,1.554373,-0.08130164,-0.4878807,1.458022,0.3744127,-0.514726,1.461687,0.09532137,-0.1427184,1.5699,0.09109755,-0.4534851,1.546673,-0.07470125,0.03436495,1.556912,0.01244792,-0.4417318,1.514344,-0.140148,-0.2225659,1.547034,0.3286005,-0.2255254,1.541685,NA,NA,NotTracked,Unknown,
0.8857422,-0.4199219,0.05712891,0.953125,0.2753906,0.1577148,-2,-4,-2,-1,-1,0,-2,-3,21,-1,-2,-4,-9,49,6,0,-35.3125,-35.3125,-35.3125,47.625,47.625,47.625,2.342023,2.848848,6.49718,7.256807,2.987884,8.838689,-0.1176868,-0.5073844,1.502439,0.32915,-0.5284685,1.491764,0.1154668,0.3073003,1.55311,-0.07860661,-0.4880252,1.453938,0.3584421,-0.5169865,1.469647,0.09535969,-0.1429305,1.569835,0.09099174,-0.4536626,1.546993,-0.0748105,0.03408251,1.557453,0.01240338,-0.4417655,1.514468,-0.1384103,-0.2248471,1.553932,0.3245721,-0.2286175,1.545436,NA,NA,NotTracked,NotTracked,
0.9287109,-0.5014648,-0.1982422,0.9716797,0.328125,0.08349609,0,0,0,-1,-3,-1,-1,1,-14,-2,-1,-1,9,-17,-5,-8,46.375,46.375,46.375,81.9375,81.9375,81.9375,2.339281,2.897602,6.52359,7.19091,2.927178,9.025811,-0.1100132,-0.5045354,1.500958,0.3100971,-0.5227103,1.500774,0.1161745,0.307353,1.55222,-0.07143027,-0.4950377,1.449826,0.3393842,-0.5215811,1.482929,0.09559072,-0.1431613,1.569808,0.09146887,-0.4538617,1.54754,-0.07468755,0.03409745,1.557813,0.01277702,-0.4418516,1.51468,-0.1359493,-0.2236168,1.557905,0.318031,-0.2314795,1.547626,NA,NA,NotTracked,NotTracked,
1.028809,-0.02978516,-0.1166992,0.9072266,0.4233398,-0.3666992,2,-1,-2,0,-1,1,1,1,1,0,-1,-7,-12,1,2,4,-33.5,-33.5,-33.5,151,151,151,2.22317,2.88758,6.663386,7.210903,2.928693,9.205744,-0.1120341,-0.5083295,1.497842,0.2942832,-0.515749,1.496651,0.1166992,0.3074082,1.551511,-0.07345305,-0.4906308,1.449891,0.3242921,-0.5165136,1.491056,0.09565867,-0.1432364,1.569839,0.09171677,-0.4539804,1.548139,-0.07462978,0.03417228,1.558324,0.01300059,-0.4418425,1.515079,-0.1344429,-0.2237834,1.558371,0.3118622,-0.2333435,1.548303,NA,NA,NotTracked,NotTracked,
0.9516602,-0.1938477,-0.05371094,0.9316406,0.3862305,-0.1640625,-1,-3,-3,-2,0,-2,0,0,-4,-3,-1,-1,-11,-22,-4,-5,-69.5,-69.5,-69.5,-38.875,-38.875,-38.875,2.15277,2.883157,6.57527,7.35712,2.943529,9.100266,-0.1122247,-0.5066488,1.493656,0.2980508,-0.5177433,1.495451,0.116935,0.3073511,1.551153,-0.06978327,-0.4960805,1.448344,0.3362775,-0.5370883,1.5035,0.09582532,-0.1433869,1.569884,0.09201998,-0.4542115,1.54844,-0.07457612,0.03404364,1.558535,0.01328181,-0.4419991,1.515242,-0.1338018,-0.2244889,1.557693,0.3100314,-0.2341105,1.547916,NA,NA,NotTracked,NotTracked,
0.9677734,-0.234375,0.04150391,0.949707,0.04248047,0.1201172,-1,-2,-2,-2,-1,-1,-2,-2,-4,-1,-1,-7,-6,-9,-3,-3,-26.0625,-26.0625,-26.0625,-24.1875,-24.1875,-24.1875,2.135435,2.879992,6.517263,7.171467,2.955272,9.260287,-0.1118118,-0.5057747,1.491519,0.3000823,-0.5141898,1.491017,0.1170351,0.307388,1.55106,-0.06992785,-0.4801021,1.447536,0.3355426,-0.5319192,1.484769,0.09590317,-0.1434695,1.569935,0.09217322,-0.4543174,1.548666,-0.07459789,0.03407444,1.558797,0.01348793,-0.442084,1.515488,-0.1339466,-0.2244903,1.557551,0.3099314,-0.2342025,1.547927,NA,NA,NotTracked,NotTracked,
0.9570313,-0.1933594,0.02294922,0.8769531,0.2138672,0.2158203,-3,0,-1,0,-1,0,-1,0,1,0,1,4,4,-5,-1,0,10.5625,10.5625,10.5625,38.3125,38.3125,38.3125,2.18478,2.875122,6.471647,7.039253,2.969811,9.445145,-0.112122,-0.5060418,1.491464,0.2978313,-0.5103542,1.486724,0.1171136,0.3073725,1.550964,-0.07071385,-0.4908857,1.448873,0.3334988,-0.521522,1.479125,0.09590887,-0.1435248,1.570003,0.09228823,-0.4543898,1.54891,-0.07458312,0.0340739,1.558826,0.01364447,-0.4420636,1.515725,-0.1342331,-0.2245507,1.556808,0.3099338,-0.2340491,1.547833,NA,NA,NotTracked,NotTracked,
0.9907227,-0.2050781,-0.04833984,0.8637695,0.2265625,0.1259766,0,-2,0,-2,0,-1,0,-1,-1,-1,-2,-3,-2,-3,-3,1,11.75,11.75,11.75,-17.25,-17.25,-17.25,2.201946,2.868625,6.483898,6.945108,2.983305,9.538729,-0.1106358,-0.5062006,1.491465,0.2944044,-0.510033,1.486171,0.1171417,0.3073821,1.550942,-0.07006322,-0.4898201,1.448724,0.3291433,-0.5220677,1.478292,0.09595117,-0.1435757,1.570043,0.09253338,-0.4545061,1.549117,-0.07453389,0.03398601,1.558902,0.01390006,-0.44216,1.515877,-0.1341649,-0.2245437,1.555993,0.3097878,-0.2340312,1.547622,NA,NA,NotTracked,NotTracked,
