ALX,ALY,ALZ,ARX,ARY,ARZ,EMG0L,EMG1L,EMG2L,EMG3L,EMG4L,EMG5L,EMG6L,EMG7L,EMG0R,EMG1R,EMG2R,EMG3R,EMG4R,EMG5R,EMG6R,EMG7R,GLX,GLY,GLZ,GRX,GRY,GRZ,ORL,OPL,OYL,ORR,OPR,OYR,LHNX,LHNY,LHNZ,RHNX,RHNY,RHNZ,HX,HY,HZ,LTX,LTY,LTZ,RTX,RTY,RTZ,SpineMidX,SpineMidY,SpineMidZ,SpineBaseX,SpineBaseY,SpineBaseZ,ShoulderLeftX,ShoulderLeftY,ShoulderLeftZ,ShoulderRightX,ShoulderRightY,ShoulderRightZ,ElbowLeftX,ElbowLeftY,ElbowLeftZ,ElbowRightX,ElbowRightY,ElbowRightZ,Myo_Pose_left,Myo_Pose_Right,Kinect_pose_left,Kinect_pose_right
0.9404297,-0.3305664,0.04833984,0.9375,0.2558594,0.07763672,-1,0,-1,-2,-3,-2,0,0,-3,0,0,0,-8,13,-1,-7,3.25,3.25,3.25,0.5,0.5,0.5,2.735098,3.035712,4.443699,7.04875,2.960243,0.6480742,-0.04178248,-0.5006187,1.454377,0.3157777,-0.5084866,1.473494,0.1545911,0.3085257,1.564185,-0.08809808,-0.5197118,1.469364,0.3537374,-0.5132387,1.461328,0.1399947,-0.1444753,1.581964,0.1371438,-0.4562181,1.561973,-0.03229991,0.03077266,1.569095,0.05733269,-0.4449576,1.528546,-0.08284849,-0.2220931,1.547589,0.3398798,-0.2322985,1.541281,NA,NA,NotTracked,NotTracked,
0.9404297,-0.3305664,0.04833984,0.940918,0.2651367,0.08251953,-1,0,-1,-2,-3,-2,0,0,-1,0,1,-1,-1,-7,-3,0,3.25,3.25,3.25,1.125,1.125,1.125,2.735098,3.035712,4.443699,7.044646,2.961605,0.6502681,-0.04119595,-0.4993773,1.453174,0.3161848,-0.5094142,1.472684,0.1546176,0.3087406,1.563847,-0.08569808,-0.5199232,1.452428,0.3541466,-0.5064476,1.458844,0.1398687,-0.144392,1.581569,0.1371089,-0.4561157,1.561595,-0.03239125,0.03089644,1.568856,0.05728303,-0.4448638,1.528196,-0.08274615,-0.2221141,1.547273,0.339883,-0.2321801,1.540807,NA,NA,NotTracked,NotTracked,
0.9404297,-0.3305664,0.04833984,0.9365234,0.2680664,0.08789063,-1,0,-1,-2,-3,-2,0,0,3,1,0,0,-5,-17,-2,-1,3.25,3.25,3.25,2.5,2.5,2.5,2.735098,3.035712,4.443699,7.04259,2.961511,0.6544389,-0.04172656,-0.4992847,1.453552,0.3157925,-0.5075333,1.472845,0.1546199,0.3086989,1.563562,-0.08623368,-0.5083424,1.452225,0.3507375,-0.5253461,1.456818,0.1399312,-0.1444194,1.581302,0.1371076,-0.4561071,1.561246,-0.03243526,0.03085089,1.568495,0.05726288,-0.4448793,1.527964,-0.08269424,-0.2221277,1.547104,0.3398149,-0.2321418,1.540424,NA,NA,NotTracked,NotTracked,
0.9404297,-0.3305664,0.04833984,0.9360352,0.2626953,0.08398438,-1,0,-1,-2,-3,-2,0,0,-1,-1,-1,-7,2,1,1,-4,3.25,3.25,3.25,4.1875,4.1875,4.1875,2.735098,3.035712,4.443699,7.039485,2.959473,0.6634564,-0.0411324,-0.5002844,1.453222,0.3157532,-0.5093896,1.472199,0.1545842,0.3086058,1.563414,-0.08686986,-0.5133198,1.457816,0.3497502,-0.5165858,1.453965,0.1399355,-0.1445936,1.580978,0.1371446,-0.4562424,1.560906,-0.03180719,0.03058044,1.568843,0.05727845,-0.444981,1.527686,-0.08267309,-0.2220723,1.547019,0.3397345,-0.2322578,1.54021,NA,NA,NotTracked,NotTracked,
0.9404297,-0.3305664,0.04833984,0.9355469,0.2573242,0.08154297,-1,0,-1,-2,-3,-2,0,0,-2,-2,-1,-1,-2,-17,-3,0,3.25,3.25,3.25,0.125,0.125,0.125,2.735098,3.035712,4.443699,7.037315,2.959836,0.6707051,-0.04164836,-0.5004109,1.454152,0.3158925,-0.5091841,1.472558,0.1546326,0.30851,1.563275,-0.08843931,-0.5109506,1.462662,0.351342,-0.5231313,1.458465,0.1399477,-0.1447223,1.580888,0.1371644,-0.4563849,1.560813,-0.03180573,0.03060402,1.568733,0.05730259,-0.4451613,1.527579,-0.08266405,-0.2220206,1.54696,0.339708,-0.232511,1.539992,NA,NA,NotTracked,NotTracked,
0.9404297,-0.3305664,0.04833984,0.925293,0.2880859,0.07128906,-1,0,-1,-2,-3,-2,0,0,-8,-8,-2,1,0,-5,-2,-1,3.25,3.25,3.25,-8.1875,-8.1875,-8.1875,2.735098,3.035712,4.443699,7.032151,2.961471,0.670674,-0.04168449,-0.5005814,1.454003,0.316157,-0.5093524,1.471776,0.1546592,0.3083686,1.56325,-0.08709349,-0.5174545,1.458808,0.3521131,-0.5130101,1.456431,0.1400228,-0.1448652,1.580742,0.1372258,-0.4565072,1.560623,-0.03188753,0.03055044,1.568567,0.05736457,-0.4452949,1.527409,-0.08266263,-0.222057,1.546893,0.3396408,-0.2328396,1.539633,NA,NA,NotTracked,NotTracked,
0.9404297,-0.3305664,0.04833984,1.06543,0.4765625,0.1254883,-1,0,-1,-2,-3,-2,0,0,-5,-2,-5,4,1,-1,-1,-2,3.25,3.25,3.25,-46.875,-46.875,-46.875,2.735098,3.035712,4.443699,6.972927,3.001704,0.6715479,-0.04191896,-0.5003166,1.453159,0.3135999,-0.5087901,1.463709,0.1545949,0.3082482,1.563021,-0.08774269,-0.5178263,1.458235,0.3487362,-0.5052823,1.442307,0.1400036,-0.1449608,1.580529,0.1372175,-0.4566654,1.56033,-0.03215856,0.0304641,1.568444,0.05736135,-0.4454595,1.527124,-0.0825545,-0.2221943,1.546629,0.3396434,-0.2328538,1.539505,NA,NA,NotTracked,NotTracked,
0.9404297,-0.3305664,0.04833984,1.133301,0.4418945,0.2836914,-1,0,-1,-2,-3,-2,0,0,-5,-3,-12,1,-9,2,-1,-3,3.25,3.25,3.25,-27.9375,-27.9375,-27.9375,2.735098,3.035712,4.443699,6.614711,3.207302,0.8972592,-0.04156588,-0.4999004,1.45379,0.3000893,-0.5095542,1.435801,0.1545908,0.3081015,1.562959,-0.08633861,-0.5133121,1.456246,0.3315763,-0.4932441,1.405977,0.1399366,-0.1451233,1.580367,0.1370994,-0.4568133,1.560188,-0.03225325,0.03055752,1.568226,0.05721842,-0.4456313,1.526932,-0.08260697,-0.2221463,1.546594,0.3404284,-0.2325639,1.539665,NA,NA,NotTracked,NotTracked,
0.9404297,-0.3305664,0.04833984,0.9243164,0.565918,0.5732422,-1,0,-1,-2,-3,-2,0,0,-28,-20,-1,4,-11,4,-3,-4,3.25,3.25,3.25,-18,-18,-18,2.735098,3.035712,4.443699,6.42626,3.504538,1.103708,-0.04299249,-0.500524,1.455569,0.2690951,-0.4685066,1.383793,0.1545789,0.3079877,1.562972,-0.09094532,-0.5171181,1.464537,0.2860634,-0.4701847,1.324312,0.1392756,-0.1452724,1.580153,0.1347522,-0.4567644,1.559556,-0.03238142,0.03051127,1.568084,0.05427917,-0.445044,1.526039,-0.08277117,-0.2221678,1.546556,0.3461303,-0.2231488,1.54198,NA,NA,NotTracked,Lasso,
0.9404297,-0.3305664,0.04833984,0.5786133,0.5644531,0.659668,-1,0,-1,-2,-3,-2,0,0,-19,-8,-3,-8,2,8,1,0,3.25,3.25,3.25,-9.25,-9.25,-9.25,2.735098,3.035712,4.443699,6.306201,3.874677,1.244074,-0.04315238,-0.500679,1.453944,0.2214143,-0.4012683,1.357845,0.1546196,0.3077894,1.563026,-0.08832598,-0.5148245,1.4574,0.2194221,-0.377516,1.30278,0.1381265,-0.1453024,1.579832,0.1302125,-0.4563608,1.558288,-0.03235412,0.030526,1.567925,0.04901049,-0.4432992,1.524484,-0.08309526,-0.2219877,1.546429,0.3506218,-0.2014609,1.538336,NA,NA,NotTracked,Unknown,
0.9404297,-0.3305664,0.04833984,0.4775391,0.543457,0.7246094,-1,0,-1,-2,-3,-2,0,0,3,-16,-7,1,41,-5,-1,0,3.25,3.25,3.25,-20.75,-20.75,-20.75,2.735098,3.035712,4.443699,6.21585,4.242783,1.351732,-0.04205913,-0.4997448,1.45185,0.1797013,-0.3167496,1.319148,0.154681,0.3076055,1.563128,-0.08591597,-0.518723,1.4472,0.1996974,-0.3028343,1.278037,0.1381678,-0.1453296,1.579983,0.1303819,-0.4563268,1.55846,-0.03229054,0.03048627,1.56782,0.04949753,-0.4432349,1.524757,-0.08344499,-0.2218532,1.546086,0.3556174,-0.1968852,1.519518,NA,NA,NotTracked,Unknown,
0.9404297,-0.3305664,0.04833984,0.265625,0.5322266,0.7597656,-1,0,-1,-2,-3,-2,0,0,-1,-2,13,32,-17,4,0,0,3.25,3.25,3.25,-17.625,-17.625,-17.625,2.735098,3.035712,4.443699,6.137704,4.58839,1.472145,-0.04054329,-0.4993497,1.449823,0.1510695,-0.2338644,1.317971,0.1546998,0.3075258,1.563273,-0.08439538,-0.5172853,1.44771,0.1739855,-0.2275063,1.27371,0.1381993,-0.1452978,1.580133,0.1307849,-0.4562197,1.558516,-0.0306431,0.02991929,1.5689,0.05022254,-0.4431731,1.524944,-0.08364523,-0.2212393,1.545537,0.3938114,-0.1951365,1.473028,NA,NA,NotTracked,Unknown,
0.9404297,-0.3305664,0.04833984,0.02734375,0.5097656,0.8125,-1,0,-1,-2,-3,-2,0,0,12,-12,1,-3,4,3,3,3,3.25,3.25,3.25,-11.0625,-11.0625,-11.0625,2.735098,3.035712,4.443699,6.082843,4.9912,1.654383,-0.03956986,-0.4992768,1.450858,0.1271994,-0.1612268,1.312835,0.1544886,0.3073747,1.564014,-0.08495135,-0.5162925,1.450641,0.1220487,-0.141378,1.272148,0.138216,-0.1451779,1.580478,0.1310429,-0.4557064,1.558686,-0.02971971,0.02981835,1.568515,0.05062973,-0.442723,1.525401,-0.08384556,-0.2210665,1.545465,0.3932384,-0.195573,1.47094,NA,NA,NotTracked,Unknown,
0.9404297,-0.3305664,0.04833984,-0.09033203,0.5234375,0.8066406,-1,0,-1,-2,-3,-2,0,0,16,11,-2,-2,-2,-1,2,0,3.25,3.25,3.25,-3,-3,-3,2.735098,3.035712,4.443699,6.080283,5.164242,1.760983,-0.03897647,-0.4999666,1.451113,0.1125246,-0.107504,1.321325,0.1542859,0.307294,1.564372,-0.08481129,-0.516421,1.451883,0.1166082,-0.08061872,1.2925,0.1383341,-0.1448734,1.580777,0.1315235,-0.4544964,1.558879,-0.03000413,0.03011015,1.568677,0.05149302,-0.4417801,1.525928,-0.08382979,-0.2210608,1.545377,0.338339,-0.1787221,1.443564,NA,NA,NotTracked,Unknown,
0.9404297,-0.3305664,0.04833984,-0.2285156,0.5170898,0.7387695,-1,0,-1,-2,-3,-2,0,0,13,0,4,0,1,-4,2,1,3.25,3.25,3.25,1.4375,1.4375,1.4375,2.735098,3.035712,4.443699,6.135623,5.479207,2.044873,-0.03967097,-0.4998172,1.45209,0.02350934,-0.05430958,1.354676,0.1538363,0.3071397,1.564859,-0.08510664,-0.5151877,1.451626,0.04141028,-0.02966902,1.303762,0.1382791,-0.1447903,1.58099,0.1316724,-0.4540654,1.559024,-0.03091886,0.02992678,1.568647,0.05197538,-0.4413564,1.526859,-0.08409609,-0.2219622,1.545306,0.3251026,-0.1711871,1.42399,NA,NA,NotTracked,Lasso,
0.9404297,-0.3305664,0.04833984,-0.2758789,0.5478516,0.6972656,-1,0,-1,-2,-3,-2,0,0,-21,-44,-9,-7,2,-2,-1,-3,3.25,3.25,3.25,-3.625,-3.625,-3.625,2.735098,3.035712,4.443699,6.178277,5.585143,2.199056,-0.03996192,-0.5003467,1.453586,0.07144725,-0.04216265,1.344802,0.1534703,0.3069769,1.565146,-0.08658271,-0.5087536,1.466429,0.03402695,-0.06695637,1.409,0.138179,-0.144565,1.581144,0.1318188,-0.4533178,1.559053,-0.03212349,0.03022774,1.56909,0.05223299,-0.4408073,1.52754,-0.08424381,-0.2224517,1.545519,0.3172317,-0.1653607,1.413184,NA,NA,NotTracked,Unknown,
0.9404297,-0.3305664,0.04833984,-0.2871094,0.5732422,0.7109375,-1,0,-1,-2,-3,-2,0,0,-9,-9,0,-5,-6,-1,1,1,3.25,3.25,3.25,-4.8125,-4.8125,-4.8125,2.735098,3.035712,4.443699,6.208958,5.641307,2.321233,-0.04043304,-0.5012771,1.454684,0.00698525,-0.005085535,1.372017,0.153041,0.3069775,1.565476,-0.08544929,-0.5242056,1.4552,-0.0157227,-0.03376064,1.418941,0.1379535,-0.144327,1.58155,0.1318316,-0.4528285,1.559271,-0.03201746,0.03012195,1.569607,0.05239944,-0.4404278,1.528801,-0.08436072,-0.2225003,1.545923,0.3082545,-0.1590797,1.404005,NA,NA,Unknown,Unknown,
0.9404297,-0.3305664,0.04833984,-0.296875,0.6088867,0.6884766,-1,0,-1,-2,-3,-2,0,0,-51,-6,2,-3,-22,-18,-5,-5,3.25,3.25,3.25,-10.875,-10.875,-10.875,2.735098,3.035712,4.443699,6.234766,5.679891,2.444657,-0.04070771,-0.5002905,1.454304,0.04847081,-0.01652708,1.359315,0.1522696,0.3072357,1.565713,-0.08495422,-0.5136375,1.451152,0.04377946,-0.05044689,1.432755,0.137701,-0.1440514,1.581726,0.1315726,-0.4523138,1.559369,-0.03190292,0.02997062,1.56973,0.05213641,-0.4401635,1.529571,-0.08456694,-0.2224742,1.546545,0.2956932,-0.1569566,1.398366,NA,NA,Unknown,Unknown,
0.9404297,-0.3305664,0.04833984,-0.3276367,0.6582031,0.6606445,-1,0,-1,-2,-3,-2,0,0,-32,-4,0,14,12,-2,-2,-8,3.25,3.25,3.25,-4.625,-4.625,-4.625,2.735098,3.035712,4.443699,6.250498,5.696647,2.503128,-0.04216822,-0.5001742,1.455051,0.04738946,-0.01322038,1.362556,0.1512377,0.3075798,1.565843,-0.08858033,-0.501708,1.464862,0.07119903,-0.05350842,1.436044,0.1373928,-0.1437563,1.581831,0.1313854,-0.451724,1.55926,-0.03165864,0.02955162,1.569731,0.05203488,-0.439965,1.5298,-0.08498222,-0.2221462,1.547272,0.2876203,-0.1542384,1.394212,NA,NA,Unknown,Unknown,
0.9404297,-0.3305664,0.04833984,-0.3520508,0.668457,0.6699219,-1,0,-1,-2,-3,-2,0,0,12,7,1,-1,2,1,0,3,3.25,3.25,3.25,-3.5,-3.5,-3.5,2.735098,3.035712,4.443699,6.254457,5.707203,2.535597,-0.04311525,-0.5007789,1.455325,0.04622278,-0.01030845,1.364157,0.1505294,0.3077281,1.565804,-0.08778352,-0.5125268,1.456274,0.04273522,-0.04334086,1.436,0.1371187,-0.1435352,1.581869,0.1312951,-0.4514291,1.55919,-0.03150304,0.0287251,1.569638,0.05197757,-0.4398836,1.529959,-0.08539742,-0.2220419,1.548122,0.2830382,-0.1529065,1.392788,NA,NA,Unknown,Unknown,
0.9404297,-0.3305664,0.04833984,-0.315918,0.6689453,0.6782227,-1,0,-1,-2,-3,-2,0,0,3,2,0,-3,-1,-5,0,3,3.25,3.25,3.25,3.875,3.875,3.875,2.735098,3.035712,4.443699,6.260839,5.714735,2.541934,-0.04378,-0.5005811,1.455701,0.04751324,-0.006768208,1.366557,0.1498502,0.3077306,1.565775,-0.08910756,-0.5176105,1.458306,0.04156554,-0.03248267,1.434727,0.1367701,-0.1434203,1.581939,0.1310702,-0.4513469,1.559163,-0.03128571,0.02791312,1.569231,0.05174993,-0.4400146,1.530136,-0.08598275,-0.2215798,1.548508,0.2817368,-0.1528268,1.392153,NA,NA,Unknown,Unknown,
0.9404297,-0.3305664,0.04833984,-0.2563477,0.7006836,0.6645508,-1,0,-1,-2,-3,-2,0,0,7,1,-1,-7,-12,-5,1,-3,3.25,3.25,3.25,13.8125,13.8125,13.8125,2.735098,3.035712,4.443699,6.262907,5.709236,2.512266,-0.04458408,-0.4999527,1.453896,0.0532667,-0.003393077,1.367758,0.1489148,0.307784,1.565439,-0.08971088,-0.5112543,1.449026,0.06697135,-0.03804462,1.443,0.13629,-0.1432487,1.581793,0.1308194,-0.451161,1.558981,-0.03120214,0.02745753,1.568901,0.05158573,-0.4400004,1.530109,-0.08632296,-0.2216221,1.548554,0.2827673,-0.1521336,1.392589,NA,NA,Unknown,Unknown,
0.9404297,-0.3305664,0.04833984,-0.2539063,0.7431641,0.668457,-1,0,-1,-2,-3,-2,0,0,5,-10,-2,12,-3,3,2,0,3.25,3.25,3.25,25.1875,25.1875,25.1875,2.735098,3.035712,4.443699,6.271113,5.675068,2.440851,-0.04480463,-0.4995479,1.452647,0.0268035,0.01106694,1.393396,0.1477557,0.3082809,1.564955,-0.08963764,-0.5140603,1.453244,0.02920193,-0.02673502,1.453528,0.1357678,-0.1430044,1.581522,0.1304766,-0.4509065,1.558634,-0.03106006,0.02753972,1.568825,0.05117464,-0.4397974,1.529622,-0.08685204,-0.2213218,1.5485,0.2909343,-0.1503505,1.392677,NA,NA,Unknown,Unknown,
0.9404297,-0.3305664,0.04833984,-0.3896484,0.6938477,0.7470703,-1,0,-1,-2,-3,-2,0,0,-1,0,-1,0,0,7,-3,-2,3.25,3.25,3.25,45.3125,45.3125,45.3125,2.735098,3.035712,4.443699,6.285689,5.628749,2.264635,-0.04485082,-0.4997746,1.453582,0.108798,-0.01209683,1.349385,0.1459842,0.3087549,1.564057,-0.08942562,-0.5185631,1.452335,0.09648161,-0.04273876,1.4035,0.1349081,-0.1427859,1.581233,0.130097,-0.4509023,1.558376,-0.03092974,0.02767157,1.56895,0.05067319,-0.4398596,1.52911,-0.08747853,-0.2210918,1.548636,0.3080074,-0.1532246,1.400222,NA,NA,Unknown,Unknown,
0.9404297,-0.3305664,0.04833984,-0.3706055,0.5942383,0.7260742,-1,0,-1,-2,-3,-2,0,0,60,9,-5,11,-23,-17,13,17,3.25,3.25,3.25,47.25,47.25,47.25,2.735098,3.035712,4.443699,6.286636,5.60787,2.151957,-0.04638653,-0.5007071,1.453563,0.1061338,-0.005255053,1.352704,0.1441415,0.3091443,1.563493,-0.09104769,-0.5133148,1.456993,0.04846417,-0.01424573,1.42625,0.1338168,-0.1427528,1.580915,0.1292468,-0.4510188,1.558033,-0.03084762,0.02784803,1.569449,0.04957826,-0.4400518,1.528507,-0.08809714,-0.2209077,1.548615,0.3394959,-0.1611309,1.411109,NA,NA,NotTracked,Unknown,
0.9404297,-0.3305664,0.04833984,-0.4174805,0.5185547,0.8041992,-1,0,-1,-2,-3,-2,0,0,-25,-1,11,10,-18,-19,0,-8,3.25,3.25,3.25,54.3125,54.3125,54.3125,2.735098,3.035712,4.443699,6.27979,5.555221,1.806902,-0.04713775,-0.4998109,1.453044,0.1361149,-0.01319323,1.347944,0.1428716,0.3093371,1.563186,-0.09209067,-0.513502,1.456879,0.1023862,-0.0249429,1.4383,0.1330182,-0.1427954,1.58057,0.1287036,-0.4512343,1.557656,-0.03257204,0.02834724,1.568999,0.0487893,-0.4403438,1.527776,-0.08873931,-0.2206446,1.548248,0.3597159,-0.159335,1.420565,NA,NA,NotTracked,Lasso,
0.9404297,-0.3305664,0.04833984,-0.4311523,0.5336914,0.7158203,-1,0,-1,-2,-3,-2,0,0,22,0,-2,-11,0,2,0,1,3.25,3.25,3.25,60.875,60.875,60.875,2.735098,3.035712,4.443699,6.29202,5.534286,1.655519,-0.04728735,-0.4991878,1.450648,0.2319163,-0.03773895,1.326504,0.1414986,0.3097599,1.562754,-0.09373815,-0.517495,1.444097,0.2101073,-0.06255028,1.3465,0.1325381,-0.1426599,1.58008,0.1283599,-0.4513333,1.557237,-0.03638406,0.02926142,1.568038,0.04828892,-0.4404587,1.52707,-0.08949216,-0.2204751,1.547481,0.3834439,-0.1623612,1.444221,NA,NA,NotTracked,Unknown,
0.9404297,-0.3305664,0.04833984,-0.4272461,0.5507813,0.7973633,-1,0,-1,-2,-3,-2,0,0,-34,-13,1,-4,-3,-16,3,-9,3.25,3.25,3.25,30.5625,30.5625,30.5625,2.735098,3.035712,4.443699,6.2686,5.494831,1.405448,-0.04590518,-0.4986997,1.447952,0.2644729,-0.04431999,1.324834,0.1404715,0.3104111,1.562171,-0.0898687,-0.523659,1.443611,0.2355036,-0.06418081,1.345733,0.1321896,-0.142366,1.579283,0.1282014,-0.4513009,1.556429,-0.03762764,0.0300756,1.566851,0.0479736,-0.4404505,1.525917,-0.09019142,-0.2199793,1.546222,0.3893449,-0.1640818,1.470862,NA,NA,NotTracked,Unknown,
0.9404297,-0.3305664,0.04833984,-0.5307617,0.5439453,0.7944336,-1,0,-1,-2,-3,-2,0,0,-15,2,-3,-11,10,6,-2,0,3.25,3.25,3.25,21.25,21.25,21.25,2.735098,3.035712,4.443699,6.210861,5.461342,0.9932206,-0.04490798,-0.4990972,1.448916,0.3048294,-0.05202045,1.330389,0.1400179,0.3108202,1.561822,-0.09213168,-0.5147303,1.456112,0.2665026,-0.06806067,1.344,0.1320529,-0.1421697,1.578875,0.1281463,-0.4512608,1.555992,-0.03847523,0.03046021,1.566371,0.04787519,-0.4404459,1.525087,-0.09026024,-0.2200364,1.545556,0.3938429,-0.1677202,1.505488,NA,NA,NotTracked,Unknown,
0.9404297,-0.3305664,0.04833984,-0.5175781,0.5473633,0.8071289,-1,0,-1,-2,-3,-2,0,0,-17,0,-1,6,0,37,7,-4,3.25,3.25,3.25,14.375,14.375,14.375,2.735098,3.035712,4.443699,6.177857,5.475561,0.8222688,-0.04416551,-0.4998843,1.448725,0.3237996,-0.05449414,1.336059,0.1398295,0.3108867,1.561574,-0.09044054,-0.5030965,1.466555,0.3159398,-0.08286735,1.333372,0.1321364,-0.1423481,1.578361,0.1283542,-0.4515487,1.55561,-0.03877338,0.03031084,1.565431,0.04813004,-0.4407616,1.524131,-0.08996151,-0.2195465,1.544352,0.4457277,-0.2251317,1.537802,NA,NA,NotTracked,Unknown,
0.9404297,-0.3305664,0.04833984,-0.5146484,0.5546875,0.7685547,-1,0,-1,-2,-3,-2,0,0,-2,-33,-10,4,3,4,-1,-1,3.25,3.25,3.25,5.75,5.75,5.75,2.735098,3.035712,4.443699,6.153222,5.502017,0.7338493,-0.04390309,-0.498943,1.446584,0.3321662,-0.05366447,1.340253,0.1398874,0.3109397,1.560889,-0.08866084,-0.5105119,1.449806,0.3183973,-0.08046329,1.337052,0.1325393,-0.1424631,1.57777,0.1287257,-0.4517381,1.555159,-0.03876507,0.03008715,1.56412,0.04864687,-0.4409583,1.523001,-0.08972459,-0.2194244,1.542924,0.445775,-0.2259435,1.540316,NA,NA,NotTracked,Unknown,
0.9404297,-0.3305664,0.04833984,-0.4345703,0.5498047,0.7265625,-1,0,-1,-2,-3,-2,0,0,14,10,4,7,20,39,11,3,3.25,3.25,3.25,-3.25,-3.25,-3.25,2.735098,3.035712,4.443699,6.135274,5.525508,0.7017564,-0.04197414,-0.497958,1.443893,0.3336613,-0.05321803,1.340701,0.1405245,0.3108504,1.560127,-0.08874056,-0.5118564,1.453764,0.3279505,-0.07989294,1.331694,0.1331408,-0.1424518,1.576986,0.129431,-0.4517962,1.554421,-0.03831843,0.03026631,1.562304,0.04938504,-0.44095,1.521685,-0.08870645,-0.2196661,1.539914,0.4452601,-0.2263436,1.540397,NA,NA,NotTracked,Unknown,
0.9404297,-0.3305664,0.04833984,-0.3818359,0.5859375,0.7358398,-1,0,-1,-2,-3,-2,0,0,-15,11,20,8,14,13,-2,-9,3.25,3.25,3.25,-9.625,-9.625,-9.625,2.735098,3.035712,4.443699,6.117136,5.537498,0.6989385,-0.03979066,-0.4975603,1.443437,0.3329851,-0.05537339,1.339609,0.1414655,0.3109255,1.559545,-0.07855578,-0.5199276,1.436051,0.3255803,-0.07991651,1.324487,0.1339095,-0.1423999,1.576692,0.1304104,-0.4518438,1.554186,-0.03770911,0.03027901,1.561321,0.0503056,-0.4409829,1.521128,-0.088176,-0.2188856,1.538861,0.4435991,-0.2274799,1.54303,NA,NA,NotTracked,Unknown,
0.9404297,-0.3305664,0.04833984,-0.359375,0.6279297,0.7592773,-1,0,-1,-2,-3,-2,0,0,16,17,8,2,-6,2,-4,-5,3.25,3.25,3.25,-10.8125,-10.8125,-10.8125,2.735098,3.035712,4.443699,6.092304,5.53922,0.6994401,-0.03723543,-0.4991437,1.442882,0.3325398,-0.05784357,1.33948,0.1424486,0.3109499,1.559188,-0.08058847,-0.5238139,1.4431,0.2865323,-0.06948707,1.351278,0.1344665,-0.1423919,1.576393,0.1310463,-0.4519494,1.553861,-0.03723681,0.03040866,1.560792,0.05089936,-0.4410621,1.520588,-0.08727665,-0.2190762,1.537625,0.4410479,-0.2293261,1.543798,NA,NA,NotTracked,Unknown,
0.9404297,-0.3305664,0.04833984,-0.3618164,0.5981445,0.7753906,-1,0,-1,-2,-3,-2,0,0,-18,1,3,2,-5,-20,-1,-6,3.25,3.25,3.25,-8.875,-8.875,-8.875,2.735098,3.035712,4.443699,6.074806,5.538449,0.7055141,-0.03776275,-0.4996626,1.445421,0.3300205,-0.06015413,1.33888,0.1434272,0.3108431,1.559162,-0.08356182,-0.5005622,1.457737,0.2844349,-0.07171661,1.351056,0.1349241,-0.1424595,1.576244,0.1315882,-0.4521174,1.553756,-0.03644231,0.03049208,1.560173,0.05135003,-0.4411833,1.520351,-0.08710391,-0.2191215,1.537488,0.4395225,-0.2307582,1.543117,NA,NA,NotTracked,Unknown,
0.9404297,-0.3305664,0.04833984,-0.3383789,0.5791016,0.7636719,-1,0,-1,-2,-3,-2,0,0,25,19,-2,-3,0,1,8,64,3.25,3.25,3.25,-7.5,-7.5,-7.5,2.735098,3.035712,4.443699,6.062888,5.527681,0.7227813,-0.03850822,-0.4996939,1.446263,0.3286164,-0.06403507,1.33753,0.1442939,0.3107231,1.558911,-0.0826977,-0.5112497,1.446168,0.3092298,-0.08294857,1.325526,0.1355434,-0.1424597,1.576035,0.1318948,-0.4521429,1.553666,-0.03599728,0.03050248,1.560021,0.05157326,-0.4411875,1.520221,-0.08702347,-0.2190517,1.537459,0.4383842,-0.2316214,1.542354,NA,NA,NotTracked,Unknown,
0.9404297,-0.3305664,0.04833984,-0.3164063,0.5605469,0.7685547,-1,0,-1,-2,-3,-2,0,0,-4,1,-2,2,-4,-2,-7,-12,3.25,3.25,3.25,-12.5,-12.5,-12.5,2.735098,3.035712,4.443699,6.047655,5.503284,0.7411335,-0.03943645,-0.5002664,1.448351,0.3235945,-0.07222764,1.332361,0.1452653,0.3108376,1.558753,-0.0893601,-0.5180109,1.460364,0.2683797,-0.07957002,1.344214,0.1358905,-0.1424258,1.576011,0.1321333,-0.4521406,1.553775,-0.03563283,0.03077582,1.560141,0.05177593,-0.441185,1.520303,-0.08682686,-0.2187631,1.537663,0.4370191,-0.2324633,1.538349,NA,NA,NotTracked,Unknown,
0.9404297,-0.3305664,0.04833984,-0.3022461,0.5019531,0.7280273,-1,0,-1,-2,-3,-2,0,0,-7,-2,-1,-3,-2,5,-1,-11,3.25,3.25,3.25,-7.25,-7.25,-7.25,2.735098,3.035712,4.443699,6.03283,5.454895,0.7489257,-0.03948043,-0.5003839,1.449168,0.3177623,-0.09196529,1.325778,0.1460491,0.3109139,1.558629,-0.08662237,-0.5049493,1.460164,0.2432053,-0.08728905,1.327375,0.1360663,-0.1423888,1.576022,0.132171,-0.4521195,1.55384,-0.03513184,0.03114548,1.560192,0.05181189,-0.4411273,1.520392,-0.08660885,-0.2183407,1.537873,0.387682,-0.1877714,1.52145,NA,NA,NotTracked,Unknown,
0.9404297,-0.3305664,0.04833984,-0.2075195,0.4560547,0.6967773,-1,0,-1,-2,-3,-2,0,0,-2,1,4,8,7,10,-4,-11,3.25,3.25,3.25,-6.5,-6.5,-6.5,2.735098,3.035712,4.443699,6.013548,5.347671,0.7440183,-0.04012717,-0.4982409,1.448566,0.3088942,-0.125597,1.316674,0.1466141,0.310915,1.558474,-0.08673809,-0.5173825,1.453838,0.2435011,-0.1279795,1.330188,0.1361313,-0.1424151,1.575968,0.1320858,-0.4521791,1.553809,-0.03458274,0.03136221,1.560212,0.05172784,-0.4411241,1.520414,-0.08639111,-0.2181784,1.538092,0.3886506,-0.2007671,1.50578,NA,NA,NotTracked,Unknown,
0.9404297,-0.3305664,0.04833984,-0.1079102,0.487793,0.7475586,-1,0,-1,-2,-3,-2,0,0,0,-1,0,5,1,3,-4,-6,3.25,3.25,3.25,-0.875,-0.875,-0.875,2.735098,3.035712,4.443699,5.994091,5.109194,0.7330046,-0.0411052,-0.4986894,1.447519,0.3057209,-0.1751034,1.305101,0.1468209,0.3109523,1.558476,-0.08623464,-0.5114709,1.439286,0.2677113,-0.1972313,1.309875,0.136234,-0.1423771,1.575853,0.1320481,-0.4521684,1.553724,-0.03450117,0.0313231,1.560305,0.05168866,-0.4410676,1.520342,-0.08629835,-0.2180582,1.538184,0.3818073,-0.1766673,1.541026,NA,NA,NotTracked,Unknown,
0.9404297,-0.3305664,0.04833984,0.03613281,0.519043,0.7861328,-1,0,-1,-2,-3,-2,0,0,-3,-2,-1,-3,-1,-5,-3,-2,3.25,3.25,3.25,1,1,1,2.735098,3.035712,4.443699,5.995746,4.956406,0.7266158,-0.03943855,-0.4977203,1.447163,0.3034752,-0.236028,1.302586,0.1470612,0.3109792,1.558554,-0.0851858,-0.509918,1.451563,0.2494726,-0.2682926,1.308833,0.1363003,-0.1423581,1.575855,0.132043,-0.4521639,1.553714,-0.03434858,0.03140568,1.560454,0.05168483,-0.4410171,1.520277,-0.08620133,-0.2180261,1.538201,0.4094929,-0.1874706,1.536371,NA,NA,NotTracked,Lasso,
0.9404297,-0.3305664,0.04833984,0.2041016,0.5864258,0.6835938,-1,0,-1,-2,-3,-2,0,0,-1,0,-2,-5,-3,8,-2,1,3.25,3.25,3.25,17.0625,17.0625,17.0625,2.735098,3.035712,4.443699,6.046786,4.513842,0.6621004,-0.03931077,-0.4976493,1.447098,0.309073,-0.3064919,1.310385,0.1471726,0.3109512,1.558502,-0.08379218,-0.5185018,1.444449,0.2365151,-0.3535658,1.331444,0.1363628,-0.1424116,1.575824,0.1320378,-0.4522927,1.553639,-0.03427896,0.03138523,1.560518,0.05167276,-0.4411303,1.52018,-0.0861281,-0.2179938,1.53824,0.3600007,-0.1866792,1.561448,NA,NA,NotTracked,Lasso,
0.9404297,-0.3305664,0.04833984,0.5512695,0.5996094,0.6870117,-1,0,-1,-2,-3,-2,0,0,-1,-1,-3,-2,0,2,-1,1,3.25,3.25,3.25,30.25,30.25,30.25,2.735098,3.035712,4.443699,6.11707,4.206785,0.5886087,-0.03938827,-0.4978063,1.446354,0.3175536,-0.3806272,1.3276,0.1473843,0.3109261,1.558464,-0.08445373,-0.5173416,1.447772,0.2552533,-0.4505758,1.357667,0.1365187,-0.1424345,1.575778,0.1321767,-0.4523716,1.553579,-0.03409496,0.03147801,1.560722,0.05177604,-0.4411446,1.520121,-0.08590154,-0.2181055,1.538341,0.355528,-0.191847,1.560101,NA,NA,NotTracked,Lasso,
0.9404297,-0.3305664,0.04833984,0.8452148,0.3608398,0.6152344,-1,0,-1,-2,-3,-2,0,0,1,-1,0,2,2,0,-1,1,3.25,3.25,3.25,44.3125,44.3125,44.3125,2.735098,3.035712,4.443699,6.198812,3.774223,0.5567247,-0.03927049,-0.4982351,1.448433,0.3241496,-0.4569767,1.364357,0.147622,0.3109045,1.55861,-0.08340755,-0.5144198,1.444231,0.3001002,-0.4845791,1.395786,0.136937,-0.1425421,1.575909,0.1334172,-0.4528821,1.553864,-0.03403779,0.03151832,1.560917,0.05307493,-0.4416201,1.520329,-0.08549057,-0.2182501,1.538505,0.3522261,-0.2097431,1.553248,NA,NA,NotTracked,Lasso,
0.9404297,-0.3305664,0.04833984,0.9692383,0.375,0.3808594,-1,0,-1,-2,-3,-2,0,0,-3,0,-1,0,-3,2,-12,-3,3.25,3.25,3.25,147.0625,147.0625,147.0625,2.735098,3.035712,4.443699,6.346578,3.435648,0.608771,-0.03960305,-0.4985119,1.447766,0.326658,-0.5008845,1.411889,0.1477705,0.310845,1.558605,-0.08832198,-0.5233861,1.461,0.2865429,-0.4521107,1.458539,0.1374271,-0.1428425,1.576005,0.1350156,-0.4539379,1.554213,-0.03392526,0.03144832,1.561101,0.05491817,-0.4427743,1.520613,-0.08511988,-0.2183931,1.538571,0.3483614,-0.2219876,1.547404,NA,NA,NotTracked,Unknown,
