ALX,ALY,ALZ,ARX,ARY,ARZ,EMG0L,EMG1L,EMG2L,EMG3L,EMG4L,EMG5L,EMG6L,EMG7L,EMG0R,EMG1R,EMG2R,EMG3R,EMG4R,EMG5R,EMG6R,EMG7R,GLX,GLY,GLZ,GRX,GRY,GRZ,ORL,OPL,OYL,ORR,OPR,OYR,LHNX,LHNY,LHNZ,RHNX,RHNY,RHNZ,HX,HY,HZ,LTX,LTY,LTZ,RTX,RTY,RTZ,SpineMidX,SpineMidY,SpineMidZ,SpineBaseX,SpineBaseY,SpineBaseZ,ShoulderLeftX,ShoulderLeftY,ShoulderLeftZ,ShoulderRightX,ShoulderRightY,ShoulderRightZ,ElbowLeftX,ElbowLeftY,ElbowLeftZ,ElbowRightX,ElbowRightY,ElbowRightZ,Myo_Pose_left,Myo_Pose_Right,Kinect_pose_left,Kinect_pose_right
0.9477539,-0.2988281,0.04052734,0.9228516,0.3012695,0.1318359,-2,-1,-1,0,-1,-2,-1,-1,-1,-1,0,4,-4,-1,-1,1,0.5,0.5,0.5,-0.125,-0.125,-0.125,2.730398,2.986902,5.803496,6.832755,3.03478,5.210813,-0.02952319,-0.5044658,1.498536,0.313462,-0.5142696,1.499834,0.1594005,0.3091423,1.602027,-0.07420755,-0.5257395,1.49225,0.3532726,-0.5117111,1.479598,0.1459896,-0.1485839,1.620122,0.1456948,-0.4630901,1.600909,-0.02498291,0.02830609,1.6069,0.06436339,-0.4519439,1.567878,-0.0722345,-0.220767,1.588043,0.3494424,-0.232794,1.568853,NA,NA,NotTracked,NotTracked,
0.9516602,-0.2993164,0.04199219,0.9189453,0.2954102,0.1303711,1,-1,0,-2,-1,-2,1,0,-1,-1,-1,-2,-11,1,0,1,0,0,0,-0.0625,-0.0625,-0.0625,2.729698,2.986459,5.804074,6.832755,3.03478,5.210813,-0.03029682,-0.5055935,1.498669,0.3134615,-0.5151594,1.499341,0.1593595,0.3090624,1.602009,-0.07813101,-0.515553,1.509985,0.3566848,-0.4965502,1.484933,0.1459728,-0.1487435,1.620328,0.1456278,-0.4632244,1.601053,-0.0251624,0.02827639,1.60727,0.0642908,-0.4520982,1.568025,-0.07236916,-0.2206053,1.588249,0.3493863,-0.2328379,1.568993,NA,NA,NotTracked,NotTracked,
0.9511719,-0.2978516,0.04931641,0.9228516,0.2988281,0.125,-1,-3,0,-1,0,-2,-1,-1,-1,-1,1,4,9,-5,-1,0,-0.1875,-0.1875,-0.1875,1.1875,1.1875,1.1875,2.730398,2.986902,5.803496,6.833735,3.034912,5.210661,-0.02991566,-0.5049211,1.497494,0.3125554,-0.5147098,1.498491,0.1593174,0.3088278,1.602008,-0.07628182,-0.5196335,1.49469,0.3536804,-0.5062225,1.482708,0.1459696,-0.1488437,1.620398,0.1455813,-0.4633405,1.601155,-0.02532994,0.02818189,1.607487,0.06425011,-0.4522574,1.56818,-0.07245909,-0.2206642,1.588394,0.3492959,-0.2328185,1.569068,NA,NA,NotTracked,NotTracked,
0.9511719,-0.2998047,0.03955078,0.9233398,0.3007813,0.1225586,0,-1,0,-1,-1,-2,-1,-1,-5,-3,-1,-3,-3,-7,-1,1,-0.3125,-0.3125,-0.3125,-1.25,-1.25,-1.25,2.730345,2.98716,5.803746,6.8338,3.035026,5.210045,-0.03020662,-0.5052195,1.497971,0.3130984,-0.5141956,1.498826,0.1592875,0.3088043,1.601994,-0.07767835,-0.5187199,1.490875,0.3542323,-0.5118418,1.481617,0.1459581,-0.1488571,1.620532,0.1455715,-0.4633297,1.601238,-0.02532098,0.02819037,1.607661,0.06423979,-0.4522482,1.568227,-0.07257753,-0.2209332,1.588507,0.3491838,-0.2328333,1.569196,NA,NA,NotTracked,NotTracked,
0.9492188,-0.3007813,0.04052734,0.9248047,0.2954102,0.1367188,-2,-1,-2,-1,-1,0,-2,-1,-2,-3,-2,-4,8,-1,-1,-3,-0.375,-0.375,-0.375,-0.8125,-0.8125,-0.8125,2.730345,2.98716,5.803746,6.829344,3.035672,5.212546,-0.03045991,-0.5042984,1.498624,0.313172,-0.5142382,1.499372,0.1592623,0.3088051,1.601945,-0.07712808,-0.5201074,1.498908,0.3543909,-0.5120675,1.483199,0.1459921,-0.1488243,1.620601,0.1455353,-0.4632435,1.601346,-0.0254419,0.02831091,1.608003,0.06420621,-0.4521074,1.56833,-0.07272788,-0.2206638,1.588732,0.3491351,-0.2327711,1.569251,NA,NA,NotTracked,NotTracked,
0.9492188,-0.3007813,0.04052734,0.9165039,0.2973633,0.1362305,-2,-1,-2,-1,-1,0,-2,-1,-1,0,-3,-2,0,6,0,3,-0.375,-0.375,-0.375,0.5,0.5,0.5,2.730345,2.98716,5.803746,6.829057,3.035794,5.212961,-0.03022739,-0.5046279,1.497467,0.3128074,-0.5149304,1.498504,0.1592762,0.308782,1.601952,-0.07645653,-0.5182252,1.496918,0.3538667,-0.5042264,1.482581,0.1459868,-0.148824,1.620689,0.1455462,-0.463197,1.601426,-0.02556008,0.02824944,1.608109,0.06423323,-0.452101,1.568409,-0.07287055,-0.2208375,1.588731,0.3490854,-0.2326234,1.569294,NA,NA,NotTracked,NotTracked,
0.9492188,-0.3007813,0.04052734,0.9550781,0.3232422,0.109375,-2,-1,-2,-1,-1,0,-2,-1,3,8,-8,-11,1,6,-1,1,-0.375,-0.375,-0.375,-3.6875,-3.6875,-3.6875,2.730345,2.98716,5.803746,6.831259,3.036291,5.209238,-0.03005259,-0.504617,1.498288,0.3130088,-0.5151321,1.498935,0.1593145,0.308681,1.601927,-0.07671596,-0.5174458,1.493028,0.3556067,-0.5177948,1.4864,0.1459695,-0.1488959,1.620747,0.1455143,-0.4633043,1.601462,-0.02571139,0.0279694,1.608196,0.06420306,-0.4522249,1.568442,-0.07292559,-0.2208967,1.588716,0.3490237,-0.2326422,1.569438,NA,NA,NotTracked,NotTracked,
0.9492188,-0.3007813,0.04052734,1.050781,0.3364258,0.1933594,-2,-1,-2,-1,-1,0,-2,-1,-6,-4,-4,2,0,4,0,0,-0.375,-0.375,-0.375,-65.9375,-65.9375,-65.9375,2.730345,2.98716,5.803746,6.679914,3.084217,5.28887,-0.03004034,-0.5046268,1.499187,0.3106842,-0.512602,1.491209,0.1593302,0.3086312,1.601935,-0.07687464,-0.5178188,1.499311,0.3488646,-0.5088496,1.46948,0.1458937,-0.1489343,1.62087,0.1454569,-0.4633754,1.601565,-0.02582492,0.0279195,1.608431,0.0641439,-0.4523107,1.568493,-0.07285318,-0.2209788,1.588748,0.3493051,-0.2329377,1.569992,NA,NA,NotTracked,NotTracked,
0.9492188,-0.3007813,0.04052734,1.039551,0.5859375,0.402832,-2,-1,-2,-1,-1,0,-2,-1,0,-3,-5,-2,2,2,0,0,-0.375,-0.375,-0.375,-15.3125,-15.3125,-15.3125,2.730345,2.98716,5.803746,6.487258,3.23425,5.455298,-0.02939372,-0.5035166,1.49817,0.2942692,-0.4965375,1.459479,0.159317,0.3086272,1.601982,-0.07597225,-0.5201764,1.494998,0.3211201,-0.4850911,1.3892,0.1457883,-0.1487979,1.620916,0.1448128,-0.4630546,1.60166,-0.02590835,0.02791675,1.608536,0.06338222,-0.4517661,1.568467,-0.07300749,-0.2208481,1.588886,0.3509918,-0.2305382,1.57208,NA,NA,NotTracked,Unknown,
0.9492188,-0.3007813,0.04052734,0.7631836,0.5327148,0.6455078,-2,-1,-2,-1,-1,0,-2,-1,5,5,4,32,-5,-6,-2,-1,-0.375,-0.375,-0.375,-20.5,-20.5,-20.5,2.730345,2.98716,5.803746,6.264819,3.615707,5.627237,-0.03010953,-0.5052798,1.498177,0.2671219,-0.448457,1.413549,0.1593483,0.3086501,1.601992,-0.0767144,-0.5213894,1.498636,0.292876,-0.4511341,1.365273,0.144821,-0.1482586,1.621031,0.1418891,-0.462143,1.601655,-0.02587282,0.02801861,1.608562,0.05960749,-0.4493085,1.567885,-0.07329816,-0.220732,1.588945,0.3554382,-0.2137575,1.577103,NA,NA,NotTracked,Unknown,
0.9492188,-0.3007813,0.04052734,0.6254883,0.6196289,0.7226563,-2,-1,-2,-1,-1,0,-2,-1,-5,-4,-4,4,-6,6,-2,-4,-0.375,-0.375,-0.375,-3.0625,-3.0625,-3.0625,2.730345,2.98716,5.803746,6.21476,3.982083,5.693478,-0.02924256,-0.5042486,1.496702,0.2218257,-0.3837117,1.384256,0.1594586,0.3086339,1.601969,-0.07638786,-0.5178283,1.496008,0.2101964,-0.3740255,1.31614,0.1439,-0.1481756,1.621038,0.1394145,-0.462122,1.601435,-0.02580152,0.02795071,1.608417,0.05712198,-0.4485646,1.567516,-0.07364308,-0.2199202,1.588582,0.3559607,-0.2034383,1.575947,NA,NA,NotTracked,Closed,
0.9492188,-0.3007813,0.04052734,0.4394531,0.6118164,0.7666016,-2,-1,-2,-1,-1,0,-2,-1,13,5,-20,-23,2,3,0,2,-0.375,-0.375,-0.375,-10.375,-10.375,-10.375,2.730345,2.98716,5.803746,6.168024,4.379994,5.763097,-0.0284907,-0.5043834,1.494649,0.1924924,-0.290102,1.342985,0.1600193,0.3084124,1.602233,-0.07382293,-0.5128034,1.487758,0.1517542,-0.2927147,1.396375,0.144018,-0.1481788,1.621293,0.1399203,-0.4620547,1.601959,-0.02557505,0.02796002,1.608253,0.05812374,-0.4488596,1.568288,-0.07372038,-0.2197097,1.588136,0.3555214,-0.1925156,1.568694,NA,NA,NotTracked,Closed,
0.9492188,-0.3007813,0.04052734,0.07373047,0.5498047,0.8066406,-2,-1,-2,-1,-1,0,-2,-1,-1,-2,6,-1,-14,-3,-1,-2,-0.375,-0.375,-0.375,-12.4375,-12.4375,-12.4375,2.730345,2.98716,5.803746,6.115651,4.913767,5.907555,-0.02739624,-0.5036801,1.492871,0.1539675,-0.197394,1.339596,0.1608191,0.3080385,1.60253,-0.07616329,-0.5061455,1.511286,0.1200446,-0.2350654,1.402818,0.1445123,-0.1479114,1.621508,0.1410378,-0.4613819,1.602118,-0.02320328,0.027977,1.607048,0.05921921,-0.4488108,1.568347,-0.0734674,-0.2187095,1.586785,0.4032976,-0.1986975,1.525394,NA,NA,NotTracked,Unknown,
0.9492188,-0.3007813,0.04052734,-0.1054688,0.5043945,0.7446289,-2,-1,-2,-1,-1,0,-2,-1,-23,-7,-2,42,6,0,-1,-8,-0.375,-0.375,-0.375,-13.4375,-13.4375,-13.4375,2.730345,2.98716,5.803746,6.103768,5.292542,6.051785,-0.02570822,-0.5022615,1.491219,0.136757,-0.1057349,1.352166,0.161703,0.3078715,1.602824,-0.06780285,-0.5188109,1.481447,0.08945437,-0.1071937,1.420692,0.1455509,-0.1472851,1.622199,0.1421648,-0.4599802,1.602546,-0.02043466,0.02840777,1.603861,0.06061888,-0.4478167,1.568952,-0.07354089,-0.2178323,1.585435,0.3990206,-0.2035879,1.518316,NA,NA,NotTracked,Unknown,
0.9492188,-0.3007813,0.04052734,-0.2441406,0.4697266,0.7089844,-2,-1,-2,-1,-1,0,-2,-1,17,22,11,-1,-1,0,2,1,-0.375,-0.375,-0.375,-20.0625,-20.0625,-20.0625,2.730345,2.98716,5.803746,6.126463,5.603768,6.232531,-0.02510289,-0.5027093,1.491324,0.1131934,-0.03754507,1.376183,0.1629986,0.3078225,1.603374,-0.07091606,-0.5224687,1.48986,0.06598801,-0.006750488,1.433118,0.1462595,-0.1469191,1.62257,0.1432536,-0.4591874,1.60265,-0.01958891,0.0283539,1.601996,0.06194568,-0.447243,1.569577,-0.07353065,-0.2178223,1.584743,0.3362454,-0.1819538,1.491994,NA,NA,NotTracked,Unknown,
0.9492188,-0.3007813,0.04052734,-0.4042969,0.5004883,0.5922852,-2,-1,-2,-1,-1,0,-2,-1,-9,3,-1,-6,-4,-6,-2,-3,-0.375,-0.375,-0.375,-28.8125,-28.8125,-28.8125,2.730345,2.98716,5.803746,6.209802,5.886972,6.513341,-0.02509287,-0.5021698,1.49013,0.1008376,-0.0008403032,1.405448,0.1644978,0.307606,1.603767,-0.06894638,-0.5202645,1.483843,0.06165253,-0.01324123,1.474125,0.147044,-0.1470428,1.622701,0.1442724,-0.4594953,1.602422,-0.01612956,0.0284086,1.596869,0.06284976,-0.4477183,1.569715,-0.07331847,-0.2174777,1.583544,0.3285456,-0.1819138,1.483003,NA,NA,NotTracked,Unknown,
0.9492188,-0.3007813,0.04052734,-0.4614258,0.5419922,0.5947266,-2,-1,-2,-1,-1,0,-2,-1,-32,-14,-18,-22,-3,-2,-1,-3,-0.375,-0.375,-0.375,-21.625,-21.625,-21.625,2.730345,2.98716,5.803746,6.294724,5.990762,6.738832,-0.02499442,-0.5024491,1.489527,0.09038907,0.007337856,1.450469,0.1665776,0.3069566,1.603594,-0.07302729,-0.5229431,1.499333,0.06295802,-0.02811415,1.494934,0.1478806,-0.1472762,1.622788,0.1455301,-0.4601496,1.602028,-0.01044429,0.0287884,1.590181,0.06386596,-0.4483364,1.569346,-0.0730795,-0.2172782,1.582522,0.3212463,-0.1778713,1.475092,NA,NA,NotTracked,Unknown,
0.9492188,-0.3007813,0.04052734,-0.4814453,0.625,0.5649414,-2,-1,-2,-1,-1,0,-2,-1,-5,20,-3,-17,-8,-9,-3,-1,-0.375,-0.375,-0.375,-34.75,-34.75,-34.75,2.730345,2.98716,5.803746,6.373449,6.029929,6.950815,-0.0257557,-0.5022946,1.490122,0.07701817,0.00697763,1.475535,0.167861,0.3067308,1.603342,-0.07092012,-0.5178996,1.485441,0.03763934,-0.014925,1.506781,0.1484529,-0.1474537,1.622708,0.1460949,-0.4606143,1.601787,-0.007867168,0.02858542,1.586657,0.06427544,-0.4488619,1.569038,-0.07322726,-0.2163512,1.581967,0.3127328,-0.1752962,1.467614,NA,NA,NotTracked,Unknown,
0.9492188,-0.3007813,0.04052734,-0.5253906,0.6713867,0.480957,-2,-1,-2,-1,-1,0,-2,-1,6,8,-2,14,44,31,10,8,-0.375,-0.375,-0.375,-29.6875,-29.6875,-29.6875,2.730345,2.98716,5.803746,6.460405,6.052804,7.20779,-0.02582565,-0.5025508,1.491132,0.0766235,0.007415385,1.492367,0.168432,0.3066716,1.603159,-0.07052316,-0.5187865,1.486948,0.04643005,-0.06123837,1.497333,0.1487337,-0.1474477,1.622649,0.1462982,-0.4607497,1.601583,-0.006341928,0.0293006,1.584972,0.064449,-0.4490165,1.56847,-0.07328852,-0.2156413,1.581657,0.304342,-0.1680526,1.467239,NA,NA,NotTracked,NotTracked,
0.9492188,-0.3007813,0.04052734,-0.5864258,0.6884766,0.4584961,-2,-1,-2,-1,-1,0,-2,-1,4,9,1,-12,2,5,3,-1,-0.375,-0.375,-0.375,-11.5625,-11.5625,-11.5625,2.730345,2.98716,5.803746,6.520836,6.084255,7.347298,-0.026297,-0.5025073,1.491359,0.0773354,0.006248667,1.506367,0.1684916,0.3066437,1.60303,-0.07438855,-0.5336437,1.499375,0.04769467,-0.05352327,1.497189,0.1487703,-0.1474019,1.62257,0.1462633,-0.4606384,1.601412,-0.006319608,0.02932113,1.585273,0.06443176,-0.4490024,1.568327,-0.07326914,-0.2155163,1.581608,0.2996432,-0.1643829,1.465824,NA,NA,NotTracked,NotTracked,
0.9492188,-0.3007813,0.04052734,-0.753418,0.7480469,0.269043,-2,-1,-2,-1,-1,0,-2,-1,-5,-6,-1,-16,-28,9,-3,-2,-0.375,-0.375,-0.375,-31.375,-31.375,-31.375,2.730345,2.98716,5.803746,6.585888,6.103984,7.455337,-0.02700142,-0.5030148,1.492382,0.07687856,0.008592288,1.509948,0.1683196,0.3064868,1.602917,-0.07508269,-0.5259655,1.497726,0.04971665,-0.04689637,1.497805,0.1487658,-0.1474122,1.622542,0.1460693,-0.4605465,1.601274,-0.006486685,0.02916577,1.586028,0.06425111,-0.4490004,1.568366,-0.0733353,-0.2155873,1.581702,0.2969354,-0.1616671,1.464446,NA,NA,NotTracked,NotTracked,
0.9492188,-0.3007813,0.04052734,-0.6298828,0.5795898,0.5048828,-2,-1,-2,-1,-1,0,-2,-1,3,-3,-7,0,1,-7,-4,-3,-0.375,-0.375,-0.375,-10.75,-10.75,-10.75,2.730345,2.98716,5.803746,6.57981,6.089942,7.419253,-0.02741533,-0.5032594,1.49225,0.07553687,0.00957097,1.509733,0.1678049,0.3063608,1.602676,-0.0733232,-0.5218325,1.487185,0.04837264,-0.04444858,1.496911,0.1486699,-0.147431,1.622511,0.1457843,-0.4605098,1.601107,-0.006724292,0.0290239,1.586587,0.06398942,-0.4490592,1.568455,-0.0734311,-0.2156751,1.581838,0.2940411,-0.1598153,1.460821,NA,NA,NotTracked,NotTracked,
0.9492188,-0.3007813,0.04052734,-0.6806641,0.6274414,0.3964844,-2,-1,-2,-1,-1,0,-2,-1,2,-4,1,-3,-1,26,4,0,-0.375,-0.375,-0.375,0.0625,0.0625,0.0625,2.730345,2.98716,5.803746,6.594767,6.093822,7.446006,-0.02770539,-0.5029469,1.493102,0.0747736,0.01073164,1.509253,0.1673168,0.3062914,1.602399,-0.07363117,-0.521274,1.49255,0.0480547,-0.04566041,1.49725,0.1484979,-0.1474372,1.622414,0.1453789,-0.4604307,1.600897,-0.006637551,0.02910292,1.587231,0.06359564,-0.449016,1.568467,-0.07351463,-0.2156268,1.581936,0.2927243,-0.1578098,1.456535,NA,NA,NotTracked,NotTracked,
0.9492188,-0.3007813,0.04052734,-0.6484375,0.6289063,0.4619141,-2,-1,-2,-1,-1,0,-2,-1,-5,-7,-6,6,2,2,-1,-4,-0.375,-0.375,-0.375,-3.1875,-3.1875,-3.1875,2.730345,2.98716,5.803746,6.585224,6.08454,7.438615,-0.02754272,-0.5028732,1.493878,0.07513027,0.01215894,1.509766,0.1668684,0.3062747,1.602312,-0.07384906,-0.520188,1.493075,0.05062087,-0.04103681,1.496874,0.1482588,-0.147294,1.622333,0.1449344,-0.4600956,1.600837,-0.006516954,0.02915769,1.587801,0.06310929,-0.448718,1.56875,-0.07371759,-0.2152663,1.582102,0.2912431,-0.1557773,1.453556,NA,NA,NotTracked,NotTracked,
0.9492188,-0.3007813,0.04052734,-0.6459961,0.6611328,0.456543,-2,-1,-2,-1,-1,0,-2,-1,0,-1,-2,-2,-12,-5,-1,-1,-0.375,-0.375,-0.375,0.5,0.5,0.5,2.730345,2.98716,5.803746,6.581728,6.089248,7.434822,-0.0281095,-0.5032141,1.492564,0.0742238,0.01255498,1.509354,0.1664359,0.3063482,1.602279,-0.07521756,-0.5171611,1.49062,0.04910955,-0.04245051,1.497052,0.1481812,-0.1472494,1.622324,0.1447375,-0.4599617,1.600857,-0.006241432,0.02914462,1.588575,0.06290485,-0.4485757,1.568859,-0.07387923,-0.2154477,1.582214,0.2903497,-0.1548291,1.452079,NA,NA,NotTracked,NotTracked,
0.9492188,-0.3007813,0.04052734,-0.6367188,0.6650391,0.4511719,-2,-1,-2,-1,-1,0,-2,-1,-2,-3,-3,-4,-11,-2,-1,1,-0.375,-0.375,-0.375,1.4375,1.4375,1.4375,2.730345,2.98716,5.803746,6.580396,6.087588,7.433228,-0.02756545,-0.5035124,1.493126,0.07342203,0.01277499,1.509739,0.1658849,0.3060377,1.602163,-0.07361388,-0.5251112,1.487,0.04898698,-0.0427233,1.496952,0.1480188,-0.1472638,1.622329,0.1444983,-0.4598871,1.600832,-0.006330964,0.02905628,1.588832,0.06267621,-0.4485193,1.568886,-0.07399533,-0.215435,1.582288,0.2899771,-0.1541933,1.45119,NA,NA,NotTracked,NotTracked,
0.9492188,-0.3007813,0.04052734,-0.637207,0.6679688,0.4458008,-2,-1,-2,-1,-1,0,-2,-1,-7,3,2,-3,-7,1,-3,-2,-0.375,-0.375,-0.375,4.75,4.75,4.75,2.730345,2.98716,5.803746,6.584379,6.087245,7.43095,-0.02822655,-0.5033933,1.492556,0.07343698,0.01349908,1.50912,0.1655844,0.3059689,1.602143,-0.07510252,-0.52077,1.48923,0.04932105,-0.04203176,1.496409,0.1479414,-0.1472434,1.622319,0.144412,-0.4598204,1.600783,-0.006255568,0.02909543,1.589475,0.06259438,-0.448473,1.568872,-0.07424214,-0.2152802,1.582425,0.2892146,-0.1537427,1.450475,NA,NA,NotTracked,NotTracked,
0.9492188,-0.3007813,0.04052734,-0.6547852,0.6474609,0.4648438,-2,-1,-2,-1,-1,0,-2,-1,0,4,3,5,22,-11,2,-1,-0.375,-0.375,-0.375,5.375,5.375,5.375,2.730345,2.98716,5.803746,6.589508,6.088799,7.429576,-0.02858169,-0.5037017,1.493522,0.07385282,0.01429858,1.509224,0.1653545,0.3060164,1.602144,-0.07481815,-0.5157254,1.494657,0.04956371,-0.04260455,1.496638,0.1478025,-0.1471937,1.622311,0.144206,-0.4597201,1.600768,-0.006326046,0.02913158,1.589697,0.06235345,-0.4483738,1.568976,-0.07448528,-0.2151254,1.582512,0.288716,-0.1532902,1.449866,NA,NA,NotTracked,NotTracked,
0.9492188,-0.3007813,0.04052734,-0.6225586,0.6455078,0.4658203,-2,-1,-2,-1,-1,0,-2,-1,-2,-1,-3,-3,22,0,1,3,-0.375,-0.375,-0.375,-1.625,-1.625,-1.625,2.730345,2.98716,5.803746,6.587184,6.086332,7.4323,-0.02836094,-0.5033646,1.493371,0.07344967,0.01391612,1.510171,0.1652154,0.3060266,1.602113,-0.07443964,-0.5185577,1.489283,0.0491595,-0.0430394,1.496586,0.1476719,-0.1471258,1.622326,0.1439634,-0.4595652,1.600776,-0.006156165,0.02934804,1.590107,0.06212128,-0.4482401,1.569022,-0.07471553,-0.2153208,1.582591,0.2885551,-0.1530974,1.449631,NA,NA,NotTracked,NotTracked,
0.9492188,-0.3007813,0.04052734,-0.6787109,0.6655273,0.4277344,-2,-1,-2,-1,-1,0,-2,-1,-12,-6,-6,-5,-3,3,-1,-1,-0.375,-0.375,-0.375,4.0625,4.0625,4.0625,2.730345,2.98716,5.803746,6.584249,6.088239,7.429116,-0.02849259,-0.5033936,1.492604,0.0736485,0.01425302,1.509696,0.1651489,0.3059766,1.602064,-0.07783774,-0.5062085,1.506833,0.0492714,-0.04330332,1.496611,0.1475745,-0.1470778,1.622331,0.1438421,-0.459415,1.60076,-0.006297488,0.0293624,1.590302,0.06200713,-0.4481042,1.569017,-0.07490291,-0.2156268,1.582561,0.2884209,-0.1530204,1.449505,NA,NA,NotTracked,NotTracked,
0.9492188,-0.3007813,0.04052734,-0.6733398,0.6665039,0.4335938,-2,-1,-2,-1,-1,0,-2,-1,-2,5,8,6,-1,1,1,2,-0.375,-0.375,-0.375,8.125,8.125,8.125,2.730345,2.98716,5.803746,6.591811,6.085645,7.423773,-0.02828954,-0.5034955,1.493272,0.07340301,0.01441183,1.509651,0.1651477,0.3059523,1.602082,-0.07299892,-0.5230781,1.486742,0.0491225,-0.04222868,1.497435,0.1475455,-0.1470807,1.622328,0.143815,-0.4594003,1.600743,-0.006429794,0.0293201,1.590363,0.0619804,-0.4481025,1.569013,-0.0750187,-0.2156193,1.582566,0.2882774,-0.1529235,1.449361,NA,NA,NotTracked,NotTracked,
0.9492188,-0.3007813,0.04052734,-0.6450195,0.6503906,0.4204102,-2,-1,-2,-1,-1,0,-2,-1,-4,2,1,-7,-13,-5,-3,-2,-0.375,-0.375,-0.375,7.875,7.875,7.875,2.730345,2.98716,5.803746,6.594956,6.081872,7.405989,-0.0284358,-0.5035294,1.493644,0.07353583,0.01603945,1.507376,0.1651662,0.3058218,1.602109,-0.07364976,-0.5183973,1.489963,0.04954408,-0.04243373,1.497608,0.1475229,-0.1470928,1.622369,0.1437981,-0.4594111,1.600767,-0.006366344,0.02941316,1.590419,0.06194546,-0.4481362,1.569006,-0.07515265,-0.2155779,1.582622,0.2881912,-0.1527347,1.449311,NA,NA,NotTracked,NotTracked,
0.9492188,-0.3007813,0.04052734,-0.6508789,0.6386719,0.4228516,-2,-1,-2,-1,-1,0,-2,-1,4,2,1,4,0,5,4,3,-0.375,-0.375,-0.375,6.25,6.25,6.25,2.730345,2.98716,5.803746,6.576551,6.079742,7.358615,-0.02810472,-0.5029556,1.492979,0.07346623,0.018659,1.500898,0.1652434,0.305769,1.602138,-0.07487009,-0.5169439,1.49355,0.05191726,-0.03679053,1.497892,0.1475298,-0.1470833,1.6224,0.1437983,-0.4594061,1.600794,-0.005882473,0.02988239,1.589841,0.06194564,-0.4481369,1.568999,-0.07523435,-0.2156742,1.582608,0.2881883,-0.1526117,1.449244,NA,NA,NotTracked,NotTracked,
0.9492188,-0.3007813,0.04052734,-0.6567383,0.6835938,0.434082,-2,-1,-2,-1,-1,0,-2,-1,-5,-2,-1,3,-1,-3,-4,-2,-0.375,-0.375,-0.375,11.375,11.375,11.375,2.730345,2.98716,5.803746,6.543415,6.073541,7.280255,-0.02741461,-0.5027257,1.491607,0.0733405,0.02011322,1.489697,0.1653743,0.3057939,1.602203,-0.07412569,-0.5167378,1.48978,0.05197461,-0.03661808,1.49795,0.1475221,-0.1470472,1.622446,0.143824,-0.4593866,1.600797,-0.00555099,0.02997406,1.588258,0.06198515,-0.4481148,1.56886,-0.07533722,-0.2153865,1.582512,0.2881353,-0.1524637,1.449462,NA,NA,NotTracked,NotTracked,
0.9492188,-0.3007813,0.04052734,-0.625,0.6445313,0.4731445,-2,-1,-2,-1,-1,0,-2,-1,-2,2,-4,-4,-2,-4,-2,-1,-0.375,-0.375,-0.375,16.625,16.625,16.625,2.730345,2.98716,5.803746,6.497625,6.066513,7.168472,-0.02722048,-0.502703,1.49179,0.07022153,0.02358167,1.477154,0.165739,0.3056748,1.602525,-0.07425372,-0.5166427,1.492863,0.05438956,-0.03379114,1.499758,0.1476107,-0.1471399,1.622514,0.1441178,-0.4597147,1.600819,-0.005021784,0.02970399,1.586516,0.06224529,-0.4485666,1.568594,-0.07531887,-0.2151688,1.582467,0.2898406,-0.1529211,1.450432,NA,NA,NotTracked,Unknown,
0.9492188,-0.3007813,0.04052734,-0.6064453,0.6357422,0.5048828,-2,-1,-2,-1,-1,0,-2,-1,-1,10,2,-2,0,3,0,-4,-0.375,-0.375,-0.375,13.0625,13.0625,13.0625,2.730345,2.98716,5.803746,6.446044,6.032737,7.020041,-0.0275317,-0.5028445,1.491814,0.05266548,0.05136319,1.465803,0.1660166,0.305682,1.602872,-0.07445131,-0.5145689,1.47869,0.108146,0.071682,1.514111,0.1477078,-0.147206,1.622598,0.1443616,-0.4598754,1.600858,-0.004892413,0.02943087,1.585683,0.06244332,-0.4488058,1.568597,-0.07540205,-0.2150199,1.58248,0.2925889,-0.15598,1.45508,NA,NA,NotTracked,Unknown,
0.9492188,-0.3007813,0.04052734,-0.5063477,0.6118164,0.512207,-2,-1,-2,-1,-1,0,-2,-1,-3,-5,-3,-1,-4,-24,0,1,-0.375,-0.375,-0.375,15.75,15.75,15.75,2.730345,2.98716,5.803746,6.395507,5.967168,6.87189,-0.02778717,-0.5026204,1.492961,0.05136762,0.04619241,1.440977,0.1661917,0.3057498,1.603114,-0.0747037,-0.5196128,1.490945,0.1094275,0.06553151,1.517393,0.1478443,-0.1473037,1.622715,0.1446022,-0.4600447,1.600891,-0.005580413,0.02899632,1.58546,0.06269974,-0.4491248,1.568663,-0.07541962,-0.2151726,1.582488,0.2947095,-0.1563367,1.455851,NA,NA,NotTracked,Unknown,
0.9492188,-0.3007813,0.04052734,-0.4511719,0.5883789,0.5498047,-2,-1,-2,-1,-1,0,-2,-1,5,8,1,0,0,2,-3,-1,-0.375,-0.375,-0.375,8.5625,8.5625,8.5625,2.730345,2.98716,5.803746,6.35113,5.890871,6.766659,-0.0268067,-0.502317,1.491967,0.05063508,0.03406107,1.412597,0.166379,0.3058078,1.603391,-0.07280114,-0.5168784,1.488252,0.1084036,0.05089285,1.5114,0.1479067,-0.1472552,1.622842,0.1446611,-0.4599793,1.600967,-0.008485988,0.02899571,1.587397,0.06280898,-0.4490941,1.568903,-0.07530882,-0.2149897,1.582457,0.2991587,-0.1578888,1.458508,NA,NA,NotTracked,Unknown,
0.9492188,-0.3007813,0.04052734,-0.4780273,0.6293945,0.6308594,-2,-1,-2,-1,-1,0,-2,-1,-3,-6,-1,-2,3,-1,0,0,-0.375,-0.375,-0.375,3.625,3.625,3.625,2.730345,2.98716,5.803746,6.313147,5.787673,6.677217,-0.02749942,-0.5025787,1.492945,0.06666481,-0.01191821,1.403363,0.166228,0.3059338,1.603733,-0.07521528,-0.5207166,1.497156,0.04622325,-0.06292371,1.496889,0.1479001,-0.1470429,1.623043,0.1446577,-0.4594265,1.601124,-0.01322298,0.02945445,1.591338,0.06291549,-0.4484005,1.56971,-0.075169,-0.2150487,1.582549,0.3043435,-0.1604893,1.459986,NA,NA,NotTracked,Unknown,
0.9492188,-0.3007813,0.04052734,-0.3847656,0.6484375,0.6625977,-2,-1,-2,-1,-1,0,-2,-1,0,-4,-4,0,0,-6,0,-1,-0.375,-0.375,-0.375,5.625,5.625,5.625,2.730345,2.98716,5.803746,6.271258,5.616479,6.579762,-0.02697387,-0.5030063,1.4932,0.07267534,-0.0406769,1.379064,0.1659721,0.3061629,1.604753,-0.07366508,-0.5200564,1.489686,0.06442557,-0.05957621,1.466111,0.1478383,-0.1467028,1.623504,0.1447411,-0.4585401,1.601614,-0.0204765,0.03095408,1.599905,0.06329484,-0.447461,1.570834,-0.0751459,-0.2152736,1.582789,0.3080503,-0.1623722,1.461781,NA,NA,NotTracked,Unknown,
0.9492188,-0.3007813,0.04052734,-0.1948242,0.5917969,0.6665039,-2,-1,-2,-1,-1,0,-2,-1,0,-5,-5,-10,0,2,-2,0,-0.375,-0.375,-0.375,-5.1875,-5.1875,-5.1875,2.730345,2.98716,5.803746,6.242497,5.444766,6.530124,-0.02782749,-0.5029004,1.493794,0.07668868,-0.08272251,1.372488,0.1657108,0.3062884,1.605125,-0.07737499,-0.5198435,1.507875,0.04640909,-0.08965804,1.445,0.1476222,-0.1464166,1.623707,0.1446441,-0.4577154,1.601909,-0.02152864,0.03098221,1.60223,0.06341173,-0.4465692,1.571419,-0.07511426,-0.2154839,1.582923,0.3183173,-0.169317,1.466704,NA,NA,NotTracked,Unknown,
0.9492188,-0.3007813,0.04052734,-0.1132813,0.6005859,0.7080078,-2,-1,-2,-1,-1,0,-2,-1,1,2,-3,-9,-3,-1,0,0,-0.375,-0.375,-0.375,18.625,18.625,18.625,2.730345,2.98716,5.803746,6.255114,5.221082,6.482358,-0.0281755,-0.5031899,1.494155,0.09020542,-0.1391277,1.373447,0.1653603,0.3064097,1.605507,-0.07417246,-0.5143801,1.489858,0.09531876,-0.1890309,1.450769,0.1473236,-0.1461468,1.623885,0.1443145,-0.4571482,1.602046,-0.02201193,0.03038761,1.603398,0.06322037,-0.4460386,1.571497,-0.07489093,-0.2155491,1.58326,0.3314981,-0.1767657,1.479265,NA,NA,NotTracked,Unknown,
0.9492188,-0.3007813,0.04052734,0.05615234,0.7163086,0.7285156,-2,-1,-2,-1,-1,0,-2,-1,1,3,-3,-3,-1,-11,-1,1,-0.375,-0.375,-0.375,-21.625,-21.625,-21.625,2.730345,2.98716,5.803746,6.252288,4.887517,6.426289,-0.02952788,-0.5022978,1.494123,0.10328,-0.2021437,1.380883,0.164923,0.306789,1.605956,-0.0755471,-0.5145738,1.494882,0.1169402,-0.2600292,1.44828,0.1471155,-0.1457064,1.624076,0.144027,-0.456683,1.602186,-0.02237302,0.03031782,1.604374,0.06299727,-0.4456144,1.571553,-0.07492942,-0.2153848,1.583504,0.392903,-0.1995706,1.503326,NA,NA,NotTracked,Unknown,
0.9492188,-0.3007813,0.04052734,0.1582031,0.6040039,0.7402344,-2,-1,-2,-1,-1,0,-2,-1,2,5,-6,-4,-2,-10,1,0,-0.375,-0.375,-0.375,-2.8125,-2.8125,-2.8125,2.730345,2.98716,5.803746,6.230028,4.619676,6.368387,-0.02871806,-0.502118,1.494133,0.1318472,-0.2668614,1.405772,0.1642816,0.3070541,1.606407,-0.07423739,-0.5200377,1.491499,0.08710299,-0.329254,1.4377,0.1469452,-0.1456549,1.624068,0.1439488,-0.4567993,1.602153,-0.02275724,0.03033632,1.60519,0.0628515,-0.4457932,1.571142,-0.07502251,-0.2153,1.583696,0.4000042,-0.1965058,1.511352,NA,NA,NotTracked,Unknown,
0.9492188,-0.3007813,0.04052734,0.2290039,0.7080078,0.7163086,-2,-1,-2,-1,-1,0,-2,-1,-5,-8,-5,-4,-2,-7,-2,0,-0.375,-0.375,-0.375,-2.5,-2.5,-2.5,2.730345,2.98716,5.803746,6.246574,4.437574,6.320818,-0.02929803,-0.5025173,1.494091,0.1414158,-0.3378739,1.41288,0.1635785,0.3072009,1.606723,-0.07491359,-0.5154557,1.492896,0.112966,-0.298493,1.46168,0.146763,-0.1457744,1.624115,0.143688,-0.4574817,1.602363,-0.02328141,0.03011461,1.605716,0.06270607,-0.4462841,1.571042,-0.07519032,-0.215423,1.58384,0.402422,-0.1920382,1.519368,NA,NA,NotTracked,Unknown,
