ALX,ALY,ALZ,ARX,ARY,ARZ,EMG0L,EMG1L,EMG2L,EMG3L,EMG4L,EMG5L,EMG6L,EMG7L,EMG0R,EMG1R,EMG2R,EMG3R,EMG4R,EMG5R,EMG6R,EMG7R,GLX,GLY,GLZ,GRX,GRY,GRZ,ORL,OPL,OYL,ORR,OPR,OYR,LHNX,LHNY,LHNZ,RHNX,RHNY,RHNZ,HX,HY,HZ,LTX,LTY,LTZ,RTX,RTY,RTZ,SpineMidX,SpineMidY,SpineMidZ,SpineBaseX,SpineBaseY,SpineBaseZ,ShoulderLeftX,ShoulderLeftY,ShoulderLeftZ,ShoulderRightX,ShoulderRightY,ShoulderRightZ,ElbowLeftX,ElbowLeftY,ElbowLeftZ,ElbowRightX,ElbowRightY,ElbowRightZ,Myo_Pose_left,Myo_Pose_Right,Kinect_pose_left,Kinect_pose_right
0.1625977,-0.9990234,-0.01220703,-0.8710938,0.3647461,0.3525391,3,0,-1,0,3,-8,-53,-3,-1,1,1,-3,-1,0,-1,1,-1.6875,-1.6875,-1.6875,-0.6875,-0.6875,-0.6875,2.483423,4.762312,5.453804,6.191366,6.675242,1.886543,0.1791178,-0.2618483,1.598793,0.2495191,0.1061441,1.538196,0.1465147,0.3044456,1.768615,0.1904178,-0.2106819,1.558961,0.2197511,0.09464399,1.559285,0.152451,-0.1452072,1.765876,0.1438966,-0.4571699,1.729015,-0.01241872,0.03040366,1.752448,0.05938363,-0.4505786,1.705366,-0.05360999,-0.1705572,1.649329,0.3013856,-0.1654465,1.580758,NA,NA,Unknown,Unknown,
0.1337891,-1.014648,-0.01367188,-0.9223633,0.3364258,0.3769531,-8,-3,-2,-1,7,7,76,12,2,-1,-4,-10,-4,-1,-3,-5,1.875,1.875,1.875,-5.375,-5.375,-5.375,2.485426,4.763415,5.45586,6.197736,6.67032,1.903423,0.1806281,-0.2603007,1.598152,0.2473062,0.1107036,1.538397,0.1465236,0.3044975,1.768966,0.1893031,-0.2099825,1.559114,0.2153818,0.1047836,1.559625,0.1524601,-0.1452551,1.765935,0.1438518,-0.4573586,1.7291,-0.01066334,0.03059367,1.750945,0.05933904,-0.450774,1.705512,-0.05364481,-0.1706132,1.649225,0.3011802,-0.1669999,1.579692,NA,NA,Unknown,Lasso,
0.1552734,-0.996582,-0.0078125,-0.8774414,0.375,0.3676758,2,0,0,4,4,-22,-38,-6,2,-3,10,8,8,1,1,2,-1.6875,-1.6875,-1.6875,-0.125,-0.125,-0.125,2.483731,4.764499,5.45708,6.219116,6.664431,1.934429,0.200561,-0.2456951,1.607638,0.2443558,0.1110738,1.537749,0.1465199,0.3044865,1.769073,0.2453261,-0.1643854,1.567933,0.2155358,0.102689,1.565029,0.1524173,-0.1453169,1.765945,0.1436992,-0.4577052,1.729026,-0.008652031,0.0309152,1.749029,0.05915265,-0.4510889,1.705599,-0.05374506,-0.1706987,1.649309,0.3009009,-0.1680504,1.57805,NA,NA,Unknown,Unknown,
0.1484375,-1.00293,-0.01855469,-0.8920898,0.3647461,0.3618164,18,-2,-3,-6,-9,9,41,25,-1,-2,-1,-2,-3,0,-2,0,1.25,1.25,1.25,-3.625,-3.625,-3.625,2.483705,4.763627,5.462667,6.228286,6.665543,1.951944,0.1826563,-0.2561395,1.596044,0.2434693,0.1110316,1.537371,0.1464729,0.3044602,1.769115,0.1850411,-0.2044056,1.5607,0.2133169,0.09993637,1.561468,0.1523507,-0.1453356,1.765949,0.1435908,-0.4578726,1.728997,-0.009158861,0.03100358,1.749238,0.0589514,-0.4512833,1.705802,-0.05371788,-0.1706415,1.649313,0.3005682,-0.1668034,1.578061,NA,NA,Unknown,Lasso,
0.1401367,-1.010254,-0.01318359,-0.8916016,0.3491211,0.3676758,-5,-2,0,2,-5,-1,-13,-4,1,6,18,15,2,0,1,1,0.5625,0.5625,0.5625,-1.1875,-1.1875,-1.1875,2.482525,4.763768,5.46443,6.220862,6.67285,1.946034,0.1826525,-0.2554333,1.597137,0.2445193,0.1119637,1.538871,0.1464434,0.3044653,1.769202,0.185642,-0.2045083,1.560845,0.2109753,0.1205822,1.579667,0.1524027,-0.1453959,1.766089,0.1438282,-0.4581468,1.729132,-0.008032151,0.03117389,1.748168,0.05930985,-0.4516487,1.706363,-0.05389991,-0.170615,1.649266,0.3001186,-0.1675754,1.577422,NA,NA,Unknown,Lasso,
0.1401367,-0.9990234,-0.01123047,-0.8891602,0.3334961,0.3793945,-1,-2,-3,-2,4,4,15,2,2,0,0,-3,-3,0,0,-1,0.0625,0.0625,0.0625,-1.5,-1.5,-1.5,2.482766,4.763911,5.463425,6.214314,6.6744,1.940603,0.1757442,-0.2782494,1.601693,0.244509,0.1098868,1.536633,0.1463832,0.3044987,1.76918,0.1994536,-0.2161683,1.552563,0.2133113,0.09571055,1.553214,0.1523949,-0.1454077,1.766084,0.1437408,-0.4582883,1.729124,-0.007220621,0.03120764,1.747426,0.0592305,-0.4517447,1.706383,-0.05392011,-0.1706943,1.649244,0.3000587,-0.1677236,1.577218,NA,NA,Unknown,Lasso,
0.1308594,-1.007813,-0.01074219,-0.8735352,0.3188477,0.4047852,1,0,-1,5,18,19,17,5,-1,-1,-1,3,12,3,0,-1,-0.1875,-0.1875,-0.1875,-9.375,-9.375,-9.375,2.484341,4.764388,5.459266,6.219481,6.66628,1.960209,0.1812022,-0.2479953,1.59234,0.2398413,0.112061,1.535973,0.1463749,0.304455,1.769341,0.1904724,-0.2092683,1.557051,0.2089059,0.09864777,1.552117,0.1523862,-0.1454064,1.766083,0.1436612,-0.4584318,1.729133,-0.006679623,0.03133082,1.746919,0.05909538,-0.4519241,1.706617,-0.05393117,-0.1706685,1.649276,0.2996813,-0.1672192,1.577662,NA,NA,Unknown,Unknown,
0.1347656,-1.001953,-0.01074219,-0.8500977,0.2861328,0.3955078,0,1,-3,-2,0,17,-14,3,-1,-3,-2,-1,-4,-1,6,2,-0.125,-0.125,-0.125,-36.3125,-36.3125,-36.3125,2.485881,4.766741,5.449371,6.290071,6.628232,2.115044,0.1937428,-0.2372758,1.592212,0.2227029,0.1110584,1.533579,0.1464334,0.3045552,1.7693,0.2608213,-0.2289359,1.5545,0.1952529,0.09492858,1.550105,0.1522951,-0.1456083,1.765978,0.1440356,-0.4594092,1.729419,-0.006363986,0.03133377,1.746491,0.05953963,-0.4529115,1.707369,-0.05405048,-0.1706837,1.649137,0.296054,-0.1681038,1.578649,NA,NA,Unknown,Lasso,
0.1381836,-1.007324,-0.004394531,-0.8432617,0.3242188,0.3686523,8,-2,-3,-4,-14,-5,51,7,0,0,-2,-7,-19,-15,-19,0,-1.375,-1.375,-1.375,-45.1875,-45.1875,-45.1875,2.48786,4.767356,5.438092,6.409904,6.549919,2.346229,0.1909672,-0.2454095,1.595575,0.1881999,0.07872398,1.532015,0.1467476,0.3046919,1.7694,0.1783821,-0.1994783,1.562778,0.1681599,0.05869976,1.5645,0.1518864,-0.1474985,1.765393,0.143279,-0.4617059,1.729569,-0.006149699,0.031472,1.746243,0.05905444,-0.454259,1.707319,-0.05419767,-0.1705332,1.649062,0.294567,-0.1708735,1.582282,NA,NA,Unknown,Lasso,
0.1699219,-0.9926758,-0.006347656,-0.7275391,0.4692383,0.4013672,6,-3,-3,3,13,20,70,10,-1,-2,4,3,-3,-6,-2,-2,-2.125,-2.125,-2.125,-37.625,-37.625,-37.625,2.48721,4.766821,5.427441,6.565685,6.385723,2.635668,0.1888798,-0.2476044,1.595049,0.1388325,0.04876253,1.536459,0.1487281,0.3045371,1.769646,0.1860363,-0.203473,1.560777,0.1192582,0.04159074,1.594462,0.1516671,-0.1484754,1.765143,0.1434653,-0.4616949,1.729617,-0.005335653,0.03200516,1.745613,0.06005649,-0.4539918,1.704659,-0.05356883,-0.1700081,1.648541,0.2925951,-0.1729117,1.586191,NA,NA,Unknown,Closed,
0.1850586,-0.9956055,-0.01123047,-0.6884766,0.6923828,0.3554688,0,1,1,1,16,30,-14,-7,-3,1,-2,2,4,-9,-1,-3,1,1,1,-26.0625,-26.0625,-26.0625,2.487149,4.76335,5.424304,6.701728,6.210595,2.878744,0.1899152,-0.2491253,1.594908,0.1015549,0.008581811,1.546294,0.1512092,0.303706,1.769698,0.1860928,-0.2029687,1.561129,0.1035427,-0.01317295,1.60825,0.1535776,-0.1490566,1.765251,0.1451718,-0.4616576,1.729803,-0.003853892,0.03175564,1.743649,0.06307667,-0.4537762,1.700703,-0.052406,-0.1704096,1.647121,0.2893725,-0.175755,1.592486,NA,NA,Unknown,Unknown,
0.1523438,-1.003906,-0.004882813,-0.5883789,0.7670898,0.3217773,4,0,3,9,32,12,-23,-9,-1,-4,-26,-7,18,5,1,1,2.125,2.125,2.125,-34.625,-34.625,-34.625,2.490039,4.765092,5.43991,6.808618,6.001709,3.153818,0.2879581,-0.1441719,1.582817,0.07033463,-0.0291743,1.572213,0.1522861,0.3034926,1.769813,0.2683357,-0.07457936,1.610189,0.09935065,-0.06354517,1.631208,0.1539994,-0.1488694,1.765601,0.1470014,-0.460114,1.730325,-0.003806417,0.03134289,1.741868,0.06508572,-0.4520451,1.700114,-0.05123507,-0.1714201,1.646157,0.2904442,-0.177238,1.595236,NA,NA,NotTracked,Unknown,
0.168457,-0.9985352,-0.006835938,-0.4272461,0.7802734,0.3168945,-10,-4,-4,-5,-2,-2,47,5,3,3,0,-1,-36,-63,-8,2,1.4375,1.4375,1.4375,-7.3125,-7.3125,-7.3125,2.489699,4.768188,5.462569,6.867392,5.835393,3.312326,0.2143835,-0.1237701,1.586242,0.07583728,-0.07063425,1.588379,0.1526563,0.303578,1.769693,0.2009017,-0.0593853,1.627623,0.09018174,-0.04004934,1.63465,0.1544094,-0.1486176,1.765946,0.1478089,-0.45937,1.730676,-0.003876867,0.03116672,1.741204,0.06582315,-0.4514308,1.69999,-0.04684876,-0.1725881,1.645489,0.290752,-0.1775257,1.59564,NA,NA,NotTracked,NotTracked,
0.1665039,-0.9897461,-0.009277344,-0.3530273,0.9658203,0.3769531,5,-1,-1,1,3,3,8,1,4,4,31,40,86,59,4,2,2.625,2.625,2.625,-1.6875,-1.6875,-1.6875,2.490439,4.766463,5.473816,6.920669,5.675409,3.434457,0.2163315,-0.1288201,1.589724,0.02669814,-0.1134349,1.59645,0.1527358,0.3036084,1.769647,0.2052595,-0.06505693,1.628578,0.081703,-0.06755564,1.626143,0.1546655,-0.1484563,1.766101,0.1482985,-0.458878,1.730874,-0.003989199,0.03113495,1.741512,0.06636842,-0.4510637,1.700212,-0.0442071,-0.1738802,1.644225,0.2916804,-0.1776285,1.595521,NA,NA,NotTracked,NotTracked,
0.03369141,-1.053711,-0.04199219,-0.2480469,1.232422,0.1533203,4,-4,1,-2,-5,-9,-36,-9,1,-1,0,0,0,35,12,-1,-8.75,-8.75,-8.75,0.75,0.75,0.75,2.508285,4.781671,5.519924,6.982453,5.532718,3.548718,0.2282506,-0.1381657,1.583446,0.01586021,-0.1565406,1.599788,0.1526498,0.3037906,1.769397,0.2165919,-0.07629178,1.622766,0.06025203,-0.1291914,1.626556,0.1547278,-0.1483797,1.766352,0.1483433,-0.4586995,1.730999,-0.00401031,0.03110428,1.742136,0.06648385,-0.4509061,1.700416,-0.04366507,-0.1754148,1.645156,0.290998,-0.1777288,1.59501,NA,NA,NotTracked,NotTracked,
0.1645508,-1.02832,-0.07568359,-0.2539063,0.8701172,0.3173828,-14,-4,2,2,4,-16,-10,1,-10,-11,-10,-15,-30,-9,-8,-8,13,13,13,-8.0625,-8.0625,-8.0625,2.506685,4.782403,5.527559,6.979914,5.551608,3.538329,0.2270085,-0.1353136,1.58191,0.03459336,-0.1080858,1.579305,0.1521688,0.3040478,1.769012,0.2147048,-0.07306462,1.621968,0.0629587,-0.08227536,1.570612,0.1546557,-0.1482353,1.766444,0.1481515,-0.4582726,1.731115,-0.004105759,0.03114147,1.742797,0.06634706,-0.4504866,1.700697,-0.04272727,-0.1770651,1.646167,0.2899944,-0.1775038,1.594314,NA,NA,NotTracked,NotTracked,
0.1401367,-0.9707031,0.01367188,-0.2753906,0.8510742,0.409668,-6,0,2,0,-1,-11,2,-1,1,1,-1,-2,-8,-4,1,1,-7.25,-7.25,-7.25,5.375,5.375,5.375,2.502836,4.784581,5.528493,6.951272,5.539609,3.544904,0.2096104,-0.1312485,1.586795,0.01504697,-0.1551533,1.600044,0.1512518,0.3040618,1.768617,0.2011734,-0.07132215,1.62753,0.06315889,-0.0786405,1.606714,0.1546258,-0.1480974,1.766696,0.148104,-0.4579434,1.731633,-0.004321533,0.03121459,1.743506,0.06640773,-0.4502697,1.701394,-0.04277878,-0.1777191,1.646578,0.2887552,-0.1773184,1.593527,NA,NA,NotTracked,NotTracked,
0.1162109,-1.020508,0.01074219,-0.3457031,0.9116211,0.2963867,4,0,0,1,2,20,21,2,1,2,2,1,19,-1,-1,2,-1.625,-1.625,-1.625,3.3125,3.3125,3.3125,2.502348,4.785614,5.528108,6.96105,5.54774,3.55194,0.2176714,-0.1597845,1.571166,0.01282111,-0.1567352,1.601325,0.1498486,0.3044995,1.76839,0.1917541,-0.09987485,1.61768,0.05299734,-0.1257821,1.620615,0.1544078,-0.1480314,1.767045,0.1476511,-0.4577526,1.732498,-0.004569881,0.03114742,1.744035,0.06607318,-0.4501669,1.702486,-0.04312138,-0.1783989,1.647064,0.2878643,-0.1773596,1.593282,NA,NA,NotTracked,NotTracked,
0.1240234,-1.020508,0.004394531,-0.3164063,0.9204102,0.2885742,-4,-1,-2,4,26,-12,43,10,1,0,-3,-6,22,7,1,2,-0.625,-0.625,-0.625,-1.125,-1.125,-1.125,2.501372,4.789605,5.524356,6.962936,5.544211,3.550692,0.2172755,-0.1459044,1.569506,0.03246754,-0.1085605,1.579847,0.1484432,0.3045853,1.76807,0.1884709,-0.09505979,1.619277,0.05906539,-0.08691156,1.561715,0.1542242,-0.1478969,1.767269,0.1474774,-0.4575782,1.732722,-0.004860464,0.03120797,1.744456,0.06596375,-0.4500617,1.702705,-0.04347803,-0.1789936,1.647271,0.2871117,-0.177433,1.593148,NA,NA,NotTracked,NotTracked,
0.1376953,-0.9941406,0.01367188,-0.3344727,0.9111328,0.3325195,-3,-3,-3,-2,-5,-9,-10,0,0,1,0,16,5,-6,-3,1,0.75,0.75,0.75,0,0,0,2.504091,4.79077,5.51844,6.962299,5.545372,3.544098,0.2237515,-0.1321656,1.585716,0.01293079,-0.1579558,1.599339,0.1469771,0.3044807,1.767648,0.2091273,-0.06846174,1.625313,0.0193007,-0.09624325,1.569182,0.1539731,-0.1478549,1.767598,0.1471936,-0.4575154,1.733343,-0.005143758,0.03112945,1.74469,0.06578467,-0.4500845,1.703156,-0.04361645,-0.1792317,1.647397,0.2871057,-0.1773512,1.592905,NA,NA,NotTracked,NotTracked,
0.1362305,-1.007324,0.003417969,-0.3144531,0.8828125,0.3173828,6,-2,1,-2,-2,34,-2,-5,0,0,2,-3,-19,-14,0,1,0,0,0,2.1875,2.1875,2.1875,2.505672,4.792629,5.514562,6.958418,5.540489,3.538439,0.228711,-0.1387924,1.582406,0.02693929,-0.1095015,1.58258,0.1460483,0.3042569,1.767422,0.2492396,-0.07352276,1.613345,0.06308837,-0.08353107,1.574,0.1537035,-0.1477637,1.767734,0.1468433,-0.4573881,1.733555,-0.005294726,0.03106912,1.744844,0.0655368,-0.4500068,1.703381,-0.04383051,-0.1798203,1.647389,0.2863413,-0.1774736,1.593109,NA,NA,NotTracked,NotTracked,
0.1289063,-1.010254,0,-0.3330078,0.9072266,0.324707,-6,0,-1,-7,-16,-27,-16,2,-3,-1,-2,1,-32,10,-1,-1,-0.125,-0.125,-0.125,0.125,0.125,0.125,2.505152,4.795232,5.514569,6.957368,5.5393,3.53586,0.215704,-0.1357101,1.584084,0.01029962,-0.1580453,1.59881,0.1450953,0.3042738,1.767243,0.2059354,-0.0765742,1.626477,0.01783202,-0.09793204,1.568672,0.1533831,-0.1476085,1.767978,0.1466483,-0.4571215,1.733978,-0.01045135,0.02990647,1.748883,0.06538427,-0.4498259,1.703853,-0.04455049,-0.1802638,1.647517,0.2852762,-0.1751484,1.594219,NA,NA,NotTracked,NotTracked,
0.1337891,-1.005371,0.0078125,-0.3476563,0.902832,0.3305664,-9,0,0,3,10,-10,-9,-9,0,0,0,-1,2,0,1,-1,0.25,0.25,0.25,2.1875,2.1875,2.1875,2.505214,4.79648,5.515525,6.959432,5.539795,3.536067,0.230209,-0.1427623,1.579284,0.01001958,-0.1565979,1.600311,0.144424,0.3042026,1.767124,0.2516175,-0.07496182,1.6105,0.04285309,-0.08498745,1.580864,0.1531603,-0.1475912,1.768083,0.1465748,-0.4569732,1.734013,-0.01357012,0.02906682,1.751218,0.06533726,-0.44977,1.703882,-0.04497788,-0.1804803,1.647712,0.2851568,-0.1731352,1.595186,NA,NA,NotTracked,NotTracked,
0.1303711,-1.012695,0.008300781,-0.3354492,0.8886719,0.3383789,-5,-1,0,3,-6,-29,-58,-10,-2,-1,-2,-4,-7,0,-1,-3,-0.0625,-0.0625,-0.0625,0.9375,0.9375,0.9375,2.50455,4.798781,5.518339,6.960697,5.536377,3.539574,0.2148461,-0.1565098,1.567245,0.009761494,-0.1531056,1.598338,0.1435191,0.3040158,1.767026,0.1905737,-0.1019615,1.614053,0.02227764,-0.09478179,1.570244,0.1529727,-0.1476655,1.768123,0.1463241,-0.457041,1.734069,-0.01204138,0.029471,1.750091,0.06511471,-0.4498752,1.703966,-0.04496238,-0.1808814,1.647695,0.2849701,-0.1743376,1.594545,NA,NA,NotTracked,NotTracked,
0.1337891,-1.012207,-0.0004882813,-0.3286133,0.8901367,0.328125,-1,-4,-3,-4,15,19,56,9,-1,-1,1,-1,-16,-44,0,1,0.125,0.125,0.125,0.875,0.875,0.875,2.504156,4.798985,5.519056,6.96074,5.535853,3.540382,0.1698716,-0.1235972,1.598038,0.01897153,-0.1402563,1.592149,0.1431213,0.3038379,1.766916,0.1703699,-0.05696822,1.632034,0.04926534,-0.08738735,1.565297,0.1528818,-0.1476742,1.768134,0.1462641,-0.4570327,1.734028,-0.01108672,0.02960332,1.749438,0.06508186,-0.449874,1.703976,-0.04502075,-0.1814112,1.647959,0.2846318,-0.1746336,1.594229,NA,NA,NotTracked,NotTracked,
0.1328125,-1.004883,0.0009765625,-0.331543,0.8994141,0.3325195,2,-2,-2,-1,3,5,7,-1,0,-1,-2,0,6,-4,-2,-3,0.0625,0.0625,0.0625,2.6875,2.6875,2.6875,2.504094,4.798681,5.519077,6.963028,5.535112,3.543453,0.230489,-0.1401473,1.5801,0.02634032,-0.1100364,1.582363,0.1428259,0.3039651,1.766915,0.2515168,-0.07419071,1.609233,0.05938205,-0.08188668,1.572857,0.152867,-0.1476678,1.768143,0.1462909,-0.4569803,1.733982,-0.010383,0.0298069,1.748983,0.06511253,-0.4498525,1.703957,-0.04471861,-0.1814314,1.64781,0.2844726,-0.1749058,1.594028,NA,NA,NotTracked,NotTracked,
0.1416016,-1.009277,-0.005371094,-0.3286133,0.890625,0.3276367,-14,-2,-1,-5,-12,-69,71,4,-2,-2,0,-4,-5,-3,-1,-1,-0.9375,-0.9375,-0.9375,1.3125,1.3125,1.3125,2.502933,4.797235,5.516649,6.964443,5.536035,3.54465,0.2237187,-0.1383318,1.581741,0.009556942,-0.153322,1.600109,0.1425475,0.3039886,1.767029,0.2087423,-0.07464818,1.623828,0.0544577,-0.08733638,1.588824,0.1528239,-0.1476768,1.76817,0.14612,-0.4569982,1.733917,-0.00990919,0.02982316,1.748716,0.06497938,-0.4498713,1.703915,-0.04478169,-0.1813406,1.647797,0.2846012,-0.1749618,1.594024,NA,NA,NotTracked,NotTracked,
0.1323242,-1.013184,-0.005859375,-0.3349609,0.8964844,0.3193359,2,-1,0,-2,-14,10,-8,-1,1,0,1,3,7,1,-1,1,-0.4375,-0.4375,-0.4375,2.1875,2.1875,2.1875,2.502372,4.794995,5.513219,6.965131,5.539461,3.541379,0.230132,-0.1398546,1.58034,0.01064795,-0.155803,1.599782,0.1424619,0.304004,1.767023,0.2486708,-0.07783426,1.612364,0.05251177,-0.1298223,1.622636,0.152784,-0.1476768,1.768168,0.1459999,-0.4569975,1.733758,-0.009507324,0.02989306,1.748379,0.06489658,-0.4498821,1.703813,-0.04475517,-0.1813589,1.647723,0.2845447,-0.1752918,1.593832,NA,NA,NotTracked,NotTracked,
0.137207,-1.002441,-0.007324219,-0.3330078,0.9135742,0.3251953,-3,1,1,1,16,21,28,7,0,-3,-4,2,1,0,-1,0,-4.1875,-4.1875,-4.1875,2.6875,2.6875,2.6875,2.496777,4.791228,5.506094,6.968223,5.546908,3.538295,0.216733,-0.1631157,1.569901,0.01133602,-0.1428816,1.601008,0.1424173,0.304004,1.76703,0.1936226,-0.10093,1.616875,0.0617777,-0.0748757,1.619857,0.1528468,-0.1476285,1.76826,0.1460503,-0.4569287,1.733787,-0.009161291,0.03005737,1.748217,0.06495843,-0.4498215,1.703849,-0.04456704,-0.1814227,1.647653,0.2846126,-0.1754576,1.593872,NA,NA,NotTracked,NotTracked,
0.1503906,-0.9941406,-0.004882813,-0.3066406,0.9067383,0.3305664,4,0,-1,-6,-23,4,-14,-7,3,3,4,0,2,1,1,0,-2.9375,-2.9375,-2.9375,5.0625,5.0625,5.0625,2.489686,4.788791,5.500736,6.974987,5.560129,3.536014,0.2205217,-0.1673227,1.570212,0.03096425,-0.1016886,1.57975,0.1424094,0.3040045,1.767068,0.2082046,-0.1014747,1.610158,0.05858275,-0.07874431,1.56263,0.1528665,-0.147645,1.768295,0.1461546,-0.4569273,1.733782,-0.008873428,0.03023953,1.748154,0.06504143,-0.4498278,1.70384,-0.04408962,-0.1814425,1.647454,0.2845134,-0.1755473,1.593898,NA,NA,NotTracked,NotTracked,
0.1337891,-1.010742,-0.005859375,-0.3798828,0.9511719,0.2919922,-1,-2,-1,-4,-7,3,-2,5,0,-3,-13,-10,-2,-1,0,0,0.75,0.75,0.75,2.25,2.25,2.25,2.488994,4.787808,5.499118,6.975153,5.591941,3.528816,0.1436469,-0.09644124,1.612763,0.009789567,-0.1293885,1.604019,0.1425291,0.3040307,1.767324,0.1670257,-0.03924223,1.638854,0.06678073,-0.06111579,1.611,0.1528716,-0.1476405,1.768318,0.1461927,-0.456915,1.733682,-0.008680963,0.03037438,1.748123,0.06501314,-0.4498261,1.703687,-0.04378401,-0.1814471,1.647269,0.2842557,-0.1756417,1.594224,NA,NA,NotTracked,NotTracked,
0.1420898,-1.003906,-0.008300781,-0.4331055,0.9511719,0.2856445,-8,-2,1,0,-3,-71,-61,-15,-3,0,4,0,2,1,1,0,-0.375,-0.375,-0.375,5.625,5.625,5.625,2.486837,4.787957,5.502758,6.971906,5.686469,3.485554,0.1430328,-0.08752412,1.609365,0.02316494,-0.09255426,1.592464,0.1426522,0.3039927,1.767519,0.1663715,-0.03503493,1.63842,0.07271983,-0.05301183,1.558182,0.1528219,-0.1476587,1.768312,0.146025,-0.4569974,1.733475,-0.008607918,0.03033854,1.747805,0.06467631,-0.4499314,1.703211,-0.04404169,-0.1814625,1.64748,0.2839348,-0.1758087,1.59444,NA,NA,NotTracked,NotTracked,
0.1352539,-1.004883,-0.006347656,-0.4804688,0.9257813,0.2587891,-1,-1,-1,-3,-5,-21,42,11,-3,-6,-7,0,2,-1,-3,-1,0.3125,0.3125,0.3125,15.75,15.75,15.75,2.486366,4.789133,5.507228,6.967866,5.796899,3.420005,0.1490961,-0.07691309,1.599533,0.06591317,-0.04954111,1.588439,0.1428974,0.3039433,1.768248,0.1772592,-0.03713618,1.636807,0.0860331,-0.01966072,1.635917,0.1528082,-0.1476378,1.768389,0.1460401,-0.4569672,1.733397,-0.008537701,0.03025604,1.747344,0.06465898,-0.4498723,1.703012,-0.0461952,-0.1795753,1.650714,0.283793,-0.175907,1.594525,NA,NA,NotTracked,NotTracked,
0.1328125,-1.011719,-0.01513672,-0.53125,0.8393555,0.2646484,-1,1,-2,-1,-6,12,-7,-3,-1,-1,8,7,-1,-1,0,0,0.0625,0.0625,0.0625,23.9375,23.9375,23.9375,2.485663,4.792138,5.512114,6.951205,5.938865,3.315691,0.2152426,-0.09710043,1.573838,0.07841343,-0.02256189,1.579916,0.1431458,0.3040707,1.768732,0.2142373,-0.04473934,1.627458,0.05471818,-0.0405116,1.633857,0.1528161,-0.1476066,1.768587,0.1461479,-0.4568881,1.733437,-0.008170036,0.03039248,1.74693,0.06476373,-0.4497522,1.703111,-0.04827791,-0.1758678,1.654048,0.2841203,-0.1763563,1.59515,NA,NA,NotTracked,NotTracked,
0.128418,-1.00293,-0.01367188,-0.5595703,0.8120117,0.2836914,0,-1,1,3,0,9,-33,-5,1,-6,-5,3,-1,1,0,-1,0.0625,0.0625,0.0625,29.875,29.875,29.875,2.484497,4.795954,5.514915,6.943605,5.989199,3.273002,0.2054371,-0.06613551,1.558351,0.03393634,-0.2689744,1.634141,0.143327,0.3041021,1.76959,0.2089388,-0.02558771,1.624375,0.05528545,-0.3422489,1.614441,0.1526565,-0.1477904,1.768829,0.1461503,-0.4572615,1.733533,-0.007297095,0.03029598,1.745808,0.06464937,-0.4500883,1.702913,-0.0510083,-0.1754745,1.655858,0.2840588,-0.1759199,1.595036,NA,NA,Unknown,Unknown,
0.1181641,-1.010742,-0.02050781,-0.6977539,0.5874023,0.3256836,-6,-1,0,-3,-12,-8,-13,-11,6,7,-9,0,1,0,-1,1,1.25,1.25,1.25,42.125,42.125,42.125,2.48559,4.798727,5.511594,6.801836,6.311225,2.855992,0.2555668,-0.08833116,1.558139,0.03461742,-0.269529,1.632901,0.1433389,0.3039655,1.770288,0.2805817,-0.0537148,1.613107,0.05734152,-0.3452139,1.612394,0.1527373,-0.1480593,1.768933,0.1459186,-0.4585909,1.733387,-0.008450808,0.02986688,1.74965,0.06391029,-0.4517753,1.702092,-0.05272615,-0.1747898,1.657082,0.2838887,-0.1729601,1.594018,NA,NA,Unknown,Unknown,
0.1323242,-1.005371,-0.01367188,-0.7929688,0.5361328,0.3198242,0,-1,-3,-2,-5,-2,-9,2,3,3,4,-2,-1,-1,-2,-2,1.0625,1.0625,1.0625,24.25,24.25,24.25,2.487333,4.798371,5.504647,6.697004,6.427653,2.653066,0.1834884,-0.2547949,1.597752,0.03686749,-0.2696744,1.632234,0.142493,0.3049359,1.771207,0.1686588,-0.1994382,1.563636,0.05085184,-0.3421283,1.616326,0.1514786,-0.1499707,1.767364,0.1454353,-0.4594457,1.733262,-0.01210299,0.03017314,1.75443,0.06303474,-0.4529236,1.702784,-0.05437908,-0.1734395,1.658149,0.284484,-0.1701541,1.591504,NA,NA,NotTracked,Unknown,
0.1235352,-1.004395,-0.001464844,-0.7788086,0.4624023,0.3417969,-4,0,1,-2,-4,-9,-7,2,-6,-4,-3,6,3,0,-1,0,-0.1875,-0.1875,-0.1875,29.25,29.25,29.25,2.489785,4.796517,5.490451,6.575831,6.525738,2.441222,0.183047,-0.2541831,1.598022,0.04379902,-0.2681292,1.629255,0.141131,0.3057978,1.772019,0.1712973,-0.2007741,1.563171,0.06590253,-0.3431776,1.610238,0.1476552,-0.1520428,1.766211,0.1436246,-0.4621176,1.733741,-0.01411569,0.03046733,1.756179,0.06003457,-0.4566598,1.70773,-0.05510509,-0.172887,1.658623,0.2886804,-0.1627766,1.587063,NA,NA,NotTracked,NotTracked,
0.1328125,-1.009277,-0.006835938,-1.121582,0.3803711,0.1899414,-6,0,-1,0,2,4,22,-6,-4,0,-18,-8,-2,-1,-1,1,0.5,0.5,0.5,29.375,29.375,29.375,2.49281,4.793622,5.479984,6.466803,6.612681,2.252368,0.1832823,-0.2528915,1.598519,0.04755487,-0.267437,1.627994,0.1387405,0.3059451,1.773357,0.1737217,-0.201615,1.56267,0.06409588,-0.3421949,1.612468,0.1472792,-0.1508146,1.766188,0.1431172,-0.4624771,1.733557,-0.01520281,0.03039122,1.756938,0.05937429,-0.4570767,1.708921,-0.0553548,-0.1728498,1.658707,0.2912916,-0.1604034,1.584565,NA,NA,NotTracked,NotTracked,
0.1362305,-1.009277,-0.01416016,-0.6967773,0.3457031,0.09912109,1,-3,-3,-7,-21,-29,35,9,0,-10,-3,1,2,1,-2,-1,1.25,1.25,1.25,29,29,29,2.495794,4.789634,5.469811,6.3401,6.655994,2.025751,0.183258,-0.254683,1.59839,0.09203214,-0.3650918,1.622386,0.1374428,0.3061384,1.773885,0.1777114,-0.2023144,1.563872,0.1542864,-0.4095983,1.583488,0.1475492,-0.1494188,1.766543,0.1429126,-0.4619514,1.733172,-0.01583376,0.03060918,1.757071,0.05913253,-0.4563076,1.709033,-0.05502753,-0.1725774,1.658254,0.2938866,-0.1597,1.582103,NA,NA,NotTracked,NotTracked,
0.1411133,-1.008789,-0.005859375,-0.8916016,0.2851563,0.378418,5,-2,-1,0,1,24,10,5,12,13,24,10,2,2,1,1,0.5625,0.5625,0.5625,17.1875,17.1875,17.1875,2.497236,4.784931,5.459603,6.231409,6.67344,1.866786,0.1824767,-0.2541951,1.597939,0.09129992,-0.3604265,1.622912,0.1372256,0.3061326,1.774128,0.1721781,-0.2013654,1.563635,0.1518984,-0.4039302,1.583965,0.1480813,-0.1480947,1.766924,0.1426482,-0.4604309,1.732636,-0.01599097,0.03055856,1.75689,0.05878972,-0.4547049,1.708314,-0.05466533,-0.1724347,1.657371,0.2960056,-0.1592415,1.580413,NA,NA,NotTracked,NotTracked,
0.1489258,-1.016113,-0.005859375,-0.9140625,0.2661133,0.4057617,5,0,-2,1,7,19,37,5,-3,1,-7,-7,-1,0,0,0,-0.375,-0.375,-0.375,5.125,5.125,5.125,2.497698,4.778298,5.446845,6.134926,6.675292,1.734492,0.1838433,-0.2534712,1.59771,0.09171478,-0.3610773,1.622561,0.1373554,0.3061747,1.774383,0.1746266,-0.2018427,1.56343,0.1541142,-0.4056337,1.583467,0.1486583,-0.1471734,1.767186,0.1430808,-0.459016,1.731996,-0.0159716,0.03065424,1.75662,0.05903986,-0.4530492,1.706789,-0.05420933,-0.1719667,1.656018,0.2980928,-0.1598321,1.581884,NA,NA,NotTracked,NotTracked,
0.1513672,-1.00293,0.004394531,-0.9135742,0.2797852,0.3886719,14,0,-2,0,-8,17,23,4,-3,-6,0,2,0,0,-3,-1,-1.75,-1.75,-1.75,-0.375,-0.375,-0.375,2.496989,4.771544,5.435566,6.116126,6.676214,1.710869,0.1875244,-0.2505732,1.597005,0.09112908,-0.3575529,1.622012,0.1377651,0.3061526,1.77449,0.1746082,-0.2016659,1.563317,0.1535708,-0.400102,1.583709,0.1492569,-0.1465114,1.767305,0.1433852,-0.4580171,1.731604,-0.01572863,0.03104173,1.755637,0.05927719,-0.4519078,1.705942,-0.05386413,-0.1712203,1.654138,0.3002877,-0.1602685,1.582658,NA,NA,NotTracked,NotTracked,
0.1611328,-0.9936523,0.008300781,-0.9145508,0.3139648,0.3901367,-15,-3,-2,8,34,43,73,19,15,4,0,0,-2,-1,0,-1,0.125,0.125,0.125,-4.3125,-4.3125,-4.3125,2.497573,4.766227,5.431408,6.122935,6.676028,1.72729,0.187105,-0.2527185,1.598417,0.09525657,-0.3598661,1.622192,0.1385502,0.3062449,1.77479,0.1855927,-0.2033565,1.563947,0.1551105,-0.4031863,1.58371,0.1496731,-0.1459895,1.767338,0.1435289,-0.4572604,1.731186,-0.01529499,0.03143545,1.75498,0.05935544,-0.4510636,1.70533,-0.05325615,-0.1704169,1.652448,0.3010101,-0.1603396,1.582333,NA,NA,NotTracked,NotTracked,
0.1640625,-1.005859,-0.005371094,-0.8891602,0.3007813,0.3808594,-5,-1,-2,-4,-6,-16,2,-5,-5,-4,0,-6,-1,0,1,2,-0.3125,-0.3125,-0.3125,-6.75,-6.75,-6.75,2.498201,4.761129,5.432528,6.139847,6.674798,1.764014,0.1815103,-0.2671472,1.600269,0.0918499,-0.3575706,1.622702,0.1391021,0.3063232,1.774621,0.1851292,-0.2065334,1.560405,0.1544523,-0.4012344,1.583845,0.1502869,-0.1454233,1.767063,0.1437274,-0.4567587,1.730627,-0.01502604,0.03176297,1.753996,0.05948789,-0.450453,1.704614,-0.05299545,-0.1699197,1.651067,0.3025992,-0.1617323,1.582842,NA,NA,NotTracked,NotTracked,
