ALX,ALY,ALZ,ARX,ARY,ARZ,EMG0L,EMG1L,EMG2L,EMG3L,EMG4L,EMG5L,EMG6L,EMG7L,EMG0R,EMG1R,EMG2R,EMG3R,EMG4R,EMG5R,EMG6R,EMG7R,GLX,GLY,GLZ,GRX,GRY,GRZ,ORL,OPL,OYL,ORR,OPR,OYR,LHNX,LHNY,LHNZ,RHNX,RHNY,RHNZ,HX,HY,HZ,LTX,LTY,LTZ,RTX,RTY,RTZ,SpineMidX,SpineMidY,SpineMidZ,SpineBaseX,SpineBaseY,SpineBaseZ,ShoulderLeftX,ShoulderLeftY,ShoulderLeftZ,ShoulderRightX,ShoulderRightY,ShoulderRightZ,ElbowLeftX,ElbowLeftY,ElbowLeftZ,ElbowRightX,ElbowRightY,ElbowRightZ,Myo_Pose_left,Myo_Pose_Right,Kinect_pose_left,Kinect_pose_right
0.9033203,0.3520508,0.046875,0.9414063,-0.2978516,-0.1113281,-4,0,0,-1,3,3,-3,-6,0,-1,-1,-1,-2,-1,-2,-1,-1.75,-1.75,-1.75,-3.0625,-3.0625,-3.0625,7.309649,3.090925,2.563397,1.912884,3.024866,4.858778,-0.02102012,-0.5123024,1.636425,0.3546917,-0.5200215,1.644083,0.1898325,0.299652,1.737262,-0.07046907,-0.53593,1.644333,0.391629,-0.5090416,1.649778,0.1757897,-0.1526501,1.753164,0.1689113,-0.4652325,1.724901,0.006813327,0.02766863,1.75068,0.08974607,-0.4551073,1.692465,-0.03944429,-0.2331345,1.724332,0.3863643,-0.2461929,1.716484,NA,NA,NotTracked,NotTracked,
0.9072266,0.3496094,0.05371094,0.9414063,-0.2978516,-0.1113281,-3,-3,-2,-2,-23,-13,-1,0,0,-1,-1,-1,-2,-1,-2,-1,-1.1875,-1.1875,-1.1875,-3.0625,-3.0625,-3.0625,7.305398,3.091357,2.565128,1.912884,3.024866,4.858778,-0.02088397,-0.5118567,1.637006,0.3540888,-0.5192846,1.643885,0.1898875,0.2997766,1.73769,-0.06618866,-0.5268244,1.63121,0.3895884,-0.5143926,1.645019,0.1757839,-0.152635,1.753245,0.1689029,-0.4652236,1.724923,0.006895011,0.02769027,1.750934,0.08974112,-0.4550994,1.692472,-0.03945727,-0.233195,1.724457,0.3864219,-0.2462197,1.716525,NA,NA,NotTracked,NotTracked,
0.9018555,0.3525391,0.04443359,0.9414063,-0.2978516,-0.1113281,1,-1,0,-4,4,-5,0,1,0,-1,-1,-1,-2,-1,-2,-1,0,0,0,-3.0625,-3.0625,-3.0625,7.305398,3.091357,2.565128,1.912884,3.024866,4.858778,-0.02102109,-0.5115718,1.635713,0.3548014,-0.5195792,1.644464,0.1899169,0.2998983,1.73788,-0.06732224,-0.5263805,1.634731,0.3947651,-0.5307134,1.6534,0.175822,-0.1526367,1.753302,0.1689112,-0.4652304,1.724918,0.006923546,0.02770093,1.751062,0.08975165,-0.4550956,1.692455,-0.03941319,-0.2332927,1.724548,0.3864041,-0.2460807,1.716604,NA,NA,NotTracked,NotTracked,
0.9057617,0.3549805,0.04443359,0.9414063,-0.2978516,-0.1113281,0,0,-1,0,-6,-12,-3,0,0,-1,-1,-1,-2,-1,-2,-1,0.125,0.125,0.125,-3.0625,-3.0625,-3.0625,7.304668,3.091368,2.565858,1.912884,3.024866,4.858778,-0.02076212,-0.5118427,1.636388,0.3540289,-0.5193387,1.644366,0.1899079,0.2999237,1.737989,-0.06479421,-0.5236,1.629707,0.3890713,-0.5133927,1.643727,0.1758295,-0.1526125,1.753381,0.1689149,-0.4652276,1.724954,0.006900338,0.02761224,1.751552,0.08975702,-0.4550928,1.692482,-0.03946377,-0.2332835,1.72486,0.3863369,-0.2459577,1.716798,NA,NA,NotTracked,NotTracked,
0.9067383,0.3564453,0.04785156,0.9414063,-0.2978516,-0.1113281,-1,0,-1,-1,-8,-2,-1,-2,0,-1,-1,-1,-2,-1,-2,-1,-1.1875,-1.1875,-1.1875,-3.0625,-3.0625,-3.0625,7.303253,3.092023,2.565868,1.912884,3.024866,4.858778,-0.02090815,-0.5122665,1.63788,0.3544258,-0.5199946,1.645935,0.1899985,0.2999203,1.738438,-0.0668917,-0.526913,1.634456,0.3897533,-0.5211998,1.643318,0.1758658,-0.1526308,1.753463,0.1689163,-0.4652503,1.724972,0.006996952,0.0275676,1.751782,0.08975317,-0.4551048,1.69249,-0.03936758,-0.233151,1.725184,0.3863643,-0.2459499,1.71693,NA,NA,NotTracked,NotTracked,
0.9057617,0.3583984,0.05371094,0.9414063,-0.2978516,-0.1113281,2,-3,-2,0,16,-13,-2,5,0,-1,-1,-1,-2,-1,-2,-1,-0.1875,-0.1875,-0.1875,-3.0625,-3.0625,-3.0625,7.301971,3.092628,2.566586,1.912884,3.024866,4.858778,-0.02053314,-0.5117798,1.636664,0.3542493,-0.5199281,1.644537,0.1900862,0.2999389,1.738802,-0.0661925,-0.5263065,1.634241,0.3890123,-0.5218019,1.640599,0.1758868,-0.1526661,1.753523,0.1689259,-0.4652683,1.724979,0.006964472,0.02760877,1.752088,0.08976021,-0.4551222,1.692514,-0.03922898,-0.2333374,1.725338,0.3863501,-0.2459482,1.716969,NA,NA,NotTracked,NotTracked,
0.9057617,0.3583984,0.0390625,0.9414063,-0.2978516,-0.1113281,0,2,1,-2,-7,-1,0,4,0,-1,-1,-1,-2,-1,-2,-1,1.3125,1.3125,1.3125,-3.0625,-3.0625,-3.0625,7.300113,3.093501,2.570116,1.912884,3.024866,4.858778,-0.0208438,-0.512033,1.636122,0.3546034,-0.5197834,1.643009,0.1901082,0.29992,1.739033,-0.06725504,-0.5299184,1.633458,0.389297,-0.5126272,1.643579,0.1758818,-0.1527178,1.753613,0.1689303,-0.4653231,1.725017,0.006999655,0.02749544,1.752289,0.08975937,-0.4551668,1.692538,-0.03923607,-0.2335039,1.725497,0.3863282,-0.2466648,1.717026,NA,NA,NotTracked,NotTracked,
0.8364258,0.5874023,0.001464844,0.9414063,-0.2978516,-0.1113281,-2,5,-3,-1,4,2,-1,-14,0,-1,-1,-1,-2,-1,-2,-1,-29.125,-29.125,-29.125,-3.0625,-3.0625,-3.0625,7.28976,3.124868,2.557508,1.912884,3.024866,4.858778,-0.02059177,-0.5119905,1.637583,0.3556712,-0.5189723,1.639434,0.1902936,0.2999673,1.739507,-0.06624309,-0.5266865,1.633005,0.3904054,-0.5193222,1.629069,0.1758671,-0.1527144,1.753776,0.1689101,-0.4653638,1.725046,0.007031209,0.0274961,1.7526,0.08974153,-0.455205,1.692524,-0.03918082,-0.2334211,1.725799,0.3864655,-0.2475507,1.717023,NA,NA,NotTracked,NotTracked,
0.784668,0.8188477,0.1362305,0.9414063,-0.2978516,-0.1113281,1,10,7,1,-21,-5,-2,0,0,-1,-1,-1,-2,-1,-2,-1,-130.375,-130.375,-130.375,-3.0625,-3.0625,-3.0625,7.119147,3.274665,2.504734,1.912884,3.024866,4.858778,-0.02094725,-0.5118917,1.636656,0.3520782,-0.5194877,1.617094,0.190415,0.3000118,1.739971,-0.06575467,-0.5263973,1.629088,0.3919798,-0.5366158,1.598667,0.1759439,-0.1527299,1.753826,0.168942,-0.4653713,1.725039,0.007054014,0.02748805,1.752702,0.08977146,-0.4551952,1.692482,-0.03922376,-0.2334773,1.725826,0.3867012,-0.2474936,1.71675,NA,NA,NotTracked,NotTracked,
0.9243164,0.6591797,0.2299805,0.9414063,-0.2978516,-0.1113281,-5,-15,-21,-16,-3,0,-2,-2,0,-1,-1,-1,-2,-1,-2,-1,-105.9375,-105.9375,-105.9375,-3.0625,-3.0625,-3.0625,6.93626,3.457101,2.492841,1.912884,3.024866,4.858778,-0.02080735,-0.5115923,1.636014,0.3575566,-0.4937689,1.561565,0.1904903,0.2999997,1.740479,-0.06669202,-0.5273101,1.633209,0.3850799,-0.5137655,1.5345,0.1758727,-0.1527538,1.75405,0.1689679,-0.4653938,1.725044,0.006977688,0.02746729,1.753023,0.08979633,-0.4551929,1.692364,-0.03913965,-0.2334272,1.725958,0.3877859,-0.2456808,1.714553,NA,NA,NotTracked,NotTracked,
0.9077148,0.8300781,0.449707,0.9414063,-0.2978516,-0.1113281,5,21,51,12,-1,0,0,2,0,-1,-1,-1,-2,-1,-2,-1,-80.3125,-80.3125,-80.3125,-3.0625,-3.0625,-3.0625,6.763111,3.743454,2.536235,1.912884,3.024866,4.858778,-0.02043257,-0.5127477,1.635032,0.3502308,-0.4398135,1.484883,0.190679,0.3000082,1.741361,-0.06626414,-0.525579,1.634506,0.3315358,-0.4999594,1.490818,0.1757871,-0.1527666,1.754327,0.1688842,-0.4654215,1.725114,0.006923536,0.0273934,1.753235,0.08973041,-0.4552022,1.692344,-0.03915263,-0.2334832,1.725853,0.391448,-0.2303135,1.708269,NA,NA,NotTracked,Unknown,
0.5595703,0.8842773,0.6621094,0.9414063,-0.2978516,-0.1113281,-3,-6,-8,-2,-1,-1,-2,5,0,-1,-1,-1,-2,-1,-2,-1,-50.1875,-50.1875,-50.1875,-3.0625,-3.0625,-3.0625,6.583514,4.275,2.605505,1.912884,3.024866,4.858778,-0.02067801,-0.5116453,1.634522,0.3426516,-0.3439027,1.419572,0.1907969,0.3003139,1.74239,-0.06617447,-0.5258174,1.63279,0.3196745,-0.3965546,1.4215,0.1756454,-0.1526161,1.754608,0.1685279,-0.4651473,1.725143,0.00694352,0.02738382,1.75335,0.08929306,-0.4549596,1.692283,-0.0392407,-0.2332137,1.725744,0.3934544,-0.2061577,1.703907,NA,NA,NotTracked,Lasso,
0.3603516,0.8701172,0.6879883,0.9414063,-0.2978516,-0.1113281,-4,-3,-10,3,2,2,-3,-2,0,-1,-1,-1,-2,-1,-2,-1,-26.5,-26.5,-26.5,-3.0625,-3.0625,-3.0625,6.51583,4.747309,2.643249,1.912884,3.024866,4.858778,-0.02007822,-0.5118651,1.633069,0.3354539,-0.2174637,1.369578,0.1911796,0.3002234,1.743866,-0.06701559,-0.5161453,1.641375,0.3436887,-0.2284359,1.349562,0.1755463,-0.1526106,1.755251,0.1681065,-0.4650712,1.725285,0.007169588,0.02731305,1.753541,0.0888312,-0.4548792,1.69243,-0.03926617,-0.2330391,1.72566,0.4134946,-0.1983115,1.661947,NA,NA,NotTracked,Unknown,
0.06835938,0.7568359,0.659668,0.9414063,-0.2978516,-0.1113281,0,-2,2,4,3,0,-4,-2,0,-1,-1,-1,-2,-1,-2,-1,-25.625,-25.625,-25.625,-3.0625,-3.0625,-3.0625,6.475917,5.250004,2.700107,1.912884,3.024866,4.858778,-0.01982987,-0.5111203,1.633445,0.3256368,-0.0993747,1.385404,0.1915513,0.3002852,1.744681,-0.06596202,-0.5233037,1.633822,0.3203724,-0.1150216,1.336889,0.175533,-0.1525079,1.755643,0.1675731,-0.4649554,1.725277,0.007340347,0.02727814,1.753744,0.08817106,-0.4547282,1.692357,-0.03919833,-0.2326968,1.725667,0.3966972,-0.2013407,1.649622,NA,NA,NotTracked,Unknown,
-0.2519531,0.6567383,0.5708008,0.9414063,-0.2978516,-0.1113281,7,-7,-3,1,-7,-3,-3,8,0,-1,-1,-1,-2,-1,-2,-1,17.6875,17.6875,17.6875,-3.0625,-3.0625,-3.0625,6.507513,5.733023,2.801275,1.912884,3.024866,4.858778,-0.01908844,-0.5110829,1.633451,0.3115055,0.01423496,1.414933,0.1918506,0.3002143,1.745164,-0.06545953,-0.5241276,1.634463,0.3063625,-0.0141171,1.380943,0.1755625,-0.1525177,1.755832,0.1672219,-0.4649444,1.72524,0.007694355,0.02740773,1.754137,0.08774537,-0.45488,1.692581,-0.03912372,-0.2325111,1.725672,0.4069152,-0.1744,1.582375,NA,NA,NotTracked,Closed,
-0.6118164,0.4770508,0.387207,0.9414063,-0.2978516,-0.1113281,4,-2,-4,-5,-6,-2,-4,-3,0,-1,-1,-1,-2,-1,-2,-1,-9.0625,-9.0625,-9.0625,-3.0625,-3.0625,-3.0625,6.636537,6.29389,3.033458,1.912884,3.024866,4.858778,-0.02019401,-0.5109839,1.635621,0.3008535,0.07335032,1.460998,0.1919207,0.3003711,1.74533,-0.06518379,-0.5244389,1.632875,0.2811376,0.07199154,1.4908,0.1754,-0.1513671,1.754587,0.1663713,-0.4642299,1.724892,0.008137832,0.02759618,1.754737,0.08662118,-0.4543098,1.693014,-0.0381362,-0.2307871,1.726205,0.3988882,-0.154525,1.57124,NA,NA,NotTracked,Closed,
-0.6630859,0.4526367,0.2949219,0.9414063,-0.2978516,-0.1113281,-11,-9,-13,3,4,4,0,-1,0,-1,-1,-1,-2,-1,-2,-1,-22.4375,-22.4375,-22.4375,-3.0625,-3.0625,-3.0625,6.839305,6.617526,3.312345,1.912884,3.024866,4.858778,-0.02056127,-0.5108352,1.636499,0.2878323,0.1256672,1.501894,0.1918063,0.3006425,1.745388,-0.06521574,-0.5228264,1.633367,0.301137,0.1740653,1.500688,0.1757557,-0.1500263,1.7546,0.1639402,-0.4629394,1.724382,0.009183573,0.0279261,1.755046,0.08351413,-0.4530893,1.69407,-0.03667619,-0.22441,1.727757,0.3858455,-0.1142336,1.544366,NA,NA,NotTracked,Unknown,
-0.9619141,0.2856445,-0.07714844,0.9414063,-0.2978516,-0.1113281,-9,4,5,0,-2,-1,-2,-11,0,-1,-1,-1,-2,-1,-2,-1,-41.4375,-41.4375,-41.4375,-3.0625,-3.0625,-3.0625,7.306034,6.899402,3.927882,1.912884,3.024866,4.858778,-0.02088807,-0.511165,1.637379,0.2725164,0.186334,1.552267,0.1913588,0.3008741,1.745251,-0.06715583,-0.5270954,1.636203,0.2500633,0.1738329,1.583333,0.1763038,-0.1484962,1.754082,0.1623074,-0.4624412,1.724215,0.01204399,0.02868211,1.755068,0.08155452,-0.4524902,1.695339,-0.03660063,-0.2224372,1.728532,0.3810658,-0.1021095,1.530068,NA,NA,NotTracked,Unknown,
-0.25,0.3227539,0.2026367,0.9414063,-0.2978516,-0.1113281,13,4,10,9,5,-1,-2,15,0,-1,-1,-1,-2,-1,-2,-1,-57.125,-57.125,-57.125,-3.0625,-3.0625,-3.0625,7.7893,6.982559,4.547139,1.912884,3.024866,4.858778,-0.0210524,-0.5111494,1.637899,0.2645181,0.1817942,1.590836,0.1910168,0.3010862,1.744723,-0.06687219,-0.5250053,1.636945,0.2443562,0.1607912,1.599313,0.1769133,-0.1481234,1.753533,0.1619424,-0.4627234,1.724195,0.01309334,0.02888984,1.754851,0.08102684,-0.4531311,1.696414,-0.03657665,-0.2222205,1.728609,0.368654,-0.09033881,1.516074,NA,NA,NotTracked,Unknown,
-0.7109375,0.331543,-0.1201172,0.9414063,-0.2978516,-0.1113281,9,-11,-4,-4,-2,-1,-3,12,0,-1,-1,-1,-2,-1,-2,-1,-57.0625,-57.0625,-57.0625,-3.0625,-3.0625,-3.0625,8.269535,6.991535,5.154373,1.912884,3.024866,4.858778,-0.02039053,-0.510996,1.636619,0.2467131,0.1918038,1.621028,0.1909019,0.3009531,1.744385,-0.06589331,-0.5258096,1.634628,0.1765602,0.2269355,1.611692,0.1779419,-0.1475762,1.752793,0.1618714,-0.4627863,1.724238,0.01301636,0.02877641,1.754833,0.08116433,-0.4536949,1.69825,-0.03650588,-0.2223606,1.72854,0.3584447,-0.08374112,1.513654,NA,NA,Unknown,Unknown,
-0.8061523,0.3217773,-0.1933594,0.9414063,-0.2978516,-0.1113281,13,10,37,20,14,3,10,5,0,-1,-1,-1,-2,-1,-2,-1,-54.5,-54.5,-54.5,-3.0625,-3.0625,-3.0625,8.531263,6.951382,5.537558,1.912884,3.024866,4.858778,-0.01998255,-0.5110763,1.633972,0.2381008,0.1885795,1.629117,0.1907956,0.300727,1.743706,-0.0656419,-0.5236391,1.6359,0.1717482,0.2243595,1.610573,0.1787452,-0.1472356,1.752038,0.1620494,-0.4628378,1.724263,0.01322126,0.02874844,1.754654,0.08205492,-0.4542389,1.699846,-0.03642747,-0.2225272,1.728407,0.353799,-0.08259129,1.512415,NA,NA,Unknown,NotTracked,
-0.9194336,0.3466797,-0.2192383,0.9414063,-0.2978516,-0.1113281,3,-14,-44,-22,1,-1,-2,6,0,-1,-1,-1,-2,-1,-2,-1,-25.375,-25.375,-25.375,-3.0625,-3.0625,-3.0625,8.500055,6.912542,5.596577,1.912884,3.024866,4.858778,-0.0193394,-0.5104346,1.632651,0.231981,0.186054,1.630901,0.1906914,0.3006403,1.743175,-0.06476153,-0.5252366,1.630242,0.1688232,0.2440269,1.6026,0.1789051,-0.1474336,1.751548,0.1621643,-0.4628547,1.72423,0.01352606,0.02888617,1.754544,0.08252199,-0.4544656,1.700605,-0.03621713,-0.2229831,1.727999,0.3498735,-0.08417182,1.513131,NA,NA,Unknown,NotTracked,
-0.9091797,0.3886719,-0.2021484,0.9414063,-0.2978516,-0.1113281,-23,-4,-3,-5,-7,-6,0,-18,0,-1,-1,-1,-2,-1,-2,-1,-12.8125,-12.8125,-12.8125,-3.0625,-3.0625,-3.0625,8.441535,6.900073,5.553869,1.912884,3.024866,4.858778,-0.01993331,-0.5106348,1.634549,0.2300202,0.183199,1.630802,0.190645,0.3006729,1.742457,-0.06544454,-0.5249758,1.633403,0.1653599,0.2179052,1.610846,0.1790615,-0.1476687,1.750987,0.162286,-0.4628847,1.724203,0.01356534,0.02889357,1.754498,0.08292995,-0.4547025,1.70119,-0.03603232,-0.2234085,1.727571,0.3465768,-0.08462998,1.513693,NA,NA,Unknown,NotTracked,
-0.9462891,0.3325195,-0.2143555,0.9414063,-0.2978516,-0.1113281,0,-7,-6,0,-19,-14,-3,4,0,-1,-1,-1,-2,-1,-2,-1,6.4375,6.4375,6.4375,-3.0625,-3.0625,-3.0625,8.41909,6.895984,5.537917,1.912884,3.024866,4.858778,-0.02063371,-0.510922,1.636087,0.2310165,0.1828953,1.632522,0.1906152,0.3006674,1.742263,-0.06521012,-0.5246347,1.632613,0.1648963,0.2157723,1.610857,0.1791298,-0.1477004,1.750721,0.162433,-0.4628128,1.724245,0.01331846,0.02883336,1.754471,0.08330994,-0.4547592,1.701851,-0.03609241,-0.2238672,1.727276,0.3449586,-0.08480609,1.515102,NA,NA,Unknown,NotTracked,
-0.934082,0.2900391,-0.1826172,0.9414063,-0.2978516,-0.1113281,-5,-14,-7,-1,-6,-5,-8,-5,0,-1,-1,-1,-2,-1,-2,-1,9.5625,9.5625,9.5625,-3.0625,-3.0625,-3.0625,8.438412,6.907137,5.542999,1.912884,3.024866,4.858778,-0.02082953,-0.5105577,1.636333,0.2321751,0.1838633,1.631779,0.1905638,0.3005285,1.741942,-0.06683768,-0.5303766,1.631259,0.1648523,0.2176289,1.61104,0.1792309,-0.147861,1.750347,0.1625178,-0.4628993,1.724216,0.01311173,0.02872443,1.754374,0.08352829,-0.4550685,1.702249,-0.03622543,-0.2240159,1.727114,0.3443096,-0.08479313,1.514892,NA,NA,Unknown,NotTracked,
-0.9233398,0.2910156,-0.1738281,0.9414063,-0.2978516,-0.1113281,0,-6,-40,-26,-8,-9,0,2,0,-1,-1,-1,-2,-1,-2,-1,6.0625,6.0625,6.0625,-3.0625,-3.0625,-3.0625,8.435364,6.917577,5.528037,1.912884,3.024866,4.858778,-0.02138689,-0.5111391,1.636797,0.2318999,0.1837582,1.631168,0.1904539,0.3004212,1.741841,-0.06585176,-0.5237145,1.629475,0.1654881,0.2170224,1.611586,0.179267,-0.1479055,1.750285,0.1625564,-0.4629038,1.724229,0.01299839,0.02882657,1.754348,0.0836532,-0.4551438,1.702506,-0.03625609,-0.2244699,1.727012,0.3438752,-0.08522984,1.515059,NA,NA,Unknown,NotTracked,
-0.9418945,0.284668,-0.1723633,0.9414063,-0.2978516,-0.1113281,0,-14,5,-1,7,4,-2,-2,0,-1,-1,-1,-2,-1,-2,-1,1,1,1,-3.0625,-3.0625,-3.0625,8.4186,6.916317,5.507517,1.912884,3.024866,4.858778,-0.02142384,-0.5108312,1.63501,0.2317038,0.1838278,1.631165,0.1902131,0.3002166,1.741448,-0.06780703,-0.5291213,1.636064,0.1657303,0.2205424,1.61041,0.178882,-0.1477268,1.749564,0.1626104,-0.4628955,1.724199,0.01285461,0.02874429,1.754161,0.08373316,-0.4551779,1.702581,-0.0363731,-0.224628,1.726829,0.3436997,-0.08517754,1.515058,NA,NA,Unknown,NotTracked,
-0.9394531,0.309082,-0.1923828,0.9414063,-0.2978516,-0.1113281,4,4,4,1,-5,-3,2,2,0,-1,-1,-1,-2,-1,-2,-1,0.8125,0.8125,0.8125,-3.0625,-3.0625,-3.0625,8.408813,6.910131,5.499523,1.912884,3.024866,4.858778,-0.02040443,-0.5105531,1.635789,0.231754,0.1839137,1.633168,0.1900564,0.3000917,1.741386,-0.06593109,-0.5256133,1.633182,0.1657069,0.2183178,1.611201,0.1784636,-0.147473,1.748915,0.1626651,-0.4628659,1.724221,0.01281083,0.02889269,1.75418,0.08379798,-0.4551659,1.702709,-0.03641791,-0.2248266,1.726766,0.343097,-0.08525384,1.515004,NA,NA,Unknown,NotTracked,
-0.9589844,0.3188477,-0.1953125,0.9414063,-0.2978516,-0.1113281,1,2,-5,2,9,5,0,0,0,-1,-1,-1,-2,-1,-2,-1,4.75,4.75,4.75,-3.0625,-3.0625,-3.0625,8.416677,6.914119,5.502393,1.912884,3.024866,4.858778,-0.02024239,-0.5109547,1.634572,0.2325588,0.1814473,1.632392,0.1897486,0.2999813,1.741413,-0.06736703,-0.5189673,1.641,0.1652165,0.2212242,1.610933,0.1785052,-0.1474934,1.748942,0.1627749,-0.4628716,1.724243,0.01261515,0.02883076,1.754253,0.08397646,-0.4552197,1.702823,-0.03646467,-0.2249562,1.726689,0.3431731,-0.08513323,1.515403,NA,NA,Unknown,NotTracked,
-0.9311523,0.3032227,-0.1953125,0.9414063,-0.2978516,-0.1113281,0,12,-2,-4,0,-1,-2,-1,0,-1,-1,-1,-2,-1,-2,-1,3.5,3.5,3.5,-3.0625,-3.0625,-3.0625,8.423608,6.915955,5.503953,1.912884,3.024866,4.858778,-0.01999738,-0.5111585,1.634687,0.2330496,0.1817271,1.631153,0.1893551,0.2997406,1.741219,-0.06566391,-0.5250433,1.633854,0.1648641,0.209706,1.61608,0.1785896,-0.1474377,1.749019,0.1629149,-0.4628014,1.724257,0.01248122,0.02876342,1.754231,0.08414651,-0.4551964,1.702888,-0.03653343,-0.22497,1.726556,0.343126,-0.08497755,1.515307,NA,NA,Unknown,NotTracked,
-0.9453125,0.2866211,-0.1694336,0.9414063,-0.2978516,-0.1113281,-1,-8,-38,-16,2,3,1,-1,0,-1,-1,-1,-2,-1,-2,-1,4.8125,4.8125,4.8125,-3.0625,-3.0625,-3.0625,8.396324,6.915415,5.463692,1.912884,3.024866,4.858778,-0.02028394,-0.5101783,1.634878,0.2324283,0.1825192,1.631951,0.1890994,0.2997076,1.741351,-0.06353544,-0.5198594,1.632027,0.1656148,0.2172346,1.612679,0.1786956,-0.1472935,1.749127,0.1630358,-0.4627623,1.724351,0.01271513,0.02896811,1.754164,0.08430862,-0.4551829,1.703123,-0.03647273,-0.225073,1.726538,0.343397,-0.08516444,1.515444,NA,NA,Unknown,NotTracked,
-0.9506836,0.3022461,-0.1704102,0.9414063,-0.2978516,-0.1113281,-2,-3,32,15,10,5,0,-4,0,-1,-1,-1,-2,-1,-2,-1,4.3125,4.3125,4.3125,-3.0625,-3.0625,-3.0625,8.352632,6.915345,5.407968,1.912884,3.024866,4.858778,-0.02034296,-0.5099458,1.634605,0.2325009,0.1815821,1.630934,0.188822,0.2996677,1.741341,-0.06454091,-0.5264528,1.629667,0.1647046,0.2098706,1.616554,0.1786963,-0.1469731,1.748871,0.1633734,-0.4625171,1.724324,0.01288525,0.02904717,1.75402,0.08467282,-0.4550069,1.703164,-0.03643401,-0.2251658,1.726436,0.3435466,-0.08464376,1.515772,NA,NA,Unknown,NotTracked,
-0.9389648,0.3022461,-0.1923828,0.9414063,-0.2978516,-0.1113281,4,4,1,-1,-4,-3,1,1,0,-1,-1,-1,-2,-1,-2,-1,2.125,2.125,2.125,-3.0625,-3.0625,-3.0625,8.370596,6.923038,5.422651,1.912884,3.024866,4.858778,-0.02042088,-0.5110534,1.634137,0.2332279,0.1821131,1.631141,0.1886186,0.2995769,1.741301,-0.06563069,-0.5260652,1.633778,0.1654299,0.2155631,1.61324,0.1787273,-0.1467985,1.748726,0.1635883,-0.4623646,1.724349,0.01295333,0.02917955,1.753934,0.0849054,-0.4548894,1.703187,-0.0365116,-0.2252901,1.726385,0.3442118,-0.08491601,1.516544,NA,NA,Unknown,NotTracked,
-0.9423828,0.3056641,-0.1757813,0.9414063,-0.2978516,-0.1113281,3,10,68,13,-6,-6,0,3,0,-1,-1,-1,-2,-1,-2,-1,1.75,1.75,1.75,-3.0625,-3.0625,-3.0625,8.368485,6.925129,5.417658,1.912884,3.024866,4.858778,-0.02026913,-0.510491,1.634048,0.2333184,0.1827057,1.631844,0.1884066,0.2994769,1.741294,-0.06434707,-0.5224127,1.630703,0.1651761,0.2156278,1.613694,0.1787123,-0.1467208,1.748669,0.1636489,-0.4623094,1.724385,0.0132356,0.02928289,1.753718,0.08496261,-0.4548673,1.703227,-0.03653841,-0.2253225,1.726329,0.3446484,-0.08490238,1.516604,NA,NA,Unknown,NotTracked,
-0.9448242,0.2978516,-0.1767578,0.9414063,-0.2978516,-0.1113281,5,14,10,1,5,0,0,4,0,-1,-1,-1,-2,-1,-2,-1,2.125,2.125,2.125,-3.0625,-3.0625,-3.0625,8.365541,6.925346,5.412174,1.912884,3.024866,4.858778,-0.02025863,-0.5105934,1.634016,0.2332608,0.1822244,1.630999,0.1882376,0.2993629,1.74129,-0.06440589,-0.5258353,1.62542,0.164298,0.209697,1.61315,0.1788861,-0.1466617,1.748716,0.1637076,-0.4623294,1.724383,0.01320612,0.02914204,1.753594,0.0850368,-0.454913,1.703284,-0.03665763,-0.2253266,1.726125,0.3448257,-0.08458814,1.516316,NA,NA,Unknown,NotTracked,
-0.9443359,0.2949219,-0.1787109,0.9414063,-0.2978516,-0.1113281,8,17,36,8,-2,-1,0,2,0,-1,-1,-1,-2,-1,-2,-1,1.8125,1.8125,1.8125,-3.0625,-3.0625,-3.0625,8.373242,6.928976,5.416248,1.912884,3.024866,4.858778,-0.02073243,-0.5108317,1.633869,0.2325905,0.1829101,1.63136,0.1880823,0.2993225,1.741279,-0.06614666,-0.5231934,1.632738,0.1647365,0.2081122,1.616038,0.178884,-0.146499,1.748565,0.1637949,-0.4622268,1.724389,0.01335747,0.02934317,1.753446,0.08512466,-0.4548305,1.703344,-0.03664032,-0.2253203,1.725967,0.3451728,-0.08473545,1.51693,NA,NA,Unknown,NotTracked,
-0.949707,0.2753906,-0.1777344,0.9414063,-0.2978516,-0.1113281,2,-2,2,1,-1,-2,-2,-10,0,-1,-1,-1,-2,-1,-2,-1,-1.375,-1.375,-1.375,-3.0625,-3.0625,-3.0625,8.384566,6.934195,5.429161,1.912884,3.024866,4.858778,-0.02032337,-0.5113443,1.634946,0.2366198,0.174108,1.628512,0.1880181,0.2991693,1.741455,-0.06489852,-0.5211579,1.636582,0.163692,0.209051,1.617334,0.1790821,-0.1463692,1.748771,0.1638591,-0.4621944,1.724459,0.01307849,0.02923919,1.753535,0.08520601,-0.4548201,1.703495,-0.03673888,-0.2253068,1.72591,0.345163,-0.08428412,1.516924,NA,NA,Unknown,NotTracked,
-0.9462891,0.293457,-0.1748047,0.9414063,-0.2978516,-0.1113281,-3,-1,2,3,-11,-7,0,-5,0,-1,-1,-1,-2,-1,-2,-1,-3.5625,-3.5625,-3.5625,-3.0625,-3.0625,-3.0625,8.385124,6.934028,5.434799,1.912884,3.024866,4.858778,-0.02011023,-0.5105291,1.633892,0.236937,0.1749534,1.627442,0.1878041,0.2990661,1.74136,-0.06417358,-0.5211833,1.633098,0.1666155,0.213766,1.613495,0.1791104,-0.1463382,1.748815,0.1639155,-0.4621307,1.724449,0.01318851,0.02937092,1.753267,0.08524951,-0.4547822,1.703476,-0.03679934,-0.2253615,1.725687,0.3449548,-0.08460876,1.517311,NA,NA,Unknown,NotTracked,
-0.9448242,0.3056641,-0.1870117,0.9414063,-0.2978516,-0.1113281,0,2,0,4,-1,-2,0,5,0,-1,-1,-1,-2,-1,-2,-1,-1.875,-1.875,-1.875,-3.0625,-3.0625,-3.0625,8.383888,6.934881,5.438197,1.912884,3.024866,4.858778,-0.02004484,-0.5102021,1.632939,0.2347833,0.1770728,1.627256,0.1876514,0.2987155,1.740897,-0.06417677,-0.5206504,1.633347,0.1676832,0.2047682,1.616034,0.1791411,-0.1463255,1.748771,0.1639519,-0.4620888,1.724339,0.01322317,0.02938401,1.753073,0.08527047,-0.4547562,1.703427,-0.03677212,-0.2253722,1.725544,0.3446021,-0.0851361,1.517445,NA,NA,Unknown,NotTracked,
-0.9443359,0.3027344,-0.1674805,0.9414063,-0.2978516,-0.1113281,-2,-5,-13,-1,-6,-1,-3,-1,0,-1,-1,-1,-2,-1,-2,-1,-0.5625,-0.5625,-0.5625,-3.0625,-3.0625,-3.0625,8.377213,6.937241,5.431806,1.912884,3.024866,4.858778,-0.01991461,-0.5114462,1.634664,0.2347573,0.1774541,1.628512,0.1874778,0.2987007,1.740803,-0.06445327,-0.5198269,1.633762,0.165572,0.2085232,1.615372,0.1792114,-0.146247,1.748774,0.1640322,-0.4619894,1.724356,0.01324056,0.02944294,1.752999,0.08537554,-0.4546568,1.703474,-0.036738,-0.2254473,1.725492,0.3442146,-0.08491518,1.517299,NA,NA,Unknown,NotTracked,
-0.9467773,0.2880859,-0.1699219,0.9414063,-0.2978516,-0.1113281,-11,-1,-5,-4,-6,-2,1,-18,0,-1,-1,-1,-2,-1,-2,-1,-0.1875,-0.1875,-0.1875,-3.0625,-3.0625,-3.0625,8.371934,6.937998,5.426237,1.912884,3.024866,4.858778,-0.02018576,-0.5109967,1.634632,0.2335502,0.1785703,1.628669,0.187424,0.2987254,1.740737,-0.06418288,-0.5218683,1.631612,0.1646628,0.2058871,1.615807,0.1790221,-0.1462329,1.74868,0.1640287,-0.461982,1.724415,0.01299195,0.02935789,1.753074,0.08538061,-0.4546596,1.703607,-0.036761,-0.2254503,1.72545,0.3437417,-0.08490163,1.516712,NA,NA,Unknown,NotTracked,
-0.9389648,0.2939453,-0.1787109,0.9414063,-0.2978516,-0.1113281,-1,-7,-22,-7,-6,0,-3,1,0,-1,-1,-1,-2,-1,-2,-1,-0.5625,-0.5625,-0.5625,-3.0625,-3.0625,-3.0625,8.365027,6.938944,5.420945,1.912884,3.024866,4.858778,-0.02056687,-0.5110688,1.633902,0.2335786,0.1800659,1.628592,0.1872974,0.2986507,1.740503,-0.0644305,-0.5210809,1.632225,0.1651214,0.2079113,1.612764,0.1790582,-0.1462686,1.748706,0.1640628,-0.4619663,1.724379,0.01302839,0.02935326,1.752948,0.08542303,-0.4546472,1.703548,-0.03678615,-0.2254742,1.725421,0.3432585,-0.08472893,1.516542,NA,NA,Unknown,NotTracked,
-0.9233398,0.300293,-0.1835938,0.9414063,-0.2978516,-0.1113281,-15,-8,-14,-5,-5,-3,-2,-12,0,-1,-1,-1,-2,-1,-2,-1,2.0625,2.0625,2.0625,-3.0625,-3.0625,-3.0625,8.363462,6.944833,5.415817,1.912884,3.024866,4.858778,-0.02055435,-0.5115988,1.634287,0.2328292,0.1807005,1.62878,0.1869552,0.2986434,1.740085,-0.06464656,-0.521089,1.632332,0.1650889,0.2101558,1.612843,0.1791247,-0.1462446,1.748679,0.1641114,-0.4619887,1.724384,0.01295533,0.0292818,1.752888,0.08549743,-0.4546976,1.703619,-0.03677575,-0.2254872,1.725398,0.3428417,-0.0845039,1.516149,NA,NA,Unknown,NotTracked,
-0.9526367,0.2954102,-0.1728516,0.9414063,-0.2978516,-0.1113281,-5,-10,-3,-1,-3,0,-2,-3,0,-1,-1,-1,-2,-1,-2,-1,1.25,1.25,1.25,-3.0625,-3.0625,-3.0625,8.351256,6.947904,5.400124,1.912884,3.024866,4.858778,-0.02017682,-0.5112522,1.633812,0.2331463,0.1810016,1.628489,0.186744,0.2986065,1.739796,-0.06463959,-0.5212715,1.63397,0.1656643,0.2091986,1.613458,0.1791488,-0.1462553,1.748662,0.1641553,-0.4619758,1.724364,0.01296358,0.02937069,1.75274,0.08553344,-0.4546936,1.703623,-0.03687388,-0.2255624,1.725382,0.3429283,-0.0851126,1.516436,NA,NA,Unknown,NotTracked,
-0.9584961,0.2758789,-0.1567383,0.9414063,-0.2978516,-0.1113281,5,0,2,-2,-5,2,1,9,0,-1,-1,-1,-2,-1,-2,-1,-3.25,-3.25,-3.25,-3.0625,-3.0625,-3.0625,8.351089,6.953165,5.401981,1.912884,3.024866,4.858778,-0.02047752,-0.5105542,1.633567,0.233904,0.1815167,1.628484,0.1865289,0.2981928,1.738962,-0.06477961,-0.5216194,1.631928,0.1656851,0.2105313,1.612806,0.1789407,-0.1462294,1.748339,0.1641789,-0.4620284,1.724349,0.01300244,0.02941,1.752593,0.08554268,-0.4547638,1.703613,-0.03689371,-0.2255647,1.725191,0.3425454,-0.08524438,1.516158,NA,NA,Unknown,NotTracked,
