ALX,ALY,ALZ,ARX,ARY,ARZ,EMG0L,EMG1L,EMG2L,EMG3L,EMG4L,EMG5L,EMG6L,EMG7L,EMG0R,EMG1R,EMG2R,EMG3R,EMG4R,EMG5R,EMG6R,EMG7R,GLX,GLY,GLZ,GRX,GRY,GRZ,ORL,OPL,OYL,ORR,OPR,OYR,LHNX,LHNY,LHNZ,RHNX,RHNY,RHNZ,HX,HY,HZ,LTX,LTY,LTZ,RTX,RTY,RTZ,SpineMidX,SpineMidY,SpineMidZ,SpineBaseX,SpineBaseY,SpineBaseZ,ShoulderLeftX,ShoulderLeftY,ShoulderLeftZ,ShoulderRightX,ShoulderRightY,ShoulderRightZ,ElbowLeftX,ElbowLeftY,ElbowLeftZ,ElbowRightX,ElbowRightY,ElbowRightZ,Myo_Pose_left,Myo_Pose_Right,Kinect_pose_left,Kinect_pose_right
0.8989258,0.3676758,0.04492188,0.9414063,-0.2978516,-0.1113281,0,-2,-1,0,4,-1,-3,-3,0,-1,-1,-1,-2,-1,-2,-1,1.6875,1.6875,1.6875,-3.0625,-3.0625,-3.0625,7.317791,3.132279,2.83922,1.912884,3.024866,4.858778,-0.03274423,-0.5124113,1.653418,0.3447866,-0.5209417,1.631683,0.1747401,0.3069889,1.757073,-0.07950096,-0.5222477,1.654915,0.2995793,-0.5155094,1.606023,0.1677566,-0.1462485,1.758502,0.1607411,-0.4607963,1.72934,-0.0007473017,0.03019129,1.756411,0.08222955,-0.4504266,1.698227,-0.04535368,-0.2345519,1.735777,0.3798638,-0.2503542,1.701134,NA,NA,NotTracked,NotTracked,
0.9003906,0.3745117,0.04492188,0.9414063,-0.2978516,-0.1113281,0,-1,0,-1,-4,-5,-1,2,0,-1,-1,-1,-2,-1,-2,-1,-0.625,-0.625,-0.625,-3.0625,-3.0625,-3.0625,7.317185,3.132008,2.840524,1.912884,3.024866,4.858778,-0.03318616,-0.512847,1.65444,0.3446993,-0.5215034,1.632144,0.1748554,0.3070019,1.757007,-0.07993137,-0.5218467,1.655512,0.2995306,-0.5111157,1.606798,0.1678205,-0.1462396,1.758521,0.1607859,-0.4607958,1.729368,-0.0007325049,0.03055107,1.756616,0.08227452,-0.4504003,1.698279,-0.04528057,-0.2345101,1.73579,0.3798938,-0.2503436,1.701176,NA,NA,NotTracked,NotTracked,
0.8994141,0.3720703,0.05664063,0.9414063,-0.2978516,-0.1113281,0,0,-1,1,-1,-1,1,0,0,-1,-1,-1,-2,-1,-2,-1,-0.1875,-0.1875,-0.1875,-3.0625,-3.0625,-3.0625,7.316521,3.132031,2.841189,1.912884,3.024866,4.858778,-0.03295965,-0.5127331,1.653299,0.3446672,-0.5211943,1.631283,0.1749327,0.3069157,1.756776,-0.07939076,-0.5217684,1.655023,0.2995807,-0.5146464,1.606273,0.1679226,-0.1462919,1.758468,0.1607556,-0.4608354,1.729357,-0.0006753131,0.03061112,1.756654,0.08225048,-0.4504264,1.698252,-0.04526771,-0.2344523,1.735856,0.3798965,-0.2504593,1.701173,NA,NA,NotTracked,NotTracked,
0.8935547,0.3706055,0.04443359,0.9414063,-0.2978516,-0.1113281,1,-1,0,4,-8,4,-2,4,0,-1,-1,-1,-2,-1,-2,-1,1.8125,1.8125,1.8125,-3.0625,-3.0625,-3.0625,7.318756,3.131696,2.841478,1.912884,3.024866,4.858778,-0.03352262,-0.5136828,1.654112,0.3445255,-0.5211076,1.631761,0.1749795,0.306939,1.756756,-0.07964264,-0.5213199,1.655448,0.2995754,-0.5142991,1.60629,0.1679473,-0.1463193,1.758436,0.1607706,-0.4608568,1.729342,-0.0006619873,0.03057107,1.756677,0.08226069,-0.4504319,1.698223,-0.04527988,-0.2344666,1.735862,0.3797951,-0.2503541,1.701174,NA,NA,NotTracked,NotTracked,
0.9023438,0.3725586,0.04931641,0.9414063,-0.2978516,-0.1113281,2,0,1,9,-5,1,0,2,0,-1,-1,-1,-2,-1,-2,-1,2.8125,2.8125,2.8125,-3.0625,-3.0625,-3.0625,7.322671,3.132774,2.841222,1.912884,3.024866,4.858778,-0.03339469,-0.511938,1.65246,0.3444536,-0.5211491,1.630213,0.1750742,0.3068687,1.756667,-0.07942928,-0.5205367,1.647382,0.2997096,-0.5143614,1.606178,0.1679734,-0.1463674,1.758341,0.1607801,-0.4609573,1.729244,-0.0005518728,0.03047518,1.756692,0.08225648,-0.4504777,1.698122,-0.04526668,-0.2344573,1.735869,0.3796796,-0.2504185,1.701081,NA,NA,NotTracked,NotTracked,
0.8891602,0.3798828,0.04443359,0.9414063,-0.2978516,-0.1113281,3,1,0,-2,0,2,0,6,0,-1,-1,-1,-2,-1,-2,-1,1.4375,1.4375,1.4375,-3.0625,-3.0625,-3.0625,7.323695,3.133668,2.842593,1.912884,3.024866,4.858778,-0.03327657,-0.5125591,1.653454,0.3450459,-0.5214178,1.630487,0.1751395,0.3068786,1.756634,-0.07957837,-0.5216384,1.654334,0.2996832,-0.5116218,1.606331,0.1679836,-0.1464026,1.758292,0.1608189,-0.4610032,1.729138,-0.000543152,0.03045751,1.756705,0.08229213,-0.4505277,1.697974,-0.04527548,-0.234446,1.735918,0.3796441,-0.2504106,1.701053,NA,NA,NotTracked,NotTracked,
0.9067383,0.4658203,-0.03125,0.9414063,-0.2978516,-0.1113281,1,9,-5,-4,4,-1,-2,3,0,-1,-1,-1,-2,-1,-2,-1,-40.1875,-40.1875,-40.1875,-3.0625,-3.0625,-3.0625,7.329519,3.143981,2.806693,1.912884,3.024866,4.858778,-0.03301766,-0.5129087,1.653425,0.3447819,-0.520396,1.627263,0.1752743,0.3068883,1.756645,-0.07893086,-0.51968,1.654539,0.2997269,-0.5080404,1.606793,0.1679838,-0.1464359,1.758312,0.1608184,-0.4610494,1.729116,-0.0006140809,0.03039809,1.756854,0.08229458,-0.4505699,1.697943,-0.04526543,-0.2345223,1.73586,0.3796514,-0.2504382,1.701044,NA,NA,NotTracked,NotTracked,
0.918457,0.8041992,0.04736328,0.9414063,-0.2978516,-0.1113281,-4,-2,10,3,-5,0,0,1,0,-1,-1,-1,-2,-1,-2,-1,-127.625,-127.625,-127.625,-3.0625,-3.0625,-3.0625,7.21293,3.252682,2.758949,1.912884,3.024866,4.858778,-0.03311468,-0.5114637,1.653811,0.3401264,-0.515659,1.603974,0.1752982,0.3069638,1.75668,-0.07914564,-0.5174875,1.657695,0.2980161,-0.4925191,1.607415,0.168066,-0.1464771,1.758319,0.1609184,-0.461025,1.729041,-0.0007196277,0.03022863,1.757082,0.0823865,-0.4505622,1.697826,-0.04528971,-0.2345091,1.735899,0.3797157,-0.2504035,1.701068,NA,NA,NotTracked,NotTracked,
0.9047852,0.7460938,0.3891602,0.9414063,-0.2978516,-0.1113281,-3,-5,11,-1,0,-6,-2,4,0,-1,-1,-1,-2,-1,-2,-1,-118.25,-118.25,-118.25,-3.0625,-3.0625,-3.0625,6.863966,3.603347,2.798429,1.912884,3.024866,4.858778,-0.032671,-0.5121409,1.6533,0.3320546,-0.4805806,1.535146,0.17532,0.3070447,1.75676,-0.07859479,-0.5201747,1.652265,0.3028851,-0.4697793,1.509511,0.1680313,-0.1465003,1.758298,0.1609019,-0.4610399,1.729017,-0.000667309,0.03021708,1.757103,0.08231492,-0.4505737,1.697566,-0.04528124,-0.2344787,1.735927,0.38119,-0.2474895,1.701176,NA,NA,NotTracked,NotTracked,
0.7192383,1.005859,0.5727539,0.9414063,-0.2978516,-0.1113281,1,14,-77,-26,1,2,1,1,0,-1,-1,-1,-2,-1,-2,-1,-39.1875,-39.1875,-39.1875,-3.0625,-3.0625,-3.0625,6.737507,3.995315,2.835526,1.912884,3.024866,4.858778,-0.03283057,-0.5129134,1.652604,0.3182137,-0.3999478,1.460473,0.1753259,0.3070613,1.756843,-0.07905598,-0.5209267,1.653581,0.2731555,-0.4023521,1.443206,0.1678319,-0.1465909,1.758442,0.1604301,-0.4610155,1.729126,-0.0006319386,0.03009527,1.757079,0.08175261,-0.4504921,1.697503,-0.04525214,-0.2344813,1.735872,0.3825655,-0.2147776,1.699845,NA,NA,NotTracked,Unknown,
0.4506836,0.9584961,0.6347656,0.9414063,-0.2978516,-0.1113281,4,7,9,1,3,3,0,6,0,-1,-1,-1,-2,-1,-2,-1,-52.0625,-52.0625,-52.0625,-3.0625,-3.0625,-3.0625,6.647275,4.478186,2.858873,1.912884,3.024866,4.858778,-0.03250969,-0.5147644,1.650207,0.3023008,-0.2774591,1.391171,0.1754935,0.3070138,1.757271,-0.07913012,-0.5216165,1.654242,0.2624651,-0.2641355,1.388,0.1676683,-0.1466821,1.758806,0.1600695,-0.4609143,1.729522,-0.0004735996,0.02988751,1.756873,0.0814423,-0.45044,1.697624,-0.04516566,-0.2343178,1.735482,0.3816304,-0.1929865,1.691851,NA,NA,NotTracked,Unknown,
0.2763672,0.9023438,0.6279297,0.9414063,-0.2978516,-0.1113281,-9,-9,-5,13,5,3,-1,-5,0,-1,-1,-1,-2,-1,-2,-1,-22.625,-22.625,-22.625,-3.0625,-3.0625,-3.0625,6.595584,4.9911,2.897188,1.912884,3.024866,4.858778,-0.03135561,-0.5111043,1.647463,0.289044,-0.1445417,1.368409,0.1756809,0.3068897,1.757501,-0.07716201,-0.528289,1.644357,0.2561478,-0.1247938,1.388909,0.1676888,-0.1468145,1.759135,0.159766,-0.4609303,1.729763,-2.925883E-05,0.02957649,1.756525,0.08105721,-0.4505103,1.697837,-0.04484481,-0.2339449,1.734468,0.4042442,-0.1740868,1.650848,NA,NA,NotTracked,Unknown,
-0.1083984,0.7495117,0.6220703,0.9414063,-0.2978516,-0.1113281,4,6,-15,1,1,1,-1,4,0,-1,-1,-1,-2,-1,-2,-1,-26.1875,-26.1875,-26.1875,-3.0625,-3.0625,-3.0625,6.56629,5.50546,2.9708,1.912884,3.024866,4.858778,-0.0309038,-0.5111418,1.645472,0.2793574,-0.01574135,1.39944,0.1762974,0.3067499,1.758087,-0.07608688,-0.520527,1.646385,0.2494141,0.01227879,1.420572,0.1679495,-0.1468743,1.759386,0.1599911,-0.460827,1.729819,0.0005561794,0.02937076,1.756169,0.08127402,-0.4506066,1.698045,-0.04453244,-0.2333432,1.733271,0.3814999,-0.1774012,1.600853,NA,NA,NotTracked,Closed,
-0.440918,0.5458984,0.4780273,0.9414063,-0.2978516,-0.1113281,-8,-9,-13,-7,-7,-2,0,-6,0,-1,-1,-1,-2,-1,-2,-1,-10.25,-10.25,-10.25,-3.0625,-3.0625,-3.0625,6.622342,6.143976,3.153059,1.912884,3.024866,4.858778,-0.03087279,-0.511106,1.645855,0.279938,0.06289726,1.456188,0.1763516,0.3067298,1.758078,-0.07490375,-0.5182976,1.645166,0.2550713,0.07102366,1.490333,0.1680024,-0.1474648,1.759566,0.1594209,-0.4620973,1.729679,0.001290128,0.02929196,1.756155,0.0803726,-0.4522879,1.6989,-0.04403295,-0.232999,1.732418,0.3781536,-0.1545175,1.575477,NA,NA,NotTracked,Closed,
-0.5161133,0.4604492,0.3969727,0.9414063,-0.2978516,-0.1113281,5,-1,-2,0,-10,-3,0,1,0,-1,-1,-1,-2,-1,-2,-1,-27.25,-27.25,-27.25,-3.0625,-3.0625,-3.0625,6.70471,6.429901,3.301121,1.912884,3.024866,4.858778,-0.0308268,-0.5114182,1.647546,0.2766896,0.1097425,1.503877,0.1762416,0.3067587,1.757863,-0.07670821,-0.5222815,1.64794,0.2872649,0.1687639,1.495786,0.1688257,-0.1463887,1.759248,0.1587262,-0.4616252,1.729105,0.003090698,0.02920945,1.756185,0.07941525,-0.451897,1.699252,-0.04287465,-0.22998,1.732091,0.3717471,-0.1295139,1.549051,NA,NA,NotTracked,Closed,
-0.7114258,0.3183594,0.2041016,0.9414063,-0.2978516,-0.1113281,0,19,16,-1,-23,-12,-1,-2,0,-1,-1,-1,-2,-1,-2,-1,-46,-46,-46,-3.0625,-3.0625,-3.0625,7.070781,6.854022,3.82953,1.912884,3.024866,4.858778,-0.03083111,-0.511786,1.64932,0.2529832,0.1771938,1.553657,0.1748722,0.3072586,1.757116,-0.07667166,-0.5219686,1.648324,0.2308092,0.1641084,1.578048,0.1702323,-0.1454459,1.758274,0.1582597,-0.4618435,1.728681,0.004933226,0.02881181,1.756148,0.07877649,-0.4522598,1.699677,-0.04247764,-0.2294806,1.732421,0.3614532,-0.105516,1.524789,NA,NA,NotTracked,Unknown,
-0.7241211,0.2602539,-0.2495117,0.9414063,-0.2978516,-0.1113281,-6,-3,5,-2,2,0,-2,-7,0,-1,-1,-1,-2,-1,-2,-1,-52.4375,-52.4375,-52.4375,-3.0625,-3.0625,-3.0625,7.787063,7.002697,4.729915,1.912884,3.024866,4.858778,-0.03096841,-0.5121322,1.651241,0.2533798,0.1640979,1.584941,0.173124,0.3073459,1.756324,-0.07728986,-0.5226358,1.649603,0.2345261,0.1395784,1.579474,0.1711812,-0.1450199,1.757387,0.1580384,-0.4620904,1.728289,0.005959427,0.02858397,1.756113,0.07843748,-0.4528587,1.700711,-0.04201286,-0.2294385,1.732736,0.3518181,-0.09120142,1.513437,NA,NA,NotTracked,Unknown,
-1.336914,0.2182617,-0.3554688,0.9414063,-0.2978516,-0.1113281,14,-1,2,9,3,5,7,8,0,-1,-1,-1,-2,-1,-2,-1,-58.8125,-58.8125,-58.8125,-3.0625,-3.0625,-3.0625,8.34308,6.990784,5.412912,1.912884,3.024866,4.858778,-0.03079338,-0.5119712,1.650143,0.2498854,0.1664662,1.612178,0.1710851,0.3074121,1.754796,-0.07667547,-0.5216125,1.650985,0.2311366,0.1527151,1.579077,0.1721075,-0.1442532,1.756337,0.1582085,-0.4618996,1.728133,0.006310144,0.02849352,1.756352,0.07896905,-0.4528616,1.701982,-0.04165505,-0.2295425,1.732851,0.3459424,-0.08270762,1.516502,NA,NA,NotTracked,Unknown,
-0.8374023,0.28125,-0.2353516,0.9414063,-0.2978516,-0.1113281,5,12,19,3,12,5,-3,-3,0,-1,-1,-1,-2,-1,-2,-1,-52.6875,-52.6875,-52.6875,-3.0625,-3.0625,-3.0625,8.597307,6.933067,5.785851,1.912884,3.024866,4.858778,-0.03031131,-0.5119535,1.6485,0.2392778,0.1757909,1.629781,0.1692187,0.3072027,1.753722,-0.07633947,-0.5244036,1.646615,0.1824161,0.2318758,1.635294,0.1727136,-0.1437743,1.755369,0.1588771,-0.4612179,1.727811,0.006401246,0.02822255,1.756531,0.08014134,-0.4526691,1.70311,-0.04117476,-0.2299788,1.732806,0.3406579,-0.07725888,1.517866,NA,NA,NotTracked,NotTracked,
-0.8554688,0.3066406,-0.2368164,0.9414063,-0.2978516,-0.1113281,-8,-3,-9,-6,23,10,0,-2,0,-1,-1,-1,-2,-1,-2,-1,-19.625,-19.625,-19.625,-3.0625,-3.0625,-3.0625,8.633422,6.906162,5.872911,1.912884,3.024866,4.858778,-0.03023449,-0.5116044,1.64887,0.2365548,0.1618656,1.625812,0.1682297,0.3069638,1.752838,-0.07394193,-0.5162477,1.650241,0.2170375,0.1750981,1.594933,0.1727596,-0.1438186,1.754915,0.1589946,-0.4611458,1.727737,0.006366279,0.02803825,1.756675,0.08057301,-0.452801,1.703982,-0.04081997,-0.2301214,1.732831,0.3380527,-0.07585628,1.517133,NA,NA,NotTracked,NotTracked,
-0.8896484,0.3520508,-0.2011719,0.9414063,-0.2978516,-0.1113281,-6,13,-7,-8,-3,-3,-2,-5,0,-1,-1,-1,-2,-1,-2,-1,-10.875,-10.875,-10.875,-3.0625,-3.0625,-3.0625,8.590982,6.898712,5.844777,1.912884,3.024866,4.858778,-0.0310703,-0.511228,1.648904,0.232181,0.1724152,1.632365,0.1677826,0.306398,1.751506,-0.07691502,-0.5224102,1.649865,0.1739264,0.2204873,1.627995,0.1726966,-0.1438079,1.754407,0.1590607,-0.4610804,1.727723,0.006184378,0.02774127,1.756836,0.08085068,-0.4529161,1.704856,-0.04060956,-0.2306144,1.73272,0.3366875,-0.07541868,1.517235,NA,NA,NotTracked,NotTracked,
-0.9458008,0.3125,-0.2045898,0.9414063,-0.2978516,-0.1113281,-2,-2,18,12,9,-1,0,-3,0,-1,-1,-1,-2,-1,-2,-1,1.25,1.25,1.25,-3.0625,-3.0625,-3.0625,8.545615,6.907613,5.810823,1.912884,3.024866,4.858778,-0.03197192,-0.5114996,1.650549,0.2326261,0.1714361,1.633139,0.1674619,0.3060313,1.750846,-0.07821648,-0.5138518,1.656222,0.179522,0.2350817,1.629111,0.1726529,-0.1439091,1.753422,0.1591368,-0.460993,1.72771,0.00599929,0.02760605,1.756867,0.08101279,-0.4529855,1.705374,-0.04078709,-0.2310669,1.73289,0.3354394,-0.07584059,1.51766,NA,NA,NotTracked,NotTracked,
-0.9428711,0.3100586,-0.2094727,0.9414063,-0.2978516,-0.1113281,-5,-9,-3,4,-5,-2,-2,-10,0,-1,-1,-1,-2,-1,-2,-1,4.5,4.5,4.5,-3.0625,-3.0625,-3.0625,8.529212,6.915428,5.787359,1.912884,3.024866,4.858778,-0.03243978,-0.5119837,1.652092,0.2312707,0.174585,1.635449,0.1674204,0.3056265,1.75051,-0.07743493,-0.5226923,1.650663,0.1740537,0.2154318,1.628429,0.1724466,-0.1440431,1.752677,0.1591395,-0.4609621,1.727761,0.00552546,0.02725706,1.757114,0.08101228,-0.453118,1.705837,-0.04095354,-0.2310353,1.733041,0.3344783,-0.07605825,1.517956,NA,NA,NotTracked,NotTracked,
-0.9467773,0.2988281,-0.203125,0.9414063,-0.2978516,-0.1113281,-8,-2,-12,-3,-6,-2,-2,-8,0,-1,-1,-1,-2,-1,-2,-1,3.0625,3.0625,3.0625,-3.0625,-3.0625,-3.0625,8.522079,6.917305,5.775475,1.912884,3.024866,4.858778,-0.03320455,-0.5118757,1.651436,0.234665,0.1620424,1.628606,0.1673397,0.3053691,1.749824,-0.07791644,-0.52065,1.653018,0.1703457,0.1997945,1.6302,0.1722065,-0.144042,1.752018,0.1590662,-0.4608143,1.727808,0.005362344,0.02726058,1.757194,0.08090833,-0.4530294,1.706147,-0.04102663,-0.231041,1.733108,0.3339184,-0.07638748,1.51848,NA,NA,NotTracked,NotTracked,
-0.9384766,0.2817383,-0.203125,0.9414063,-0.2978516,-0.1113281,2,-9,-26,-16,-2,1,0,5,0,-1,-1,-1,-2,-1,-2,-1,2.4375,2.4375,2.4375,-3.0625,-3.0625,-3.0625,8.514068,6.920449,5.762555,1.912884,3.024866,4.858778,-0.03387458,-0.5117834,1.650504,0.2311662,0.1716332,1.632191,0.1672824,0.3049968,1.749437,-0.08233571,-0.5271907,1.652733,0.1703516,0.2125885,1.626916,0.1720335,-0.1440882,1.752112,0.1590482,-0.4607882,1.727801,0.005123269,0.02723641,1.75725,0.08086868,-0.4530441,1.706204,-0.04131268,-0.2308476,1.73309,0.3328704,-0.07695741,1.518867,NA,NA,NotTracked,NotTracked,
-0.9575195,0.2866211,-0.1831055,0.9414063,-0.2978516,-0.1113281,-4,-3,2,4,1,5,2,1,0,-1,-1,-1,-2,-1,-2,-1,-0.25,-0.25,-0.25,-3.0625,-3.0625,-3.0625,8.476418,6.930181,5.727425,1.912884,3.024866,4.858778,-0.03318986,-0.5110699,1.650064,0.2309867,0.1718768,1.632736,0.1670752,0.3047592,1.749079,-0.07815364,-0.5187022,1.651875,0.1711923,0.2149882,1.625359,0.1717592,-0.144014,1.752127,0.1588897,-0.4606063,1.727761,0.004976186,0.02729927,1.757282,0.0807327,-0.4529566,1.706322,-0.04154214,-0.2306599,1.733052,0.3318405,-0.07734067,1.519197,NA,NA,NotTracked,NotTracked,
-0.9428711,0.2993164,-0.1889648,0.9414063,-0.2978516,-0.1113281,1,-8,-13,-5,1,1,-1,0,0,-1,-1,-1,-2,-1,-2,-1,-3.0625,-3.0625,-3.0625,-3.0625,-3.0625,-3.0625,8.471096,6.933421,5.726693,1.912884,3.024866,4.858778,-0.03343401,-0.511372,1.649223,0.229855,0.173301,1.632376,0.1668002,0.3045245,1.748805,-0.0790707,-0.5233754,1.64961,0.1770496,0.2274196,1.6228,0.1716766,-0.1439755,1.752134,0.1588451,-0.4605232,1.727771,0.004650372,0.02729527,1.757365,0.08066764,-0.4529325,1.706523,-0.04178787,-0.2306532,1.733136,0.3312249,-0.07781576,1.519556,NA,NA,NotTracked,NotTracked,
-0.9277344,0.3081055,-0.1928711,0.9414063,-0.2978516,-0.1113281,-5,-5,-1,1,-4,-3,0,-6,0,-1,-1,-1,-2,-1,-2,-1,-1.875,-1.875,-1.875,-3.0625,-3.0625,-3.0625,8.464104,6.931693,5.724215,1.912884,3.024866,4.858778,-0.03310927,-0.5123696,1.649396,0.2339331,0.1600711,1.624671,0.166682,0.3043032,1.748559,-0.07673785,-0.5235097,1.644278,0.217243,0.1770184,1.5965,0.1715357,-0.1439529,1.751804,0.158858,-0.4604595,1.727757,0.004212894,0.0271996,1.757466,0.08067297,-0.4529451,1.706613,-0.04193593,-0.2305744,1.733169,0.3305923,-0.0781197,1.519675,NA,NA,NotTracked,NotTracked,
-0.9399414,0.3041992,-0.1904297,0.9414063,-0.2978516,-0.1113281,-4,-9,-14,-2,-15,-11,-2,-1,0,-1,-1,-1,-2,-1,-2,-1,-0.625,-0.625,-0.625,-3.0625,-3.0625,-3.0625,8.449725,6.926266,5.71233,1.912884,3.024866,4.858778,-0.03292354,-0.5118786,1.650172,0.2274422,0.1736481,1.632243,0.1660588,0.3041549,1.748322,-0.07812243,-0.5211623,1.650284,0.1686819,0.2321857,1.624857,0.171334,-0.1439713,1.751528,0.1588019,-0.4604337,1.727754,0.003883508,0.02708568,1.75754,0.08062798,-0.4530128,1.706722,-0.04191655,-0.2307743,1.733198,0.3300861,-0.07825073,1.51987,NA,NA,NotTracked,NotTracked,
-0.9326172,0.2954102,-0.1762695,0.9414063,-0.2978516,-0.1113281,3,4,15,-1,-6,-2,-2,5,0,-1,-1,-1,-2,-1,-2,-1,0.3125,0.3125,0.3125,-3.0625,-3.0625,-3.0625,8.436039,6.926267,5.698418,1.912884,3.024866,4.858778,-0.03330047,-0.5124282,1.650593,0.2271234,0.1752882,1.630825,0.1656138,0.3041206,1.748143,-0.07861821,-0.5224103,1.651068,0.1664788,0.2230366,1.624236,0.1711693,-0.1439343,1.751571,0.1587639,-0.4603722,1.727714,0.003696317,0.02697617,1.757507,0.08057838,-0.4529945,1.706834,-0.0421489,-0.2307882,1.733401,0.3295838,-0.07824248,1.519867,NA,NA,NotTracked,NotTracked,
-0.9243164,0.3041992,-0.1801758,0.9414063,-0.2978516,-0.1113281,-12,12,9,-1,-8,-4,-4,-8,0,-1,-1,-1,-2,-1,-2,-1,3.6875,3.6875,3.6875,-3.0625,-3.0625,-3.0625,8.429014,6.929672,5.688708,1.912884,3.024866,4.858778,-0.0331041,-0.5121305,1.649087,0.2174185,0.1949663,1.638536,0.1651564,0.3040637,1.747832,-0.07842075,-0.5216519,1.650012,0.1657304,0.2553223,1.624846,0.1710295,-0.1438188,1.75153,0.15878,-0.4602851,1.727636,0.00332289,0.02685943,1.75739,0.08059515,-0.4529843,1.7068,-0.04200656,-0.2311836,1.733328,0.3292294,-0.0782574,1.51986,NA,NA,NotTracked,NotTracked,
-0.9262695,0.3208008,-0.1738281,0.9414063,-0.2978516,-0.1113281,-12,-12,-8,-2,-7,-3,-3,-3,0,-1,-1,-1,-2,-1,-2,-1,10.25,10.25,10.25,-3.0625,-3.0625,-3.0625,8.420642,6.939222,5.666502,1.912884,3.024866,4.858778,-0.03337152,-0.5117535,1.649276,0.2285632,0.1764157,1.630073,0.1646469,0.3040305,1.747379,-0.07885538,-0.522185,1.652259,0.2259236,0.1709023,1.65625,0.1709727,-0.1437331,1.751487,0.1588046,-0.4601809,1.727576,0.003170138,0.02679612,1.757354,0.08061258,-0.4529685,1.706791,-0.04238072,-0.2313152,1.733356,0.3288875,-0.0782216,1.519727,NA,NA,NotTracked,NotTracked,
-0.9423828,0.2905273,-0.1899414,0.9414063,-0.2978516,-0.1113281,1,15,2,0,0,1,1,0,0,-1,-1,-1,-2,-1,-2,-1,24.0625,24.0625,24.0625,-3.0625,-3.0625,-3.0625,8.424505,6.97481,5.629493,1.912884,3.024866,4.858778,-0.03334911,-0.5120541,1.649584,0.2386686,0.1701856,1.622971,0.1643845,0.3039745,1.747185,-0.07838819,-0.5226263,1.649791,0.2794911,0.1762435,1.613756,0.1709844,-0.1436254,1.751501,0.1587942,-0.4599705,1.727521,0.003063952,0.02681955,1.757247,0.08061358,-0.4528936,1.706739,-0.04243709,-0.2312898,1.733345,0.3283967,-0.07828216,1.519626,NA,NA,NotTracked,NotTracked,
-0.9379883,0.2832031,-0.1879883,0.9414063,-0.2978516,-0.1113281,9,2,8,-1,-5,-2,2,1,0,-1,-1,-1,-2,-1,-2,-1,25.5625,25.5625,25.5625,-3.0625,-3.0625,-3.0625,8.414395,6.988292,5.603742,1.912884,3.024866,4.858778,-0.03360298,-0.5130219,1.649508,0.2443705,0.1750292,1.618041,0.1641887,0.303937,1.747045,-0.07984206,-0.5241846,1.651509,0.2893767,0.1666425,1.601269,0.171062,-0.1432763,1.751653,0.1587682,-0.4596098,1.727531,0.003019776,0.02682269,1.757214,0.08060645,-0.452687,1.706727,-0.04263721,-0.2310441,1.733366,0.3281617,-0.07801317,1.519436,NA,NA,NotTracked,NotTracked,
-0.8271484,0.2583008,-0.1225586,0.9414063,-0.2978516,-0.1113281,-2,4,1,0,0,-2,2,11,0,-1,-1,-1,-2,-1,-2,-1,50.3125,50.3125,50.3125,-3.0625,-3.0625,-3.0625,8.123734,7.061972,5.185512,1.912884,3.024866,4.858778,-0.03344787,-0.5124175,1.649279,0.2587987,0.1646391,1.586458,0.1639107,0.3039595,1.746884,-0.07814413,-0.5233654,1.649077,0.2964422,0.174523,1.580812,0.1711474,-0.1429607,1.751696,0.1585189,-0.4592867,1.727316,0.002999035,0.02680293,1.757067,0.08014821,-0.4523552,1.706281,-0.04294575,-0.2301352,1.733325,0.3284381,-0.07943676,1.517331,NA,NA,NotTracked,NotTracked,
-0.8481445,0.2270508,0.01074219,0.9414063,-0.2978516,-0.1113281,-2,-1,1,-2,-1,0,-18,-8,0,-1,-1,-1,-2,-1,-2,-1,57.125,57.125,57.125,-3.0625,-3.0625,-3.0625,7.382513,7.016769,4.287177,1.912884,3.024866,4.858778,-0.03345358,-0.5121885,1.647955,0.2142949,0.2211794,1.611684,0.1636646,0.3041108,1.746822,-0.07845323,-0.5223925,1.647419,0.3027818,0.2939836,1.52103,0.1708355,-0.1429836,1.751963,0.1578232,-0.4591552,1.726963,0.002956481,0.02684574,1.756871,0.07900421,-0.4520867,1.705337,-0.04345312,-0.2287969,1.73311,0.3337807,-0.08678094,1.51836,NA,NA,NotTracked,Unknown,
-0.7758789,0.2802734,0.1069336,0.9414063,-0.2978516,-0.1113281,-2,3,3,-1,3,2,1,1,0,-1,-1,-1,-2,-1,-2,-1,35.125,35.125,35.125,-3.0625,-3.0625,-3.0625,6.871786,6.822419,3.663472,1.912884,3.024866,4.858778,-0.03340053,-0.5133939,1.64894,0.2623055,0.1377938,1.505568,0.1634332,0.3042995,1.746946,-0.07931477,-0.5249082,1.648219,0.2335967,0.1519067,1.528182,0.1704368,-0.1430114,1.752066,0.1570847,-0.4593212,1.726903,0.002940579,0.02690759,1.756775,0.07773834,-0.4521883,1.704512,-0.04373472,-0.2283113,1.733091,0.3438139,-0.105419,1.526651,NA,NA,NotTracked,Lasso,
-0.7299805,0.3764648,0.2763672,0.9414063,-0.2978516,-0.1113281,-1,1,0,0,-2,0,-2,0,0,-1,-1,-1,-2,-1,-2,-1,19.4375,19.4375,19.4375,-3.0625,-3.0625,-3.0625,6.604044,6.517787,3.312258,1.912884,3.024866,4.858778,-0.03299124,-0.5127423,1.648988,0.2665317,0.09474316,1.448484,0.1631011,0.3047581,1.747371,-0.08157663,-0.5318851,1.656429,0.2877187,0.1204735,1.431327,0.1697139,-0.1433317,1.753281,0.1569054,-0.4593163,1.726964,0.002190036,0.02694422,1.75738,0.07737927,-0.452096,1.704229,-0.04374982,-0.2276993,1.733297,0.3507767,-0.1273483,1.546188,NA,NA,NotTracked,Unknown,
-0.5581055,0.5253906,0.4165039,0.9414063,-0.2978516,-0.1113281,0,2,2,3,0,1,2,1,0,-1,-1,-1,-2,-1,-2,-1,34.6875,34.6875,34.6875,-3.0625,-3.0625,-3.0625,6.502151,6.14341,3.114094,1.912884,3.024866,4.858778,-0.03320996,-0.5126542,1.648367,0.2714834,0.01821807,1.396653,0.1630553,0.3048944,1.747789,-0.07903525,-0.5245514,1.649729,0.2441457,0.06354121,1.4228,0.1682213,-0.1461556,1.75509,0.1567132,-0.4612845,1.727482,0.000708459,0.02667734,1.757879,0.07739048,-0.4534406,1.703744,-0.04395278,-0.2307734,1.733057,0.3621955,-0.1576245,1.56564,NA,NA,NotTracked,Closed,
-0.2094727,0.6572266,0.5859375,0.9414063,-0.2978516,-0.1113281,-9,-4,-4,-4,-6,-4,-2,-6,0,-1,-1,-1,-2,-1,-2,-1,34.0625,34.0625,34.0625,-3.0625,-3.0625,-3.0625,6.504266,5.576449,2.951492,1.912884,3.024866,4.858778,-0.03276213,-0.5131401,1.648413,0.2841382,-0.08415301,1.361991,0.1630085,0.3050609,1.748253,-0.07900193,-0.5272744,1.650733,0.2937523,-0.04986373,1.3365,0.1679312,-0.1465863,1.755507,0.1568466,-0.4612408,1.727438,-0.0004870111,0.02596541,1.758288,0.07784732,-0.4533731,1.702596,-0.0442273,-0.23274,1.733042,0.3765199,-0.1819296,1.592544,NA,NA,NotTracked,Closed,
-0.03662109,0.7114258,0.6572266,0.9414063,-0.2978516,-0.1113281,2,1,-2,-3,-7,-1,0,2,0,-1,-1,-1,-2,-1,-2,-1,56.375,56.375,56.375,-3.0625,-3.0625,-3.0625,6.562416,5.140904,2.882521,1.912884,3.024866,4.858778,-0.03326582,-0.5134313,1.648697,0.2855806,-0.1810471,1.334839,0.1628659,0.305194,1.74876,-0.07899278,-0.5247298,1.650724,0.2667021,-0.1551479,1.328857,0.1674068,-0.1471054,1.756203,0.1567439,-0.4613546,1.727584,-0.001269901,0.02566192,1.758596,0.07778278,-0.4533239,1.702065,-0.04438922,-0.2336776,1.733364,0.4121364,-0.1779843,1.603189,NA,NA,NotTracked,Closed,
0.2324219,0.8964844,0.6557617,0.9414063,-0.2978516,-0.1113281,-3,2,2,0,-45,-20,-3,-6,0,-1,-1,-1,-2,-1,-2,-1,47.5625,47.5625,47.5625,-3.0625,-3.0625,-3.0625,6.698791,4.583283,2.843885,1.912884,3.024866,4.858778,-0.03280144,-0.5137362,1.650018,0.2992143,-0.2992093,1.37016,0.1626378,0.3054251,1.749366,-0.07865705,-0.5251684,1.650371,0.2828703,-0.2757463,1.336406,0.1670784,-0.147332,1.756554,0.1566481,-0.4613406,1.727578,-0.002092742,0.02551518,1.759027,0.07761844,-0.4530634,1.701367,-0.04443419,-0.2347499,1.733582,0.380995,-0.1743387,1.651408,NA,NA,NotTracked,Unknown,
0.5883789,0.8359375,0.5620117,0.9414063,-0.2978516,-0.1113281,4,-3,-5,-1,10,10,3,6,0,-1,-1,-1,-2,-1,-2,-1,70.75,70.75,70.75,-3.0625,-3.0625,-3.0625,6.803967,4.175254,2.817968,1.912884,3.024866,4.858778,-0.03285252,-0.5126567,1.649071,0.3148958,-0.4030083,1.425536,0.1624887,0.3054405,1.749505,-0.07905342,-0.5216251,1.652285,0.270194,-0.3983998,1.402951,0.1667997,-0.147606,1.75652,0.156525,-0.4617045,1.727158,-0.002770678,0.02506624,1.759326,0.07745993,-0.453283,1.699805,-0.04457846,-0.2351675,1.733574,0.4166182,-0.2039031,1.631639,NA,NA,NotTracked,Unknown,
0.8032227,0.8227539,0.4160156,0.9414063,-0.2978516,-0.1113281,-2,4,-2,-1,-1,1,0,2,0,-1,-1,-1,-2,-1,-2,-1,41.0625,41.0625,41.0625,-3.0625,-3.0625,-3.0625,6.930961,3.831892,2.75445,1.912884,3.024866,4.858778,-0.03263633,-0.5128851,1.648639,0.3326939,-0.4650203,1.489763,0.1620387,0.3056337,1.749719,-0.07701153,-0.5242503,1.645343,0.2976359,-0.4662067,1.460027,0.166797,-0.1479184,1.756439,0.1573214,-0.4624801,1.726523,-0.003739493,0.02453348,1.759559,0.07853459,-0.4538036,1.698156,-0.04463558,-0.2362464,1.733568,0.3857913,-0.2184931,1.661096,NA,NA,NotTracked,Lasso,
0.9345703,0.8188477,0.1821289,0.9414063,-0.2978516,-0.1113281,10,-1,2,0,-1,-1,-1,10,0,-1,-1,-1,-2,-1,-2,-1,31.4375,31.4375,31.4375,-3.0625,-3.0625,-3.0625,7.128389,3.458161,2.658849,1.912884,3.024866,4.858778,-0.03267682,-0.5127185,1.649091,0.3438156,-0.5116314,1.550933,0.1617406,0.3056983,1.749801,-0.07848524,-0.5246642,1.650176,0.3039879,-0.518356,1.535441,0.1670578,-0.1482251,1.75634,0.1586959,-0.4631107,1.72601,-0.004194301,0.02445034,1.759766,0.08017561,-0.4541262,1.696982,-0.04446359,-0.2374764,1.733414,0.3787642,-0.229431,1.668364,NA,NA,NotTracked,Unknown,
0.6899414,1.259277,-0.1391602,0.9414063,-0.2978516,-0.1113281,4,26,7,9,14,16,6,1,0,-1,-1,-1,-2,-1,-2,-1,101.6875,101.6875,101.6875,-3.0625,-3.0625,-3.0625,7.233391,3.303834,2.58988,1.912884,3.024866,4.858778,-0.03212621,-0.5121608,1.648613,0.3386788,-0.52593,1.602359,0.1613454,0.3057166,1.749565,-0.07690054,-0.5269234,1.645677,0.2994513,-0.4982212,1.604535,0.1672343,-0.1484054,1.756089,0.1594203,-0.4633859,1.725571,-0.00474464,0.0242941,1.760198,0.08094313,-0.4542927,1.696226,-0.04443876,-0.2378231,1.7335,0.3737116,-0.2392457,1.676848,NA,NA,NotTracked,Closed,
