ALX,ALY,ALZ,ARX,ARY,ARZ,EMG0L,EMG1L,EMG2L,EMG3L,EMG4L,EMG5L,EMG6L,EMG7L,EMG0R,EMG1R,EMG2R,EMG3R,EMG4R,EMG5R,EMG6R,EMG7R,GLX,GLY,GLZ,GRX,GRY,GRZ,ORL,OPL,OYL,ORR,OPR,OYR,LHNX,LHNY,LHNZ,RHNX,RHNY,RHNZ,HX,HY,HZ,LTX,LTY,LTZ,RTX,RTY,RTZ,SpineMidX,SpineMidY,SpineMidZ,SpineBaseX,SpineBaseY,SpineBaseZ,ShoulderLeftX,ShoulderLeftY,ShoulderLeftZ,ShoulderRightX,ShoulderRightY,ShoulderRightZ,ElbowLeftX,ElbowLeftY,ElbowLeftZ,ElbowRightX,ElbowRightY,ElbowRightZ,Myo_Pose_left,Myo_Pose_Right,Kinect_pose_left,Kinect_pose_right
0.9243164,0.2949219,0.1176758,0.9350586,-0.3334961,0.09179688,-1,0,1,1,0,-5,0,1,-1,-2,2,0,0,-3,-1,-1,3.125,3.125,3.125,-3.0625,-3.0625,-3.0625,6.898025,3.024225,5.222412,2.98388,3.078609,4.052651,-0.1522055,-0.3938624,1.433067,0.2441808,-0.4021607,1.41326,0.05600482,0.4486865,1.526685,-0.1241707,-0.4056674,1.394405,0.2005593,-0.3832791,1.394468,0.05214093,-0.008445454,1.540489,0.05398578,-0.319739,1.520707,-0.1323373,0.1720166,1.541316,-0.02282749,-0.3120541,1.486906,-0.1696407,-0.1062237,1.53589,0.2699146,-0.09841996,1.516491,NA,NA,NotTracked,NotTracked,
0.9316406,0.2954102,0.1225586,0.9350586,-0.3334961,0.09179688,-1,-2,-3,-2,0,2,-1,-1,-1,-2,2,0,0,-3,-1,-1,1.5625,1.5625,1.5625,-3.0625,-3.0625,-3.0625,6.900311,3.024355,5.223694,2.98388,3.078609,4.052651,-0.1502254,-0.4043864,1.428719,0.2447377,-0.4023418,1.412879,0.05584603,0.4486504,1.526386,-0.1234709,-0.4155223,1.391315,0.2003948,-0.3844429,1.394523,0.05204243,-0.00843934,1.54042,0.05390624,-0.3197554,1.520625,-0.1323961,0.1720033,1.541254,-0.02290312,-0.3120538,1.4868,-0.1696747,-0.1061761,1.535878,0.2699155,-0.09845057,1.516378,NA,NA,NotTracked,NotTracked,
0.9233398,0.2998047,0.1083984,0.9350586,-0.3334961,0.09179688,1,2,1,1,-3,1,0,-2,-1,-2,2,0,0,-3,-1,-1,2.75,2.75,2.75,-3.0625,-3.0625,-3.0625,6.905294,3.024386,5.223822,2.98388,3.078609,4.052651,-0.1509989,-0.3968846,1.431857,0.2445016,-0.4021193,1.413184,0.05568788,0.4486226,1.526339,-0.1188884,-0.3990512,1.3991,0.2001755,-0.3856161,1.394588,0.05199019,-0.008467156,1.540357,0.05389044,-0.3197654,1.520599,-0.1324245,0.1719238,1.541212,-0.02291657,-0.3120674,1.486786,-0.169631,-0.1064342,1.536015,0.2699334,-0.09842989,1.516207,NA,NA,NotTracked,NotTracked,
0.9287109,0.2924805,0.1171875,0.9350586,-0.3334961,0.09179688,-1,0,-1,-6,1,-3,-1,0,-1,-2,2,0,0,-3,-1,-1,3.8125,3.8125,3.8125,-3.0625,-3.0625,-3.0625,6.908534,3.022957,5.225318,2.98388,3.078609,4.052651,-0.151633,-0.3972632,1.432355,0.2443982,-0.4018528,1.413324,0.05552039,0.4485971,1.526294,-0.1218162,-0.4071931,1.394958,0.200397,-0.3837899,1.394597,0.05194812,-0.008500635,1.540237,0.05387991,-0.3198116,1.520465,-0.1324955,0.1717692,1.541175,-0.02294013,-0.3121224,1.486646,-0.1696425,-0.1066141,1.536063,0.2698148,-0.09867099,1.515828,NA,NA,NotTracked,NotTracked,
0.9272461,0.2866211,0.1142578,0.9350586,-0.3334961,0.09179688,-1,-1,-1,0,0,-1,-2,1,-1,-2,2,0,0,-3,-1,-1,1.375,1.375,1.375,-3.0625,-3.0625,-3.0625,6.911265,3.021788,5.226051,2.98388,3.078609,4.052651,-0.1513866,-0.3974083,1.431527,0.2448702,-0.4020992,1.412214,0.05535337,0.4486082,1.526275,-0.1202466,-0.4028692,1.397406,0.199471,-0.4034481,1.392678,0.05186721,-0.008499607,1.540174,0.05380981,-0.3198394,1.52037,-0.1325197,0.1717745,1.541177,-0.02299385,-0.3121464,1.486605,-0.1696446,-0.106608,1.536084,0.2697948,-0.09871995,1.515251,NA,NA,NotTracked,NotTracked,
0.9550781,0.3603516,0.1611328,0.9350586,-0.3334961,0.09179688,-3,-1,-3,-5,-1,0,0,-1,-1,-2,2,0,0,-3,-1,-1,11.125,11.125,11.125,-3.0625,-3.0625,-3.0625,6.912659,3.023283,5.237463,2.98388,3.078609,4.052651,-0.1516668,-0.3932798,1.433019,0.2441573,-0.4020056,1.411936,0.05511533,0.4486383,1.526251,-0.1209549,-0.3988603,1.397771,0.2001962,-0.3878116,1.39345,0.05185199,-0.008496212,1.540134,0.05376489,-0.3198537,1.520295,-0.132524,0.1717639,1.541178,-0.02302612,-0.3121554,1.486563,-0.1695772,-0.106584,1.53612,0.2698433,-0.09873445,1.514831,NA,NA,NotTracked,NotTracked,
0.940918,0.4863281,0.1269531,0.9350586,-0.3334961,0.09179688,4,12,12,-7,-8,2,2,2,-1,-2,2,0,0,-3,-1,-1,7.1875,7.1875,7.1875,-3.0625,-3.0625,-3.0625,6.892154,3.058917,5.2851,2.98388,3.078609,4.052651,-0.1522157,-0.3934686,1.433217,0.2422246,-0.4007318,1.405925,0.05493796,0.4486417,1.526273,-0.1246417,-0.403859,1.395004,0.1985099,-0.3889108,1.3922,0.05185594,-0.00850777,1.54012,0.05368749,-0.3198758,1.520208,-0.132606,0.1716874,1.54131,-0.02309778,-0.312166,1.486505,-0.1695863,-0.1065001,1.536231,0.2698377,-0.09818211,1.514082,NA,NA,NotTracked,NotTracked,
1.009766,0.546875,0.4316406,0.9350586,-0.3334961,0.09179688,-4,4,0,-29,-8,3,-1,-6,-1,-2,2,0,0,-3,-1,-1,41.5,41.5,41.5,-3.0625,-3.0625,-3.0625,6.765625,3.180438,5.455462,2.98388,3.078609,4.052651,-0.1526195,-0.3933915,1.433254,0.2236319,-0.387543,1.382693,0.05487188,0.448657,1.526328,-0.112691,-0.3833087,1.406595,0.1868532,-0.359513,1.394001,0.05170801,-0.008494861,1.540127,0.05300229,-0.3198656,1.520104,-0.1326723,0.1716741,1.541429,-0.02382975,-0.3119771,1.486441,-0.1697045,-0.1063172,1.536296,0.2693982,-0.09397185,1.5096,NA,NA,NotTracked,NotTracked,
0.9614258,0.6791992,0.581543,0.9350586,-0.3334961,0.09179688,12,5,-16,8,-15,-4,-8,-12,-1,-2,2,0,0,-3,-1,-1,97.25,97.25,97.25,-3.0625,-3.0625,-3.0625,6.667294,3.417622,5.723751,2.98388,3.078609,4.052651,-0.1524619,-0.3927484,1.432748,0.1626903,-0.3524775,1.330978,0.05495883,0.4486683,1.526499,-0.1250749,-0.4062664,1.39358,0.1428685,-0.3471058,1.297402,0.05146106,-0.008447345,1.540131,0.05151931,-0.3197493,1.519904,-0.1326573,0.1714887,1.541602,-0.02566534,-0.3113259,1.486301,-0.1697111,-0.1061442,1.536481,0.2685319,-0.06338999,1.494093,NA,NA,NotTracked,Unknown,
0.8344727,0.8598633,0.6499023,0.9350586,-0.3334961,0.09179688,-2,-3,-2,-7,-4,3,-5,-11,-1,-2,2,0,0,-3,-1,-1,142.5,142.5,142.5,-3.0625,-3.0625,-3.0625,6.638091,3.786054,6.029085,2.98388,3.078609,4.052651,-0.1515364,-0.3924708,1.432671,0.07220051,-0.2456823,1.313655,0.05533521,0.448622,1.526885,-0.1225404,-0.4021015,1.394855,0.08469818,-0.2231276,1.258685,0.05164677,-0.008505981,1.540538,0.05178117,-0.3198262,1.520556,-0.1324641,0.1715009,1.541826,-0.02511611,-0.3114553,1.487205,-0.1696495,-0.1061138,1.536492,0.2687611,-0.0574742,1.471431,NA,NA,NotTracked,Unknown,
0.6025391,0.8886719,0.7143555,0.9350586,-0.3334961,0.09179688,8,4,-11,7,0,0,0,5,-1,-2,2,0,0,-3,-1,-1,91.125,91.125,91.125,-3.0625,-3.0625,-3.0625,6.654453,4.232353,6.324039,2.98388,3.078609,4.052651,-0.1469238,-0.4103093,1.425343,-0.01681489,-0.1340331,1.27383,0.05663055,0.4485328,1.527995,-0.1192209,-0.4120801,1.391553,-0.005627411,-0.1148006,1.235391,0.05227159,-0.008326743,1.541176,0.05311215,-0.3193898,1.520998,-0.1316585,0.1712834,1.542226,-0.02248046,-0.3112096,1.487967,-0.1707415,-0.08369345,1.53985,0.2611424,-0.04477957,1.415132,NA,NA,NotTracked,Unknown,
0.3071289,0.7255859,0.6337891,0.9350586,-0.3334961,0.09179688,-5,2,1,14,5,-2,-3,1,-1,-2,2,0,0,-3,-1,-1,56.875,56.875,56.875,-3.0625,-3.0625,-3.0625,6.672915,4.67774,6.583783,2.98388,3.078609,4.052651,-0.1469531,-0.4217523,1.419412,-0.06342088,-0.01398375,1.270462,0.0589086,0.4486951,1.529713,-0.1188285,-0.4215465,1.385907,-0.07805651,0.01087315,1.242649,0.05428687,-0.00687691,1.54275,0.0548595,-0.3170023,1.52247,-0.1290998,0.1723821,1.543209,-0.01959633,-0.3083011,1.490802,-0.1602444,-0.1455983,1.520169,0.2312631,-0.0230103,1.367606,NA,NA,NotTracked,Unknown,
0.2431641,0.6821289,0.5449219,0.9350586,-0.3334961,0.09179688,-8,-5,-4,32,-6,-4,1,-1,-1,-2,2,0,0,-3,-1,-1,46.0625,46.0625,46.0625,-3.0625,-3.0625,-3.0625,6.70554,4.938517,6.722779,2.98388,3.078609,4.052651,-0.1470635,-0.397701,1.427536,-0.1073553,0.07584636,1.285231,0.06222982,0.4482978,1.531748,-0.1203202,-0.4054323,1.389528,-0.0907193,0.09157871,1.254694,0.05474892,-0.006191478,1.54327,0.05540252,-0.3150948,1.52332,-0.1283102,0.1772593,1.544876,-0.01851207,-0.3059925,1.493827,-0.1633561,-0.1187735,1.530912,0.2091382,-0.01112654,1.348303,NA,NA,NotTracked,Unknown,
0.1308594,0.6450195,0.3984375,0.9350586,-0.3334961,0.09179688,-15,-8,-11,1,7,1,1,-23,-1,-2,2,0,0,-3,-1,-1,23.3125,23.3125,23.3125,-3.0625,-3.0625,-3.0625,6.80809,5.372853,6.968306,2.98388,3.078609,4.052651,-0.1484847,-0.3918552,1.431775,-0.131972,0.1338531,1.300422,0.06515288,0.4483941,1.533385,-0.1190016,-0.4044611,1.392885,-0.09515372,0.1417023,1.265877,0.05457737,-0.005774608,1.542987,0.05533164,-0.3138527,1.523468,-0.1251595,0.1835174,1.546806,-0.01859999,-0.304577,1.495644,-0.1639262,-0.1103265,1.53554,0.1960388,0.0001974242,1.333515,NA,NA,NotTracked,Unknown,
0.03613281,0.6831055,0.355957,0.9350586,-0.3334961,0.09179688,-25,14,15,-7,8,-4,-5,-5,-1,-2,2,0,0,-3,-1,-1,13.4375,13.4375,13.4375,-3.0625,-3.0625,-3.0625,6.861969,5.49364,7.073163,2.98388,3.078609,4.052651,-0.1487181,-0.3936432,1.433497,-0.1227335,0.159451,1.309401,0.06733035,0.4481891,1.534413,-0.1123531,-0.3898377,1.404827,-0.1264376,0.195136,1.296389,0.05447805,-0.005656488,1.542862,0.05519028,-0.3136036,1.523596,-0.1252131,0.1810538,1.548261,-0.0190632,-0.3045318,1.497287,-0.1640596,-0.09675204,1.54164,0.1809369,0.01158132,1.322431,NA,NA,NotTracked,Lasso,
-0.2993164,0.7651367,0.3222656,0.9350586,-0.3334961,0.09179688,14,6,-3,11,2,0,0,12,-1,-2,2,0,0,-3,-1,-1,9.5,9.5,9.5,-3.0625,-3.0625,-3.0625,6.917766,5.602125,7.187714,2.98388,3.078609,4.052651,-0.1499896,-0.3988708,1.434494,-0.1191246,0.1744628,1.31531,0.06854503,0.4480071,1.534927,-0.1065814,-0.3782869,1.412889,-0.1111272,0.1984283,1.290657,0.05438931,-0.005622882,1.542741,0.05503742,-0.3135922,1.523691,-0.1272579,0.1745761,1.549233,-0.0197422,-0.3051959,1.498835,-0.1640938,-0.08835003,1.5459,0.1768795,0.01535326,1.318668,NA,NA,NotTracked,Unknown,
-0.315918,0.8144531,0.3212891,0.9350586,-0.3334961,0.09179688,-6,-5,3,6,-1,-3,-7,-23,-1,-2,2,0,0,-3,-1,-1,8.375,8.375,8.375,-3.0625,-3.0625,-3.0625,6.935258,5.626958,7.209095,2.98388,3.078609,4.052651,-0.1511419,-0.3983531,1.435247,-0.1188006,0.1840571,1.317657,0.06902285,0.4478927,1.535187,-0.1083771,-0.3806221,1.412443,-0.1250079,0.2278659,1.301625,0.05462149,-0.005829049,1.543056,0.05491481,-0.313862,1.523691,-0.1292271,0.1706098,1.549636,-0.02012779,-0.3062913,1.499716,-0.1639609,-0.08589399,1.547101,0.1732811,0.0185327,1.315495,NA,NA,NotTracked,Unknown,
-0.3369141,0.8515625,0.3110352,0.9350586,-0.3334961,0.09179688,-4,-4,-7,4,-2,1,3,15,-1,-2,2,0,0,-3,-1,-1,3.8125,3.8125,3.8125,-3.0625,-3.0625,-3.0625,6.948162,5.659829,7.217499,2.98388,3.078609,4.052651,-0.1510991,-0.3981212,1.435096,-0.1407764,0.2055147,1.329112,0.0692445,0.4477581,1.535302,-0.1128153,-0.3889732,1.406933,-0.1743696,0.2605784,1.320353,0.05462522,-0.005889871,1.543083,0.05484402,-0.3139056,1.523702,-0.1300842,0.1689175,1.54937,-0.02030838,-0.3065996,1.499997,-0.1638297,-0.08454113,1.547673,0.172565,0.01890404,1.315066,NA,NA,NotTracked,Unknown,
-0.3808594,0.8251953,0.3208008,0.9350586,-0.3334961,0.09179688,-1,2,-1,5,3,-1,12,3,-1,-2,2,0,0,-3,-1,-1,-0.625,-0.625,-0.625,-3.0625,-3.0625,-3.0625,6.94289,5.675667,7.207582,2.98388,3.078609,4.052651,-0.1508062,-0.3974154,1.43401,-0.1406835,0.2100596,1.329234,0.06931322,0.4477622,1.535405,-0.1213104,-0.4006306,1.400195,-0.1552287,0.2552598,1.314292,0.05499067,-0.005798283,1.543505,0.05481584,-0.3139029,1.523695,-0.1306848,0.1676345,1.549198,-0.02037119,-0.3066545,1.500083,-0.16359,-0.0841317,1.547728,0.1723833,0.0188072,1.314895,NA,NA,NotTracked,Lasso,
-0.4003906,0.8676758,0.3598633,0.9350586,-0.3334961,0.09179688,12,0,-4,4,-1,1,4,4,-1,-2,2,0,0,-3,-1,-1,9.1875,9.1875,9.1875,-3.0625,-3.0625,-3.0625,6.9446,5.681453,7.180804,2.98388,3.078609,4.052651,-0.1509625,-0.3945764,1.435425,-0.1565591,0.2163876,1.337196,0.06932053,0.4477587,1.535442,-0.1204186,-0.4015346,1.400344,-0.1880404,0.1615823,1.377895,0.0550318,-0.005910581,1.543519,0.05483761,-0.3140783,1.523716,-0.1314857,0.1661823,1.548757,-0.0203878,-0.307109,1.500279,-0.1635381,-0.0840177,1.547704,0.1721792,0.01903604,1.314606,NA,NA,NotTracked,Unknown,
-0.1518555,0.9477539,0.2568359,0.9350586,-0.3334961,0.09179688,-9,-2,3,1,3,1,-10,-2,-1,-2,2,0,0,-3,-1,-1,21.8125,21.8125,21.8125,-3.0625,-3.0625,-3.0625,6.951225,5.646966,7.133886,2.98388,3.078609,4.052651,-0.1504713,-0.3936382,1.435237,-0.1468261,0.2127025,1.330301,0.06914517,0.4477608,1.535508,-0.1185208,-0.3985799,1.401314,-0.1783555,0.162409,1.372076,0.05507824,-0.005989605,1.543482,0.05488567,-0.3141476,1.523716,-0.1326413,0.1632515,1.547347,-0.02034416,-0.3073515,1.500226,-0.1633213,-0.08383764,1.54761,0.1727532,0.01929215,1.314103,NA,NA,NotTracked,Lasso,
0.08691406,1.07373,0.1962891,0.9350586,-0.3334961,0.09179688,-1,-5,-9,-23,-14,4,-1,1,-1,-2,2,0,0,-3,-1,-1,33.25,33.25,33.25,-3.0625,-3.0625,-3.0625,7.002174,5.588909,7.084931,2.98388,3.078609,4.052651,-0.151511,-0.3921271,1.434194,-0.1039862,0.2006751,1.312406,0.06851791,0.4477904,1.535421,-0.1207888,-0.3944591,1.398664,-0.1563809,0.1855105,1.327349,0.054791,-0.006124075,1.542927,0.05511945,-0.3144996,1.523529,-0.1323963,0.1618165,1.545104,-0.02013572,-0.3081926,1.49914,-0.1632466,-0.08339433,1.54746,0.1779901,0.02226494,1.310054,NA,NA,NotTracked,Unknown,
-0.01904297,1.105957,0.3447266,0.9350586,-0.3334961,0.09179688,4,-3,-9,7,7,1,-4,-1,-1,-2,2,0,0,-3,-1,-1,58.6875,58.6875,58.6875,-3.0625,-3.0625,-3.0625,7.050925,5.547929,6.966752,2.98388,3.078609,4.052651,-0.1522575,-0.3909232,1.434054,-0.02009896,0.182245,1.286744,0.06608176,0.4480214,1.535938,-0.1244565,-0.4055198,1.391527,-0.06613077,0.1620425,1.313917,0.05468871,-0.006725688,1.542197,0.05592919,-0.3170715,1.522553,-0.1322086,0.1616196,1.543725,-0.01982672,-0.3114408,1.495058,-0.1637657,-0.08498651,1.546831,0.2183066,0.01524172,1.312162,NA,NA,NotTracked,Closed,
-0.04101563,0.9189453,0.6362305,0.9350586,-0.3334961,0.09179688,-10,-6,-4,-27,-10,-6,19,-22,-1,-2,2,0,0,-3,-1,-1,75.5625,75.5625,75.5625,-3.0625,-3.0625,-3.0625,7.085945,5.585562,6.667036,2.98388,3.078609,4.052651,-0.1518147,-0.3896691,1.435094,0.04838188,0.1844573,1.272974,0.05926727,0.4493818,1.535843,-0.1154236,-0.3895604,1.403036,0.01525156,0.1672319,1.270438,0.05443485,-0.007548554,1.540938,0.05544632,-0.3209601,1.521308,-0.1334053,0.1647161,1.545003,-0.02107263,-0.31504,1.493108,-0.1664226,-0.09380203,1.544604,0.2699068,0.01798018,1.320792,NA,NA,NotTracked,Unknown,
-0.5209961,0.6762695,0.4902344,0.9350586,-0.3334961,0.09179688,21,2,-5,-34,0,-7,-15,12,-1,-2,2,0,0,-3,-1,-1,94.6875,94.6875,94.6875,-3.0625,-3.0625,-3.0625,7.120887,5.630106,6.381971,2.98388,3.078609,4.052651,-0.1540405,-0.3920841,1.438635,0.10497,0.1947603,1.269477,0.049329,0.4515166,1.536046,-0.1094914,-0.3661164,1.414172,0.066713,0.1731604,1.27915,0.04679396,-0.008413493,1.537837,0.05282346,-0.3227317,1.520691,-0.135652,0.1676849,1.547522,-0.02441451,-0.3165959,1.493871,-0.1684525,-0.09980405,1.545219,0.3109782,0.02680062,1.333056,NA,NA,NotTracked,Closed,
-0.6723633,0.6171875,0.5615234,0.9350586,-0.3334961,0.09179688,-3,6,0,15,0,-2,1,9,-1,-2,2,0,0,-3,-1,-1,75.375,75.375,75.375,-3.0625,-3.0625,-3.0625,7.151916,5.646039,6.113554,2.98388,3.078609,4.052651,-0.1566246,-0.3889579,1.440902,0.1377058,0.2019839,1.27095,0.04352015,0.4513498,1.534921,-0.112242,-0.3702014,1.416625,0.08729224,0.1778705,1.279294,0.04314904,-0.008992983,1.537957,0.0498646,-0.3246631,1.519864,-0.1372852,0.1675737,1.548931,-0.02740302,-0.3179754,1.49405,-0.1696869,-0.1018402,1.545724,0.3566918,0.02358569,1.361909,NA,NA,NotTracked,Unknown,
-0.7529297,0.6337891,0.4038086,0.9350586,-0.3334961,0.09179688,-5,-5,-10,-14,-8,-4,-4,-17,-1,-2,2,0,0,-3,-1,-1,41.6875,41.6875,41.6875,-3.0625,-3.0625,-3.0625,7.153605,5.673965,5.860575,2.98388,3.078609,4.052651,-0.1586444,-0.38881,1.441275,0.1661962,0.2018192,1.272757,0.04072093,0.451166,1.533406,-0.1135112,-0.3627582,1.416158,0.1159364,0.1782192,1.277091,0.04273914,-0.009069447,1.537996,0.04887813,-0.3249808,1.519295,-0.1375871,0.1672981,1.548877,-0.02842538,-0.3180968,1.493566,-0.1704826,-0.1035131,1.545764,0.3760355,0.02261989,1.385136,NA,NA,NotTracked,Unknown,
-0.6748047,0.7011719,0.3022461,0.9350586,-0.3334961,0.09179688,6,3,7,29,0,-1,-7,7,-1,-2,2,0,0,-3,-1,-1,23.5,23.5,23.5,-3.0625,-3.0625,-3.0625,7.132248,5.716116,5.744561,2.98388,3.078609,4.052651,-0.1576975,-0.3882582,1.439558,0.1856595,0.2000774,1.272579,0.03948523,0.4509884,1.532368,-0.1159004,-0.3707223,1.412971,0.1524939,0.1801712,1.256688,0.04270198,-0.009101388,1.538063,0.04844385,-0.3249001,1.518964,-0.1378358,0.1675833,1.548635,-0.02895839,-0.3177803,1.492897,-0.1710204,-0.1041665,1.545417,0.3843159,0.02240972,1.397119,NA,NA,NotTracked,Unknown,
-0.6010742,0.7866211,0.2792969,0.9350586,-0.3334961,0.09179688,2,-5,-3,-23,-4,-1,2,5,-1,-2,2,0,0,-3,-1,-1,-1.9375,-1.9375,-1.9375,-3.0625,-3.0625,-3.0625,7.104486,5.752689,5.680992,2.98388,3.078609,4.052651,-0.157132,-0.3851996,1.437158,0.1913113,0.1986443,1.270089,0.03914612,0.4505268,1.531506,-0.1160796,-0.3637725,1.410909,0.1419213,0.1767485,1.266527,0.04270093,-0.009219212,1.53812,0.04840324,-0.3249049,1.518685,-0.1381965,0.1673917,1.547776,-0.02899301,-0.3175614,1.491885,-0.1713445,-0.1046232,1.544576,0.3866397,0.02030547,1.402827,NA,NA,NotTracked,Unknown,
-0.4916992,0.8579102,0.2729492,0.9350586,-0.3334961,0.09179688,6,-3,-8,-7,2,0,9,1,-1,-2,2,0,0,-3,-1,-1,-9.6875,-9.6875,-9.6875,-3.0625,-3.0625,-3.0625,7.068791,5.777036,5.642621,2.98388,3.078609,4.052651,-0.1569015,-0.3828477,1.435823,0.1933808,0.1973081,1.270526,0.03919479,0.4503885,1.531227,-0.1281534,-0.4009373,1.393,0.143613,0.176447,1.26649,0.04282214,-0.009461558,1.538337,0.04835925,-0.3249671,1.518496,-0.1382744,0.167247,1.547207,-0.02906434,-0.3174928,1.491254,-0.1715975,-0.1045093,1.543605,0.3874176,0.01839668,1.40505,NA,NA,NotTracked,Unknown,
-0.4819336,0.8754883,0.2661133,0.9350586,-0.3334961,0.09179688,-17,-7,1,9,-11,-2,7,-21,-1,-2,2,0,0,-3,-1,-1,-9,-9,-9,-3.0625,-3.0625,-3.0625,7.052744,5.781682,5.635543,2.98388,3.078609,4.052651,-0.1561885,-0.3867487,1.432845,0.1933611,0.1950908,1.269581,0.03955006,0.4501034,1.530867,-0.1265895,-0.4023824,1.389125,0.142718,0.1754455,1.26642,0.04307369,-0.009704275,1.538409,0.04838761,-0.325146,1.518142,-0.1382114,0.1671347,1.546447,-0.02898937,-0.3175323,1.49029,-0.171758,-0.1048985,1.541846,0.3872679,0.01592255,1.405669,NA,NA,NotTracked,Unknown,
-0.4052734,0.8081055,0.3032227,0.9350586,-0.3334961,0.09179688,-1,-2,3,2,-1,1,-4,1,-1,-2,2,0,0,-3,-1,-1,-8.4375,-8.4375,-8.4375,-3.0625,-3.0625,-3.0625,7.022563,5.774826,5.624367,2.98388,3.078609,4.052651,-0.1559783,-0.3874109,1.432576,0.1944113,0.1919388,1.269821,0.03997583,0.4500674,1.530815,-0.1211554,-0.3883133,1.400003,0.1446866,0.1704274,1.26964,0.04321004,-0.009858516,1.538596,0.04835986,-0.3252898,1.517947,-0.1380471,0.1671864,1.546105,-0.02900178,-0.317587,1.489721,-0.1717976,-0.1046815,1.54122,0.3868128,0.01392038,1.405771,NA,NA,NotTracked,Unknown,
-0.3417969,0.7255859,0.3413086,0.9350586,-0.3334961,0.09179688,-5,-4,-1,-6,-1,-2,-1,-4,-1,-2,2,0,0,-3,-1,-1,-13.0625,-13.0625,-13.0625,-3.0625,-3.0625,-3.0625,6.999475,5.747894,5.616861,2.98388,3.078609,4.052651,-0.155928,-0.3887953,1.433859,0.1952032,0.1766528,1.265968,0.04083226,0.4497572,1.530512,-0.1150126,-0.335328,1.415733,0.1549148,0.1531751,1.276042,0.0433722,-0.01012829,1.538673,0.04820563,-0.3255529,1.517669,-0.1380683,0.167201,1.546006,-0.02918003,-0.3177628,1.489153,-0.1720312,-0.1044999,1.540841,0.3844199,0.01086215,1.405425,NA,NA,NotTracked,Unknown,
-0.2353516,0.5537109,0.3828125,0.9350586,-0.3334961,0.09179688,-8,-4,-1,-3,0,-1,5,8,-1,-2,2,0,0,-3,-1,-1,-18.0625,-18.0625,-18.0625,-3.0625,-3.0625,-3.0625,6.93494,5.578301,5.59384,2.98388,3.078609,4.052651,-0.1558416,-0.3910495,1.435516,0.1841647,0.1308592,1.256174,0.04181228,0.4496742,1.530408,-0.1237073,-0.3996696,1.39981,0.1125961,0.1201928,1.283833,0.04381472,-0.01022312,1.538973,0.04829702,-0.3253911,1.517743,-0.1380169,0.1672592,1.545974,-0.02901033,-0.3176273,1.489024,-0.1721605,-0.104518,1.540821,0.3637983,0.003140101,1.413731,NA,NA,NotTracked,Unknown,
-0.1601563,0.543457,0.4453125,0.9350586,-0.3334961,0.09179688,2,1,0,0,-4,-4,-8,-1,-1,-2,2,0,0,-3,-1,-1,-54.625,-54.625,-54.625,-3.0625,-3.0625,-3.0625,6.864659,5.290488,5.61707,2.98388,3.078609,4.052651,-0.1561974,-0.3909903,1.437189,0.1698339,0.03962928,1.241369,0.04253501,0.4495444,1.530296,-0.1141435,-0.3468053,1.4184,0.103946,0.04635398,1.281118,0.04415363,-0.009927771,1.539322,0.04873189,-0.3238798,1.518255,-0.137705,0.1676864,1.546098,-0.0282553,-0.316251,1.488873,-0.1721335,-0.104704,1.540957,0.3497419,-0.007912938,1.43193,NA,NA,NotTracked,Unknown,
-0.1098633,0.5693359,0.3647461,0.9350586,-0.3334961,0.09179688,-2,-2,0,-2,-2,0,0,-2,-1,-2,2,0,0,-3,-1,-1,-44.5,-44.5,-44.5,-3.0625,-3.0625,-3.0625,6.77596,4.889087,5.670018,2.98388,3.078609,4.052651,-0.1553165,-0.3913129,1.437312,0.1655457,-0.09236819,1.231935,0.04277091,0.4494293,1.530211,-0.12498,-0.4006363,1.39952,0.09581596,-0.120091,1.2784,0.0445934,-0.009571806,1.539692,0.04922154,-0.322662,1.518546,-0.1376602,0.1677098,1.546131,-0.02746259,-0.3150974,1.488409,-0.1719819,-0.104819,1.541102,0.387959,-0.02299762,1.452107,NA,NA,NotTracked,Unknown,
0.08349609,0.925293,0.4941406,0.9350586,-0.3334961,0.09179688,1,2,5,4,-1,-1,1,-20,-1,-2,2,0,0,-3,-1,-1,-7,-7,-7,-3.0625,-3.0625,-3.0625,6.730961,4.406699,5.71583,2.98388,3.078609,4.052651,-0.1553133,-0.3903078,1.437087,0.1787864,-0.2340706,1.263904,0.04292412,0.4493223,1.53019,-0.1280308,-0.4048077,1.395986,0.1371161,-0.2687598,1.336667,0.04468882,-0.009487964,1.539901,0.04906305,-0.3223082,1.518679,-0.137655,0.1676916,1.546455,-0.02759747,-0.3144155,1.48803,-0.1718823,-0.1048638,1.541276,0.3021147,-0.04085799,1.508162,NA,NA,NotTracked,Lasso,
0.8867188,1.180176,0.4423828,0.9350586,-0.3334961,0.09179688,-7,0,1,-1,-2,1,4,-16,-1,-2,2,0,0,-3,-1,-1,-24.0625,-24.0625,-24.0625,-3.0625,-3.0625,-3.0625,6.78884,3.780342,5.683394,2.98388,3.078609,4.052651,-0.1554893,-0.3883996,1.436843,0.1997846,-0.3449787,1.312724,0.04307884,0.449313,1.530145,-0.1283054,-0.4015841,1.395944,0.2324925,-0.362333,1.316762,0.04470664,-0.009507254,1.539927,0.04856267,-0.322323,1.518765,-0.1376298,0.1677196,1.5466,-0.02839169,-0.3138025,1.487592,-0.1717042,-0.105153,1.541393,0.2871706,-0.05624316,1.50856,NA,NA,NotTracked,Unknown,
1.169922,0.581543,0.2197266,0.9350586,-0.3334961,0.09179688,2,-2,0,1,-3,-3,1,7,-1,-2,2,0,0,-3,-1,-1,-75.8125,-75.8125,-75.8125,-3.0625,-3.0625,-3.0625,6.733963,3.399902,5.581152,2.98388,3.078609,4.052651,-0.155622,-0.3896783,1.435759,0.2237537,-0.3807707,1.365187,0.04390198,0.4490766,1.52976,-0.1197472,-0.3772883,1.404577,0.258153,-0.39296,1.356846,0.04498763,-0.009584908,1.540012,0.04847009,-0.3223821,1.518861,-0.1376439,0.1677573,1.546701,-0.02844708,-0.3137214,1.487584,-0.1715402,-0.1055442,1.541526,0.2780064,-0.07130197,1.50629,NA,NA,NotTracked,Unknown,
1.146973,0.4389648,0.03369141,0.9350586,-0.3334961,0.09179688,-2,-2,-1,-2,-1,0,2,4,-1,-2,2,0,0,-3,-1,-1,-41.8125,-41.8125,-41.8125,-3.0625,-3.0625,-3.0625,6.846461,3.121786,5.347376,2.98388,3.078609,4.052651,-0.1562538,-0.392007,1.436134,0.2332058,-0.394387,1.396358,0.04581115,0.4487222,1.529093,-0.1224752,-0.391348,1.403563,0.2745541,-0.4059632,1.392833,0.04605793,-0.009591046,1.540298,0.04873202,-0.3221652,1.519251,-0.137296,0.1685153,1.547209,-0.02817264,-0.313484,1.487788,-0.1715536,-0.1059456,1.541797,0.2716818,-0.08354586,1.504637,NA,NA,NotTracked,Unknown,
0.9794922,0.3466797,0.08007813,0.9350586,-0.3334961,0.09179688,0,-2,-1,-2,-6,-1,-3,-4,-1,-2,2,0,0,-3,-1,-1,-17.6875,-17.6875,-17.6875,-3.0625,-3.0625,-3.0625,6.897184,3.049338,5.248304,2.98388,3.078609,4.052651,-0.1568427,-0.3935526,1.438898,0.2363175,-0.4004264,1.406665,0.04840376,0.4482641,1.528087,-0.1140005,-0.3534549,1.419333,0.2738666,-0.3959014,1.391506,0.04727005,-0.009714521,1.540593,0.04909689,-0.3219766,1.519937,-0.136884,0.1688516,1.547558,-0.02776594,-0.3133415,1.488266,-0.1715441,-0.1071332,1.542257,0.2697921,-0.08768421,1.50536,NA,NA,NotTracked,NotTracked,
0.9106445,0.3383789,0.1904297,0.9350586,-0.3334961,0.09179688,0,-2,-1,-1,-8,1,0,1,-1,-2,2,0,0,-3,-1,-1,-17.5,-17.5,-17.5,-3.0625,-3.0625,-3.0625,6.918053,3.036818,5.19935,2.98388,3.078609,4.052651,-0.1570481,-0.3927788,1.440091,0.2376218,-0.4013937,1.408285,0.05051497,0.4482597,1.527458,-0.1201028,-0.3950834,1.408571,0.2813497,-0.38074,1.404955,0.04790637,-0.009662655,1.540797,0.04929689,-0.3217597,1.520462,-0.1363093,0.169188,1.547439,-0.02758931,-0.3131677,1.488509,-0.1715755,-0.1071348,1.542431,0.2688416,-0.08995751,1.507719,NA,NA,NotTracked,NotTracked,
0.8955078,0.3022461,0.1816406,0.9350586,-0.3334961,0.09179688,2,0,-1,0,-3,-1,-1,-1,-1,-2,2,0,0,-3,-1,-1,-4,-4,-4,-3.0625,-3.0625,-3.0625,6.914227,3.035256,5.183392,2.98388,3.078609,4.052651,-0.1571829,-0.3913246,1.440154,0.2398659,-0.4023037,1.410082,0.05205965,0.4480028,1.527129,-0.1238255,-0.4006974,1.405852,0.278853,-0.3917141,1.401532,0.04842754,-0.009645544,1.541085,0.04950479,-0.3215769,1.521026,-0.135626,0.1697998,1.547195,-0.02740031,-0.3130352,1.488763,-0.171603,-0.1071931,1.542461,0.2684514,-0.09250625,1.510213,NA,NA,NotTracked,NotTracked,
0.9311523,0.2792969,0.175293,0.9350586,-0.3334961,0.09179688,0,-2,-1,-1,-1,-1,0,0,-1,-2,2,0,0,-3,-1,-1,-6.1875,-6.1875,-6.1875,-3.0625,-3.0625,-3.0625,6.908969,3.034668,5.1795,2.98388,3.078609,4.052651,-0.1575784,-0.3910739,1.439725,0.2403818,-0.4027191,1.411839,0.05314563,0.4477117,1.527095,-0.1295927,-0.4062049,1.400436,0.2782657,-0.3905604,1.400753,0.04875473,-0.009669041,1.541403,0.04981607,-0.3214905,1.521454,-0.1354626,0.1699439,1.547186,-0.02716805,-0.312999,1.488939,-0.1717292,-0.1072364,1.542431,0.2678554,-0.09434684,1.511853,NA,NA,NotTracked,NotTracked,
0.9414063,0.296875,0.125,0.9350586,-0.3334961,0.09179688,-5,-1,-1,0,1,-1,0,0,-1,-2,2,0,0,-3,-1,-1,-0.1875,-0.1875,-0.1875,-3.0625,-3.0625,-3.0625,6.90668,3.028916,5.177279,2.98388,3.078609,4.052651,-0.1567221,-0.3893145,1.438209,0.2396248,-0.4025193,1.412425,0.05392371,0.4474494,1.527569,-0.1274782,-0.4045085,1.398783,0.2830475,-0.3786412,1.412947,0.04908341,-0.009721139,1.541819,0.05025441,-0.3214253,1.521811,-0.1353932,0.1699954,1.547115,-0.02678504,-0.3129435,1.489018,-0.1717416,-0.1072226,1.542347,0.2672197,-0.09555434,1.513272,NA,NA,NotTracked,NotTracked,
0.9360352,0.3300781,0.07080078,0.9350586,-0.3334961,0.09179688,0,0,0,-2,1,1,0,0,-1,-2,2,0,0,-3,-1,-1,-17.5,-17.5,-17.5,-3.0625,-3.0625,-3.0625,6.949993,3.042333,5.119133,2.98388,3.078609,4.052651,-0.1559073,-0.3891153,1.438347,0.2400637,-0.4031729,1.413405,0.05454495,0.4474294,1.528685,-0.1268686,-0.400519,1.401562,0.2828569,-0.4019892,1.420125,0.04928195,-0.009574647,1.542243,0.05061872,-0.3212623,1.522053,-0.1353245,0.1701294,1.547118,-0.02639792,-0.3127911,1.48905,-0.171817,-0.107073,1.542222,0.2668249,-0.09626003,1.514384,NA,NA,NotTracked,NotTracked,
