ALX,ALY,ALZ,ARX,ARY,ARZ,EMG0L,EMG1L,EMG2L,EMG3L,EMG4L,EMG5L,EMG6L,EMG7L,EMG0R,EMG1R,EMG2R,EMG3R,EMG4R,EMG5R,EMG6R,EMG7R,GLX,GLY,GLZ,GRX,GRY,GRZ,ORL,OPL,OYL,ORR,OPR,OYR,LHNX,LHNY,LHNZ,RHNX,RHNY,RHNZ,HX,HY,HZ,LTX,LTY,LTZ,RTX,RTY,RTZ,SpineMidX,SpineMidY,SpineMidZ,SpineBaseX,SpineBaseY,SpineBaseZ,ShoulderLeftX,ShoulderLeftY,ShoulderLeftZ,ShoulderRightX,ShoulderRightY,ShoulderRightZ,ElbowLeftX,ElbowLeftY,ElbowLeftZ,ElbowRightX,ElbowRightY,ElbowRightZ,Myo_Pose_left,Myo_Pose_Right,Kinect_pose_left,Kinect_pose_right
0.9926758,0.5566406,0.05712891,0.9853516,-0.2583008,0.1499023,16,-1,-6,-3,-1,-1,-2,7,-1,-6,-4,-1,-3,-2,20,13,-8.8125,-8.8125,-8.8125,-19.8125,-19.8125,-19.8125,6.874411,3.113226,4.759261,2.946994,2.876101,3.668584,-0.1661814,-0.4111114,1.428568,0.2248901,-0.4245512,1.406044,0.03435297,0.4482252,1.538452,-0.130217,-0.4087285,1.397757,0.1797622,-0.4351586,1.379429,0.02629746,-0.009889017,1.543124,0.02780941,-0.3224315,1.522148,-0.1546704,0.1677267,1.537414,-0.049083,-0.3139157,1.486073,-0.1931122,-0.1098482,1.531321,0.2456732,-0.1030578,1.52065,NA,NA,NotTracked,NotTracked,
0.9951172,0.5698242,0.09033203,0.9853516,-0.2583008,0.1499023,-5,-7,1,4,1,0,-1,-9,-1,-6,-4,-1,-3,-2,20,13,-4.25,-4.25,-4.25,-19.8125,-19.8125,-19.8125,6.869173,3.156794,4.764359,2.946994,2.876101,3.668584,-0.1667774,-0.4113257,1.427797,0.2294471,-0.4268816,1.389746,0.03433496,0.4482274,1.538462,-0.1282247,-0.3974757,1.400188,0.1832796,-0.4279295,1.359885,0.02631049,-0.009880033,1.543119,0.02784575,-0.3224439,1.522132,-0.1546356,0.1677248,1.537445,-0.0490013,-0.3139312,1.485999,-0.1931445,-0.109909,1.531303,0.2464763,-0.1033091,1.52014,NA,NA,NotTracked,NotTracked,
0.9755859,0.7280273,0.1503906,0.9853516,-0.2583008,0.1499023,-31,-30,-1,6,-2,-5,-9,-20,-1,-6,-4,-1,-3,-2,20,13,10.125,10.125,10.125,-19.8125,-19.8125,-19.8125,6.867273,3.278172,4.774144,2.946994,2.876101,3.668584,-0.1667658,-0.410881,1.428703,0.2366389,-0.4223285,1.356624,0.03427201,0.44824,1.538703,-0.1274466,-0.3871701,1.402865,0.1860748,-0.4138303,1.337533,0.02634796,-0.009873748,1.543162,0.02795327,-0.3224675,1.52216,-0.1547638,0.1676762,1.537774,-0.04884925,-0.3139753,1.485981,-0.1931671,-0.1100302,1.531328,0.2479386,-0.1026488,1.519157,NA,NA,NotTracked,Unknown,
1.008789,0.8422852,0.2744141,0.9853516,-0.2583008,0.1499023,-3,5,14,2,-3,-1,1,-3,-1,-6,-4,-1,-3,-2,20,13,-12.25,-12.25,-12.25,-19.8125,-19.8125,-19.8125,6.865271,3.447084,4.773693,2.946994,2.876101,3.668584,-0.1664031,-0.4113651,1.427404,0.2408943,-0.4034234,1.311237,0.03414788,0.4482345,1.538877,-0.1285667,-0.3970902,1.400292,0.1878453,-0.3887713,1.300677,0.02646479,-0.0098915,1.54321,0.0280975,-0.3225102,1.522164,-0.1548272,0.1675185,1.537875,-0.04862029,-0.3140373,1.485857,-0.1931894,-0.1102915,1.531293,0.2526616,-0.0984588,1.515348,NA,NA,NotTracked,Unknown,
0.9575195,0.7578125,0.3886719,0.9853516,-0.2583008,0.1499023,-6,-11,-8,3,-1,-2,-1,-5,-1,-6,-4,-1,-3,-2,20,13,-17.25,-17.25,-17.25,-19.8125,-19.8125,-19.8125,6.833123,3.672393,4.78528,2.946994,2.876101,3.668584,-0.1661674,-0.411154,1.428239,0.2430436,-0.3700511,1.267824,0.03394083,0.4483328,1.539244,-0.1285755,-0.3962208,1.400968,0.2299202,-0.3543301,1.227663,0.02647353,-0.009881345,1.543285,0.02809583,-0.3225114,1.522188,-0.1550252,0.1675286,1.538057,-0.04861848,-0.3140386,1.48586,-0.1931556,-0.1105609,1.531259,0.2583091,-0.08950612,1.51,NA,NA,NotTracked,Unknown,
0.8422852,0.8476563,0.4897461,0.9853516,-0.2583008,0.1499023,-16,0,15,8,-6,-3,-3,-3,-1,-6,-4,-1,-3,-2,20,13,25.25,25.25,25.25,-19.8125,-19.8125,-19.8125,6.837575,3.94308,4.80209,2.946994,2.876101,3.668584,-0.1662674,-0.4112749,1.428781,0.2453925,-0.3122862,1.226207,0.03376061,0.4483134,1.539615,-0.1255901,-0.3879809,1.403569,0.2268915,-0.3052343,1.179925,0.02647298,-0.009867467,1.543424,0.02807955,-0.3224936,1.522246,-0.1552664,0.1673879,1.538488,-0.04862151,-0.3140207,1.485868,-0.1931812,-0.1105901,1.531316,0.2658786,-0.07496802,1.504971,NA,NA,NotTracked,Unknown,
0.6733398,0.9428711,0.559082,0.9853516,-0.2583008,0.1499023,-30,4,26,25,4,0,0,0,-1,-6,-4,-1,-3,-2,20,13,33.875,33.875,33.875,-19.8125,-19.8125,-19.8125,6.85825,4.250231,4.829501,2.946994,2.876101,3.668584,-0.1671653,-0.4110345,1.428616,0.2442024,-0.2538942,1.1805,0.03346076,0.4482847,1.540315,-0.1293649,-0.3971654,1.400944,0.1980216,-0.2457504,1.132375,0.02639595,-0.009843694,1.543584,0.02805971,-0.3224937,1.522272,-0.1553957,0.1672785,1.538696,-0.04862861,-0.3140221,1.485867,-0.193183,-0.1105888,1.531321,0.272163,-0.05824725,1.501029,NA,NA,NotTracked,Unknown,
0.2314453,0.8139648,0.5214844,0.9853516,-0.2583008,0.1499023,50,15,38,25,7,1,3,6,-1,-6,-4,-1,-3,-2,20,13,17.25,17.25,17.25,-19.8125,-19.8125,-19.8125,6.872264,4.924501,4.923712,2.946994,2.876101,3.668584,-0.1667401,-0.4106857,1.426958,0.235978,-0.02634803,1.11578,0.03278079,0.4483818,1.541883,-0.1314716,-0.41118,1.39395,0.2313482,-0.01681553,1.139375,0.02603902,-0.009753182,1.543988,0.02790605,-0.3224195,1.522308,-0.1557274,0.1672874,1.539194,-0.04879203,-0.3139606,1.485797,-0.1933967,-0.110435,1.531465,0.3353188,-0.02097815,1.470594,NA,NA,NotTracked,Unknown,
0.004882813,0.7636719,0.4956055,0.9853516,-0.2583008,0.1499023,-8,25,2,-6,-2,1,0,-4,-1,-6,-4,-1,-3,-2,20,13,35.8125,35.8125,35.8125,-19.8125,-19.8125,-19.8125,6.906168,5.273192,4.996168,2.946994,2.876101,3.668584,-0.1666678,-0.4105219,1.427429,0.2374311,0.04165612,1.196814,0.03248344,0.4484031,1.542623,-0.1310801,-0.4107377,1.395259,0.1986791,0.06092334,1.1515,0.02582357,-0.009799844,1.544218,0.02769103,-0.3225081,1.522346,-0.1559011,0.1670874,1.539762,-0.04907862,-0.3141418,1.485938,-0.1934495,-0.1105068,1.531593,0.2816356,-0.04721137,1.472183,NA,NA,NotTracked,Unknown,
-0.0703125,0.769043,0.4741211,0.9853516,-0.2583008,0.1499023,-13,7,17,2,0,-5,-3,-4,-1,-6,-4,-1,-3,-2,20,13,40.5,40.5,40.5,-19.8125,-19.8125,-19.8125,6.93664,5.444946,5.038435,2.946994,2.876101,3.668584,-0.16586,-0.4140705,1.42634,0.2185156,0.1179905,1.190339,0.03236071,0.4484051,1.543164,-0.1285035,-0.4076483,1.396601,0.1627433,0.1353791,1.20275,0.02552678,-0.010346,1.544468,0.02705735,-0.3241812,1.522426,-0.1559534,0.166801,1.540238,-0.04986687,-0.3160186,1.486194,-0.1937093,-0.1101613,1.531918,0.2979851,-0.0347278,1.441839,NA,NA,NotTracked,Unknown,
-0.4570313,0.6445313,0.2944336,0.9853516,-0.2583008,0.1499023,-15,4,4,9,2,1,0,-10,-1,-6,-4,-1,-3,-2,20,13,26.625,26.625,26.625,-19.8125,-19.8125,-19.8125,7.049149,5.938965,5.210353,2.946994,2.876101,3.668584,-0.1659684,-0.4113334,1.428106,0.1922975,0.1931125,1.199066,0.03206521,0.4486279,1.543966,-0.1269588,-0.3988757,1.399524,0.1373162,0.2045232,1.223273,0.02543982,-0.01038806,1.544592,0.02677071,-0.3243327,1.522351,-0.1548631,0.1675734,1.538246,-0.05029656,-0.316145,1.486161,-0.1936188,-0.1095758,1.532382,0.308349,-0.018444,1.414957,NA,NA,NotTracked,Unknown,
-0.4570313,0.6445313,0.2944336,0.9853516,-0.2583008,0.1499023,-5,-18,-1,-4,-2,-4,-5,-25,-1,-6,-4,-1,-3,-2,20,13,26.625,26.625,26.625,-19.8125,-19.8125,-19.8125,7.049149,5.938965,5.210353,2.946994,2.876101,3.668584,-0.1671183,-0.4078988,1.430057,0.1736016,0.2502156,1.228071,0.03174085,0.4487922,1.54435,-0.1293433,-0.4035684,1.397701,0.1343078,0.2460093,1.27427,0.02567786,-0.009707308,1.544781,0.02634668,-0.3234185,1.522098,-0.154169,0.1673515,1.538966,-0.05126529,-0.3148507,1.486054,-0.1934168,-0.1062351,1.533257,0.3141883,0.003360516,1.390196,NA,NA,NotTracked,Unknown,
-0.5957031,0.5483398,0.1894531,0.9853516,-0.2583008,0.1499023,33,-1,-4,-2,-1,-6,-1,-10,-1,-6,-4,-1,-3,-2,20,13,17.3125,17.3125,17.3125,-19.8125,-19.8125,-19.8125,7.250769,6.335015,5.457655,2.946994,2.876101,3.668584,-0.167471,-0.4045746,1.431599,0.1660247,0.2891366,1.263508,0.03105031,0.4489756,1.544779,-0.1271263,-0.3800801,1.406261,0.1183392,0.2701154,1.3158,0.02687926,-0.008055279,1.54431,0.02605107,-0.3219154,1.521805,-0.1521132,0.1685205,1.536891,-0.05195022,-0.3128605,1.485541,-0.1927925,-0.1035091,1.534335,0.3147959,0.02336289,1.369912,NA,NA,NotTracked,Open,
-0.6513672,0.4970703,0.1005859,0.9853516,-0.2583008,0.1499023,-23,0,-1,-2,-4,0,-4,-6,-1,-6,-4,-1,-3,-2,20,13,3.75,3.75,3.75,-19.8125,-19.8125,-19.8125,7.334112,6.43697,5.564357,2.946994,2.876101,3.668584,-0.1677588,-0.4014301,1.432851,0.1700535,0.2998786,1.297518,0.03033161,0.4487242,1.545164,-0.1263839,-0.3790308,1.40593,0.130491,0.2770455,1.342588,0.02742662,-0.007161107,1.543995,0.02563465,-0.3210619,1.521527,-0.1497501,0.1697075,1.535076,-0.05269768,-0.3117324,1.485204,-0.1924574,-0.1014369,1.535257,0.3157064,0.03154861,1.36354,NA,NA,NotTracked,Open,
-0.6352539,0.4731445,0.05761719,0.9853516,-0.2583008,0.1499023,8,13,7,7,4,1,4,34,-1,-6,-4,-1,-3,-2,20,13,-4.3125,-4.3125,-4.3125,-19.8125,-19.8125,-19.8125,7.527746,6.594346,5.803535,2.946994,2.876101,3.668584,-0.1684124,-0.400699,1.433372,0.1547993,0.3445464,1.316812,0.03007904,0.4482059,1.544861,-0.1258154,-0.3786542,1.407,0.1131338,0.3081909,1.359355,0.02779605,-0.006618497,1.543763,0.02540596,-0.3204757,1.521235,-0.1479925,0.170089,1.533858,-0.0531672,-0.3109141,1.484859,-0.1921038,-0.09924091,1.536218,0.316015,0.04087752,1.343958,NA,NA,NotTracked,Open,
-0.6523438,0.4267578,-0.007324219,0.9853516,-0.2583008,0.1499023,31,-5,-8,-4,-4,-6,-2,39,-1,-6,-4,-1,-3,-2,20,13,-6,-6,-6,-19.8125,-19.8125,-19.8125,7.740616,6.69744,6.058765,2.946994,2.876101,3.668584,-0.1647164,-0.427979,1.42551,0.1537259,0.3498654,1.340836,0.03074616,0.447368,1.544088,-0.1238975,-0.4129352,1.399955,0.1154909,0.3101576,1.379737,0.02806159,-0.006197295,1.543669,0.02522649,-0.3199171,1.521176,-0.1469495,0.1704417,1.533191,-0.05347766,-0.3102154,1.484809,-0.191982,-0.0980923,1.536763,0.3171107,0.06387044,1.342206,NA,NA,NotTracked,Open,
-0.6977539,0.4287109,-0.08251953,0.9853516,-0.2583008,0.1499023,-13,-5,-3,-3,-3,1,-5,-30,-1,-6,-4,-1,-3,-2,20,13,-11.5,-11.5,-11.5,-19.8125,-19.8125,-19.8125,7.91012,6.74901,6.266002,2.946994,2.876101,3.668584,-0.1688083,-0.3973912,1.43445,0.152696,0.3548437,1.35693,0.0313789,0.4465989,1.543646,-0.1277532,-0.3793249,1.407808,0.1161496,0.3119734,1.392375,0.02828594,-0.005779288,1.543632,0.02493742,-0.3192984,1.521059,-0.1464001,0.1705536,1.532845,-0.05386791,-0.3094243,1.48499,-0.1920247,-0.09742338,1.537117,0.3172244,0.06471319,1.341003,NA,NA,NotTracked,Open,
-0.6977539,0.4287109,-0.08251953,0.9853516,-0.2583008,0.1499023,-19,0,3,-2,-6,-3,-2,-14,-1,-6,-4,-1,-3,-2,20,13,-11.5,-11.5,-11.5,-19.8125,-19.8125,-19.8125,7.91012,6.74901,6.266002,2.946994,2.876101,3.668584,-0.1686555,-0.3968232,1.433589,0.1527319,0.3583749,1.365598,0.03234694,0.4451657,1.542877,-0.1259228,-0.3811418,1.4062,0.1182516,0.3200552,1.399889,0.02854466,-0.005404885,1.543504,0.02480176,-0.3189638,1.520936,-0.1458902,0.1706365,1.532493,-0.05404511,-0.3090927,1.485008,-0.1921326,-0.09717107,1.537438,0.3160225,0.06863628,1.337642,NA,NA,NotTracked,Open,
-0.7177734,0.3989258,-0.1005859,0.9853516,-0.2583008,0.1499023,-4,-6,-3,2,-1,-2,-9,-22,-1,-6,-4,-1,-3,-2,20,13,-12.0625,-12.0625,-12.0625,-19.8125,-19.8125,-19.8125,7.971645,6.761437,6.342979,2.946994,2.876101,3.668584,-0.1626631,-0.4269191,1.424081,0.1497495,0.3638225,1.37338,0.03281868,0.4447214,1.542668,-0.1192535,-0.4001446,1.40261,0.1110756,0.3212627,1.407353,0.02875721,-0.005264949,1.543374,0.02476017,-0.31892,1.520806,-0.1454579,0.1707629,1.532202,-0.05409132,-0.3090616,1.485022,-0.1921049,-0.09714632,1.537645,0.3154686,0.07095557,1.335521,NA,NA,NotTracked,Open,
-0.7299805,0.4145508,-0.1206055,0.9853516,-0.2583008,0.1499023,-4,-6,-3,2,-1,-2,-9,-22,-1,-6,-4,-1,-3,-2,20,13,-11.375,-11.375,-11.375,-19.8125,-19.8125,-19.8125,8.017507,6.767193,6.401386,2.946994,2.876101,3.668584,-0.1662015,-0.3999466,1.431271,0.1487771,0.3644364,1.375955,0.03331206,0.4441398,1.542341,-0.1234177,-0.379678,1.406267,0.1111009,0.3207178,1.4105,0.0289222,-0.005167112,1.543266,0.02469665,-0.3188133,1.520612,-0.1450467,0.1707855,1.531898,-0.05416987,-0.3089657,1.484992,-0.1920717,-0.09713909,1.537732,0.3144473,0.07285926,1.333464,NA,NA,NotTracked,Open,
-0.793457,0.4057617,-0.1313477,0.9853516,-0.2583008,0.1499023,4,3,-1,-5,-4,1,6,-16,-1,-6,-4,-1,-3,-2,20,13,-2.5,-2.5,-2.5,-19.8125,-19.8125,-19.8125,8.07032,6.771383,6.466831,2.946994,2.876101,3.668584,-0.1662333,-0.3935,1.433038,0.143065,0.3745556,1.380081,0.03381869,0.4435627,1.542054,-0.1229729,-0.3616243,1.409143,0.09836406,0.3277319,1.410444,0.02903119,-0.005052008,1.543161,0.02462366,-0.3186699,1.520388,-0.1447758,0.1708321,1.531718,-0.05425254,-0.3088734,1.484946,-0.1920218,-0.09708475,1.53777,0.3138909,0.07511202,1.331713,NA,NA,NotTracked,Open,
-0.7832031,0.4331055,-0.1347656,0.9853516,-0.2583008,0.1499023,11,7,7,4,3,0,-15,5,-1,-6,-4,-1,-3,-2,20,13,-1.25,-1.25,-1.25,-19.8125,-19.8125,-19.8125,8.080105,6.770414,6.479065,2.946994,2.876101,3.668584,-0.1666252,-0.3929357,1.43334,0.1444002,0.3691296,1.379389,0.03400009,0.4435616,1.541822,-0.1232269,-0.3724284,1.407315,0.1052846,0.3245767,1.413141,0.0291543,-0.004915369,1.543075,0.02461873,-0.3185522,1.520253,-0.1445537,0.1708756,1.531568,-0.05427419,-0.3088277,1.484951,-0.1919306,-0.09720445,1.537766,0.3138058,0.07644204,1.330744,NA,NA,NotTracked,Open,
-0.8447266,0.4355469,-0.1425781,0.9853516,-0.2583008,0.1499023,-13,-5,-3,0,-1,5,1,-12,-1,-6,-4,-1,-3,-2,20,13,-2.9375,-2.9375,-2.9375,-19.8125,-19.8125,-19.8125,8.075297,6.760178,6.48002,2.946994,2.876101,3.668584,-0.161695,-0.4205535,1.424505,0.143879,0.3667069,1.379279,0.03423266,0.4435809,1.5416,-0.1191066,-0.385305,1.403447,0.1055541,0.3215294,1.412373,0.02931344,-0.004813962,1.542924,0.02465611,-0.3184916,1.520056,-0.1443404,0.170898,1.53139,-0.05427254,-0.3088234,1.484952,-0.191844,-0.0970801,1.537763,0.313471,0.07730068,1.329831,NA,NA,NotTracked,Open,
-0.8745117,0.4277344,-0.1425781,0.9853516,-0.2583008,0.1499023,9,3,8,0,-4,0,4,18,-1,-6,-4,-1,-3,-2,20,13,-3.25,-3.25,-3.25,-19.8125,-19.8125,-19.8125,8.069932,6.757225,6.476366,2.946994,2.876101,3.668584,-0.165716,-0.4039438,1.430032,0.1434634,0.36417,1.379463,0.03422237,0.4436148,1.541561,-0.1225631,-0.3720108,1.407724,0.1123517,0.3228755,1.414006,0.02941625,-0.004757605,1.542878,0.02465838,-0.3184627,1.520002,-0.1441986,0.1709143,1.531289,-0.05427933,-0.3088092,1.484961,-0.1918468,-0.09707935,1.537763,0.3134478,0.07797433,1.329314,NA,NA,NotTracked,Open,
-0.8901367,0.4370117,-0.1269531,0.9853516,-0.2583008,0.1499023,-1,-4,8,3,2,0,5,33,-1,-6,-4,-1,-3,-2,20,13,-0.625,-0.625,-0.625,-19.8125,-19.8125,-19.8125,8.057225,6.74754,6.464648,2.946994,2.876101,3.668584,-0.1661739,-0.4006554,1.431738,0.1429981,0.3627916,1.378608,0.03435232,0.4435919,1.541411,-0.1243125,-0.3679391,1.409575,0.1041877,0.3215378,1.412952,0.02953327,-0.004661391,1.542855,0.02468942,-0.3183764,1.519956,-0.1440731,0.1709649,1.531196,-0.0542762,-0.3087259,1.484979,-0.1918125,-0.09697993,1.537865,0.3134931,0.07816856,1.329166,NA,NA,NotTracked,Open,
-0.8901367,0.4370117,-0.1269531,0.9853516,-0.2583008,0.1499023,-16,2,0,-1,-3,-3,-3,-16,-1,-6,-4,-1,-3,-2,20,13,-0.625,-0.625,-0.625,-19.8125,-19.8125,-19.8125,8.057225,6.74754,6.464648,2.946994,2.876101,3.668584,-0.1605783,-0.42414,1.423057,0.142364,0.3599405,1.378475,0.03464857,0.4432584,1.541318,-0.1172091,-0.4060544,1.400723,0.1114473,0.3170917,1.417571,0.02961184,-0.004610107,1.542965,0.02471493,-0.3183096,1.519919,-0.1439876,0.1709995,1.531122,-0.0542644,-0.3086427,1.484999,-0.1918073,-0.09698268,1.537863,0.3135042,0.07832649,1.328954,NA,NA,NotTracked,Open,
-0.8828125,0.4477539,-0.144043,0.9853516,-0.2583008,0.1499023,1,-9,-11,-7,-4,-4,0,6,-1,-6,-4,-1,-3,-2,20,13,-4.3125,-4.3125,-4.3125,-19.8125,-19.8125,-19.8125,8.047441,6.729353,6.463234,2.946994,2.876101,3.668584,-0.1603945,-0.4270212,1.421927,0.141085,0.3601524,1.37767,0.03474305,0.4433948,1.54112,-0.117893,-0.4034116,1.400956,0.1072289,0.3176597,1.413855,0.02980221,-0.004517113,1.542867,0.02476281,-0.3183056,1.519835,-0.1430328,0.1698095,1.533578,-0.05425603,-0.3086499,1.484999,-0.1918504,-0.09665076,1.53793,0.3134553,0.07843469,1.328772,NA,NA,NotTracked,Open,
-0.8442383,0.4794922,-0.1699219,0.9853516,-0.2583008,0.1499023,22,-2,1,0,1,-1,-5,-21,-1,-6,-4,-1,-3,-2,20,13,-0.5,-0.5,-0.5,-19.8125,-19.8125,-19.8125,8.047228,6.70131,6.467088,2.946994,2.876101,3.668584,-0.1660074,-0.3969811,1.431601,0.1400526,0.3595176,1.377494,0.03496186,0.4429227,1.541097,-0.1263274,-0.4033714,1.396857,0.108528,0.3139913,1.418333,0.03013205,-0.004485327,1.542978,0.02481266,-0.3182542,1.519722,-0.1428637,0.1700208,1.533044,-0.05423324,-0.3086128,1.484985,-0.1918499,-0.09634334,1.537747,0.3136258,0.07854211,1.328712,NA,NA,NotTracked,Open,
-0.8378906,0.4814453,-0.15625,0.9853516,-0.2583008,0.1499023,-5,-14,-2,0,-2,0,0,0,-1,-6,-4,-1,-3,-2,20,13,3.4375,3.4375,3.4375,-19.8125,-19.8125,-19.8125,8.046221,6.692428,6.464032,2.946994,2.876101,3.668584,-0.1601449,-0.4273222,1.4216,0.1393543,0.3588619,1.37859,0.03536259,0.4424815,1.540879,-0.1166814,-0.4048541,1.400068,0.1080349,0.3184732,1.412775,0.03023417,-0.004532104,1.543038,0.02482884,-0.31825,1.519689,-0.1427631,0.170166,1.532632,-0.05423066,-0.3086083,1.48499,-0.1917889,-0.09621534,1.537626,0.3137806,0.07859368,1.328698,NA,NA,NotTracked,Open,
-0.8676758,0.4941406,-0.1601563,0.9853516,-0.2583008,0.1499023,0,10,0,2,-1,0,1,-2,-1,-6,-4,-1,-3,-2,20,13,5.25,5.25,5.25,-19.8125,-19.8125,-19.8125,8.044767,6.683343,6.459355,2.946994,2.876101,3.668584,-0.1667782,-0.3966389,1.431991,0.1397956,0.3592308,1.377683,0.03570754,0.4424905,1.540529,-0.1207729,-0.3938456,1.401955,0.104519,0.3156133,1.417123,0.03031649,-0.00447007,1.542977,0.02483556,-0.3182325,1.51966,-0.1426827,0.1702451,1.532303,-0.05423344,-0.3086006,1.484991,-0.1917012,-0.09613611,1.537522,0.3138901,0.07871099,1.328702,NA,NA,NotTracked,Open,
-0.8466797,0.5424805,-0.2050781,0.9853516,-0.2583008,0.1499023,-10,-14,-6,-2,-2,-6,-9,-10,-1,-6,-4,-1,-3,-2,20,13,13.875,13.875,13.875,-19.8125,-19.8125,-19.8125,8.038805,6.664828,6.436929,2.946994,2.876101,3.668584,-0.1670448,-0.396497,1.431972,0.1353468,0.3732767,1.379298,0.03580981,0.4422209,1.540464,-0.1240035,-0.363008,1.408757,0.0843428,0.3256854,1.401906,0.0303185,-0.004467502,1.543018,0.02479246,-0.3181921,1.519587,-0.1426112,0.1703767,1.532011,-0.05430203,-0.3085218,1.484965,-0.1916375,-0.09560822,1.537336,0.3141834,0.07880942,1.328834,NA,NA,NotTracked,Open,
-0.8261719,0.5639648,-0.2211914,0.9853516,-0.2583008,0.1499023,31,17,4,3,7,0,-5,8,-1,-6,-4,-1,-3,-2,20,13,21.125,21.125,21.125,-19.8125,-19.8125,-19.8125,8.03314,6.657178,6.416468,2.946994,2.876101,3.668584,-0.1672478,-0.3969661,1.432034,0.1393334,0.3705385,1.380245,0.03595646,0.4419829,1.540451,-0.1229373,-0.3722619,1.406777,0.08612598,0.3240625,1.40374,0.03029101,-0.004469982,1.543064,0.02479955,-0.3181646,1.519573,-0.1424658,0.1704515,1.531612,-0.05429839,-0.3084606,1.484983,-0.1916418,-0.09546345,1.537304,0.316029,0.07930911,1.329832,NA,NA,NotTracked,Open,
-0.7768555,0.6738281,-0.3666992,0.9853516,-0.2583008,0.1499023,-3,2,1,16,-3,8,27,24,-1,-6,-4,-1,-3,-2,20,13,63.1875,63.1875,63.1875,-19.8125,-19.8125,-19.8125,8.021718,6.661617,6.310812,2.946994,2.876101,3.668584,-0.167664,-0.3969753,1.433112,0.1451204,0.3692453,1.383299,0.035917,0.4421283,1.54044,-0.1232912,-0.3734232,1.407038,0.09364951,0.3387771,1.411697,0.03028939,-0.00444576,1.543061,0.02477399,-0.3181547,1.519593,-0.142282,0.1705609,1.531324,-0.05435841,-0.3084494,1.485023,-0.1916638,-0.09524014,1.537399,0.3221106,0.09043092,1.33002,NA,NA,NotTracked,Open,
-0.777832,0.6782227,-0.3706055,0.9853516,-0.2583008,0.1499023,3,-7,-4,-4,24,-6,-8,20,-1,-6,-4,-1,-3,-2,20,13,88.4375,88.4375,88.4375,-19.8125,-19.8125,-19.8125,8.015138,6.679871,6.243594,2.946994,2.876101,3.668584,-0.1620284,-0.4320053,1.420412,0.1909436,0.3645427,1.3772,0.03414084,0.4429038,1.541817,-0.1201717,-0.4173188,1.399187,0.1688483,0.3548686,1.415,0.0301502,-0.004572228,1.542897,0.02453711,-0.3186411,1.519172,-0.1430133,0.1706237,1.531096,-0.05459652,-0.3091093,1.484723,-0.1917636,-0.09661885,1.537328,0.3366933,0.09079512,1.341289,NA,NA,NotTracked,Open,
-0.9516602,0.6611328,-0.3725586,0.9853516,-0.2583008,0.1499023,-26,32,10,-3,8,0,-19,-16,-1,-6,-4,-1,-3,-2,20,13,140.6875,140.6875,140.6875,-19.8125,-19.8125,-19.8125,7.928922,6.786505,5.988092,2.946994,2.876101,3.668584,-0.1625785,-0.431875,1.420648,0.2224012,0.3844958,1.376758,0.03233808,0.4437814,1.542943,-0.1206184,-0.4053213,1.400724,0.2111221,0.3703465,1.421875,0.02903793,-0.00562692,1.543143,0.02447706,-0.3192585,1.518898,-0.1439663,0.1705081,1.531164,-0.05444431,-0.3100384,1.484793,-0.1922431,-0.1033517,1.537453,0.350295,0.08640233,1.352219,NA,NA,NotTracked,Open,
-0.8833008,0.3378906,0.1987305,0.9853516,-0.2583008,0.1499023,-7,-19,-17,-20,16,2,12,-11,-1,-6,-4,-1,-3,-2,20,13,137.5,137.5,137.5,-19.8125,-19.8125,-19.8125,7.367576,6.970481,5.112059,2.946994,2.876101,3.668584,-0.16598,-0.4214042,1.4242,0.2687618,0.3807318,1.371833,0.03019796,0.4447971,1.543786,-0.1231813,-0.3978119,1.403254,0.2535014,0.3823206,1.42225,0.02713218,-0.006908988,1.543338,0.02398867,-0.3208007,1.51859,-0.1449459,0.1704595,1.531222,-0.05466704,-0.311872,1.484909,-0.1925456,-0.1059268,1.537282,0.3592939,0.08794197,1.360683,NA,NA,NotTracked,Open,
-0.9077148,0.05615234,0.4375,0.9853516,-0.2583008,0.1499023,26,13,0,-12,-6,-8,2,32,-1,-6,-4,-1,-3,-2,20,13,85.5,85.5,85.5,-19.8125,-19.8125,-19.8125,6.855242,6.993327,4.459845,2.946994,2.876101,3.668584,-0.1671035,-0.4185813,1.42732,0.3043522,0.3832318,1.372107,0.0283352,0.4457615,1.543993,-0.1223498,-0.4024912,1.402397,0.3382632,0.4055762,1.352643,0.02592799,-0.008023835,1.543542,0.02358184,-0.3221535,1.518644,-0.1528323,0.1664739,1.540148,-0.05481661,-0.3136275,1.485607,-0.1924192,-0.1073826,1.537866,0.3676195,0.09266318,1.368152,NA,NA,NotTracked,Open,
-0.8969727,0.1347656,0.6665039,0.9853516,-0.2583008,0.1499023,42,5,17,3,-4,4,16,13,-1,-6,-4,-1,-3,-2,20,13,47.125,47.125,47.125,-19.8125,-19.8125,-19.8125,6.591221,6.959286,4.12536,2.946994,2.876101,3.668584,-0.1682453,-0.4158386,1.429938,0.3214322,0.3884925,1.372247,0.02693918,0.4464493,1.544135,-0.1264829,-0.3953298,1.404907,0.3441986,0.4300206,1.331,0.02469515,-0.008739378,1.543695,0.02308447,-0.3230719,1.518677,-0.1528009,0.1670329,1.538752,-0.0551509,-0.3145986,1.486103,-0.192529,-0.1075743,1.53808,0.3723659,0.09543841,1.372952,NA,NA,NotTracked,Open,
-0.9082031,0.1088867,0.6162109,0.9853516,-0.2583008,0.1499023,-26,-22,-4,-3,-3,0,16,-46,-1,-6,-4,-1,-3,-2,20,13,35.3125,35.3125,35.3125,-19.8125,-19.8125,-19.8125,6.544481,6.938183,4.061052,2.946994,2.876101,3.668584,-0.1666873,-0.4331249,1.426144,0.3256596,0.3921297,1.37219,0.02574871,0.446862,1.544243,-0.1240794,-0.418145,1.400648,0.3481306,0.4181247,1.295143,0.02410122,-0.009275764,1.543857,0.02270203,-0.3238234,1.518714,-0.1541026,0.1662296,1.540593,-0.05540785,-0.3155455,1.48654,-0.1927949,-0.1079203,1.538227,0.3751774,0.09668539,1.376109,NA,NA,NotTracked,Open,
-0.918457,0.1542969,0.3486328,0.9853516,-0.2583008,0.1499023,-1,1,1,1,2,-8,-2,-13,-1,-6,-4,-1,-3,-2,20,13,24.9375,24.9375,24.9375,-19.8125,-19.8125,-19.8125,6.58329,6.928896,4.076175,2.946994,2.876101,3.668584,-0.1675749,-0.4339335,1.427417,0.3229948,0.3931231,1.375217,0.02498472,0.4472289,1.544649,-0.125483,-0.423016,1.402044,0.2532235,0.3823161,1.382579,0.02375464,-0.009705275,1.544155,0.02248519,-0.3243318,1.518978,-0.155117,0.1655154,1.542079,-0.05547515,-0.3160891,1.486933,-0.1928379,-0.1081071,1.538501,0.3777895,0.09818636,1.37917,NA,NA,NotTracked,Open,
-0.9672852,0.1777344,0.1757813,0.9853516,-0.2583008,0.1499023,-6,-9,3,2,-3,3,8,-16,-1,-6,-4,-1,-3,-2,20,13,-5.4375,-5.4375,-5.4375,-19.8125,-19.8125,-19.8125,6.649717,6.937827,4.150127,2.946994,2.876101,3.668584,-0.16983,-0.4230488,1.428586,0.3189276,0.3935139,1.373191,0.02472149,0.4473205,1.544736,-0.1304208,-0.409681,1.40053,0.2536088,0.3794757,1.382416,0.02352422,-0.01000949,1.5443,0.02247315,-0.3247429,1.519033,-0.1553284,0.1653644,1.542487,-0.0553813,-0.3165753,1.487123,-0.1929925,-0.1083161,1.538583,0.3796699,0.0995936,1.381166,NA,NA,NotTracked,Open,
-0.9731445,0.2407227,0.1210938,0.9853516,-0.2583008,0.1499023,-3,5,5,-6,-2,-5,3,36,-1,-6,-4,-1,-3,-2,20,13,-0.9375,-0.9375,-0.9375,-19.8125,-19.8125,-19.8125,6.670128,6.941956,4.175092,2.946994,2.876101,3.668584,-0.1701474,-0.4186387,1.427978,0.3175726,0.3927871,1.371309,0.0245357,0.4474599,1.544809,-0.1314252,-0.4081877,1.39953,0.2499755,0.3782151,1.3712,0.02328997,-0.01023409,1.544461,0.02245084,-0.3250262,1.519067,-0.1555848,0.1651509,1.542861,-0.05533728,-0.316839,1.487205,-0.1931926,-0.1084471,1.538444,0.3806387,0.1006544,1.38207,NA,NA,NotTracked,Open,
-0.9262695,0.3168945,0.1586914,0.9853516,-0.2583008,0.1499023,8,4,-7,-12,-1,10,3,17,-1,-6,-4,-1,-3,-2,20,13,-7.5,-7.5,-7.5,-19.8125,-19.8125,-19.8125,6.653314,6.931922,4.163766,2.946994,2.876101,3.668584,-0.1704362,-0.4179433,1.426164,0.3190437,0.3929373,1.368168,0.02445273,0.4475015,1.544955,-0.1367661,-0.4135785,1.39154,0.249862,0.3797836,1.368861,0.02318318,-0.01043536,1.544539,0.02251703,-0.3252709,1.519077,-0.1556765,0.1651118,1.543001,-0.05518866,-0.3171041,1.487227,-0.1932375,-0.1087403,1.538209,0.3811323,0.1012656,1.382504,NA,NA,NotTracked,Open,
-0.902832,0.3237305,0.1992188,0.9853516,-0.2583008,0.1499023,2,8,-1,-7,-18,-13,-19,2,-1,-6,-4,-1,-3,-2,20,13,-2.4375,-2.4375,-2.4375,-19.8125,-19.8125,-19.8125,6.622257,6.924825,4.134117,2.946994,2.876101,3.668584,-0.1696528,-0.4134712,1.425636,0.3206066,0.3949858,1.367303,0.02436644,0.4476441,1.545213,-0.1330301,-0.4085646,1.395945,0.2492517,0.3830834,1.365975,0.02317755,-0.0105555,1.544652,0.0226207,-0.3254459,1.519143,-0.1558285,0.1650534,1.54325,-0.05500738,-0.3172641,1.487304,-0.193289,-0.108748,1.537964,0.3815362,0.1014221,1.382959,NA,NA,NotTracked,Open,
-0.9384766,0.3027344,0.1962891,0.9853516,-0.2583008,0.1499023,-12,1,-4,-9,-4,13,-6,-32,-1,-6,-4,-1,-3,-2,20,13,-3,-3,-3,-19.8125,-19.8125,-19.8125,6.60168,6.919966,4.116299,2.946994,2.876101,3.668584,-0.1677392,-0.4124385,1.423594,0.3221188,0.3947522,1.365992,0.02418299,0.4478649,1.545788,-0.1323906,-0.405196,1.393458,0.2541751,0.3824956,1.368191,0.02299389,-0.01076373,1.544999,0.02286042,-0.3257576,1.519196,-0.155921,0.1649803,1.543529,-0.05463377,-0.3175985,1.487379,-0.1931423,-0.1087496,1.53742,0.3817832,0.1016601,1.383214,NA,NA,NotTracked,Open,
-0.9462891,0.2905273,0.1899414,0.9853516,-0.2583008,0.1499023,7,5,-3,-2,-3,-5,9,10,-1,-6,-4,-1,-3,-2,20,13,-1.5625,-1.5625,-1.5625,-19.8125,-19.8125,-19.8125,6.59257,6.918256,4.108163,2.946994,2.876101,3.668584,-0.1665429,-0.409112,1.423589,0.322638,0.3943042,1.364354,0.02414002,0.4479324,1.545888,-0.1318407,-0.4083037,1.39319,0.25236,0.3833166,1.367189,0.02300938,-0.01085739,1.545058,0.02302183,-0.3259201,1.519221,-0.1560303,0.1648986,1.543828,-0.05440616,-0.3178163,1.487348,-0.1929709,-0.1088502,1.537221,0.3817912,0.1016511,1.383226,NA,NA,NotTracked,Open,
-0.9570313,0.3027344,0.1977539,0.9853516,-0.2583008,0.1499023,0,-1,-7,-9,-4,-2,-2,-13,-1,-6,-4,-1,-3,-2,20,13,-0.5,-0.5,-0.5,-19.8125,-19.8125,-19.8125,6.583681,6.906773,4.101967,2.946994,2.876101,3.668584,-0.1608803,-0.4319042,1.419605,0.3228415,0.3928996,1.363107,0.02412588,0.4480454,1.546277,-0.1250102,-0.4188447,1.392306,0.2836564,0.3676991,1.404,0.02304348,-0.01106712,1.545281,0.02333217,-0.3262157,1.519301,-0.1562072,0.1646475,1.54445,-0.05396168,-0.3182094,1.487469,-0.1928278,-0.1090479,1.537096,0.3819258,0.1015702,1.383432,NA,NA,NotTracked,Open,
-0.9375,0.2973633,0.2114258,0.9853516,-0.2583008,0.1499023,-16,-10,-20,-9,-6,-9,-19,-35,-1,-6,-4,-1,-3,-2,20,13,-3.3125,-3.3125,-3.3125,-19.8125,-19.8125,-19.8125,6.584835,6.900636,4.106823,2.946994,2.876101,3.668584,-0.1632978,-0.417547,1.425747,0.3234659,0.3925774,1.361182,0.02412955,0.4480877,1.546522,-0.1292203,-0.4139856,1.394117,0.2924041,0.3642988,1.398429,0.02311114,-0.01124155,1.545467,0.0234691,-0.3263324,1.519397,-0.1547285,0.1657707,1.541431,-0.05379279,-0.3183224,1.487612,-0.1927328,-0.1092458,1.537204,0.3818972,0.1013243,1.383535,NA,NA,NotTracked,Open,
-0.9023438,0.2915039,0.206543,0.9853516,-0.2583008,0.1499023,-5,-13,1,4,-2,2,0,0,-1,-6,-4,-1,-3,-2,20,13,-3.8125,-3.8125,-3.8125,-19.8125,-19.8125,-19.8125,6.584987,6.892559,4.111524,2.946994,2.876101,3.668584,-0.1649842,-0.4081098,1.430206,0.3225608,0.3915408,1.359516,0.02413262,0.44809,1.546584,-0.1260765,-0.383212,1.403721,0.2708526,0.3685939,1.380528,0.02318008,-0.0113428,1.545622,0.02353693,-0.326446,1.519485,-0.1547466,0.1654848,1.54215,-0.05368792,-0.3184404,1.487748,-0.1926964,-0.1092382,1.537256,0.3819105,0.1012371,1.383553,NA,NA,NotTracked,Open,
-0.8701172,0.2910156,0.203125,0.9853516,-0.2583008,0.1499023,-9,-2,-5,0,-1,0,-3,-25,-1,-6,-4,-1,-3,-2,20,13,-3.1875,-3.1875,-3.1875,-19.8125,-19.8125,-19.8125,6.580916,6.885861,4.109728,2.946994,2.876101,3.668584,-0.1653804,-0.4078108,1.430831,0.3222072,0.3907298,1.357503,0.02417736,0.448074,1.546688,-0.1312837,-0.4133844,1.394896,0.287228,0.3622716,1.401,0.02324734,-0.01153647,1.545759,0.02361817,-0.3265558,1.51959,-0.1535573,0.1665084,1.539928,-0.05361581,-0.3184971,1.487809,-0.1925503,-0.1095462,1.537373,0.3818294,0.1006729,1.383624,NA,NA,NotTracked,Open,
-0.7631836,0.265625,0.2363281,0.9853516,-0.2583008,0.1499023,15,0,-1,-1,-6,-7,-5,-5,-1,-6,-4,-1,-3,-2,20,13,-6.125,-6.125,-6.125,-19.8125,-19.8125,-19.8125,6.556578,6.860867,4.091509,2.946994,2.876101,3.668584,-0.1657122,-0.4084659,1.430552,0.3234966,0.3886277,1.352327,0.02419754,0.4480489,1.546746,-0.1272739,-0.3853089,1.404034,0.2935263,0.3538944,1.394529,0.02331399,-0.01170908,1.545867,0.02368942,-0.3266401,1.519657,-0.1538369,0.1659639,1.54173,-0.05353191,-0.3185754,1.487884,-0.1924571,-0.109572,1.537434,0.3816297,0.09937866,1.383907,NA,NA,NotTracked,Open,
-0.5864258,0.2089844,0.2456055,0.9853516,-0.2583008,0.1499023,12,11,3,3,6,-1,-19,1,-1,-6,-4,-1,-3,-2,20,13,-6.875,-6.875,-6.875,-19.8125,-19.8125,-19.8125,6.519193,6.801607,4.059859,2.946994,2.876101,3.668584,-0.1657725,-0.408178,1.431213,0.3265403,0.3823119,1.344819,0.02421285,0.448027,1.546775,-0.12895,-0.4031671,1.399359,0.2944971,0.3549119,1.385917,0.02348696,-0.01190559,1.546079,0.02381429,-0.3267795,1.519747,-0.1540526,0.1652122,1.543306,-0.05335689,-0.3187355,1.488029,-0.1923677,-0.1097415,1.537686,0.3812873,0.09765156,1.384165,NA,NA,NotTracked,Open,
-0.5078125,0.2036133,0.2788086,0.9853516,-0.2583008,0.1499023,22,2,2,5,4,-2,-3,14,-1,-6,-4,-1,-3,-2,20,13,-12.375,-12.375,-12.375,-19.8125,-19.8125,-19.8125,6.49696,6.751528,4.044746,2.946994,2.876101,3.668584,-0.1668764,-0.4087178,1.432367,0.3318762,0.3700248,1.331777,0.02425221,0.4479913,1.546908,-0.1284626,-0.3968039,1.400948,0.2919752,0.3526863,1.392375,0.02345889,-0.01218712,1.54638,0.02387354,-0.3269356,1.519994,-0.1541701,0.164885,1.544298,-0.05327639,-0.3188774,1.488279,-0.1922332,-0.1096301,1.538027,0.3789596,0.08577945,1.386849,NA,NA,NotTracked,Open,
-0.4047852,0.2661133,0.3466797,0.9853516,-0.2583008,0.1499023,-6,-1,-6,-9,4,10,0,-10,-1,-6,-4,-1,-3,-2,20,13,-10.9375,-10.9375,-10.9375,-19.8125,-19.8125,-19.8125,6.459293,6.508374,4.028934,2.946994,2.876101,3.668584,-0.1611289,-0.4329256,1.423415,0.3363525,0.3497483,1.310689,0.02429158,0.4479437,1.546923,-0.1208851,-0.4059199,1.402277,0.3317991,0.3642917,1.3875,0.02406929,-0.0119435,1.546175,0.0239382,-0.3269258,1.520096,-0.1527716,0.1661152,1.540919,-0.05318157,-0.3188377,1.488365,-0.192117,-0.109932,1.53816,0.3758256,0.06989861,1.388865,NA,NA,NotTracked,Open,
-0.3183594,0.4013672,0.4155273,0.9853516,-0.2583008,0.1499023,0,1,-6,0,2,0,-4,-6,-1,-6,-4,-1,-3,-2,20,13,-49.5625,-49.5625,-49.5625,-19.8125,-19.8125,-19.8125,6.445673,6.250234,4.068968,2.946994,2.876101,3.668584,-0.1655927,-0.4111067,1.431624,0.340705,0.3212255,1.285288,0.02431631,0.447756,1.54692,-0.1281747,-0.3966412,1.40131,0.2675356,0.3169228,1.269914,0.02410546,-0.0120958,1.546345,0.02406703,-0.3268887,1.520249,-0.1522084,0.1667033,1.539202,-0.05302664,-0.3187763,1.488495,-0.1918674,-0.110771,1.538097,0.3690695,0.04941552,1.394372,NA,NA,NotTracked,Open,
-0.3305664,0.5229492,0.4838867,0.9853516,-0.2583008,0.1499023,0,-2,-2,-2,-1,4,3,-7,-1,-6,-4,-1,-3,-2,20,13,-54.6875,-54.6875,-54.6875,-19.8125,-19.8125,-19.8125,6.430725,6.096033,4.092316,2.946994,2.876101,3.668584,-0.1592065,-0.4326457,1.424471,0.3495321,0.2254162,1.223803,0.02441433,0.4475083,1.546997,-0.1237207,-0.4215501,1.396489,0.3369262,0.253466,1.296546,0.02457776,-0.01209022,1.546419,0.02445428,-0.3268043,1.520678,-0.152644,0.165975,1.540154,-0.05263163,-0.3187171,1.488851,-0.191661,-0.1116782,1.538199,0.3559694,0.04492697,1.383689,NA,NA,NotTracked,Unknown,
-0.371582,0.6333008,0.5166016,0.9853516,-0.2583008,0.1499023,-4,1,3,3,-2,-2,0,-2,-1,-6,-4,-1,-3,-2,20,13,-27.3125,-27.3125,-27.3125,-19.8125,-19.8125,-19.8125,6.414168,5.752207,4.136876,2.946994,2.876101,3.668584,-0.1594617,-0.4334724,1.424271,0.3482198,0.1553393,1.197659,0.02445258,0.447408,1.546969,-0.1226449,-0.4199216,1.397253,0.2851261,0.16731,1.204167,0.02459862,-0.01216139,1.546536,0.02477297,-0.3266442,1.520928,-0.1522562,0.166488,1.538733,-0.05233493,-0.3185833,1.488907,-0.1916662,-0.112348,1.538251,0.3068776,-0.04010666,1.463934,NA,NA,NotTracked,Unknown,
-0.2348633,0.7592773,0.5693359,0.9853516,-0.2583008,0.1499023,-3,-5,-5,-5,-4,-1,8,2,-1,-6,-4,-1,-3,-2,20,13,-11,-11,-11,-19.8125,-19.8125,-19.8125,6.425351,5.351127,4.204783,2.946994,2.876101,3.668584,-0.1589003,-0.4361123,1.4227,0.3432024,0.06983471,1.195045,0.02447655,0.4471951,1.546899,-0.1215672,-0.4370516,1.393695,0.285427,0.1066277,1.188917,0.02475149,-0.01227819,1.546764,0.02516226,-0.3264485,1.521259,-0.1529877,0.1656241,1.540446,-0.05193684,-0.3184323,1.488999,-0.1916748,-0.1123459,1.538241,0.3105381,-0.08781103,1.460163,NA,NA,NotTracked,Unknown,
-0.01757813,0.9360352,0.6435547,0.9853516,-0.2583008,0.1499023,-3,0,4,-1,1,1,8,6,-1,-6,-4,-1,-3,-2,20,13,15.625,15.625,15.625,-19.8125,-19.8125,-19.8125,6.43779,4.913233,4.271103,2.946994,2.876101,3.668584,-0.1640372,-0.4108532,1.430499,0.335368,-0.02106696,1.188888,0.02451052,0.4470316,1.546898,-0.1312731,-0.4130103,1.394197,0.2910762,0.02839441,1.180875,0.02493995,-0.01238433,1.546929,0.02553231,-0.3261764,1.52156,-0.1533286,0.1651289,1.541763,-0.0515486,-0.3182379,1.489127,-0.1916909,-0.112422,1.538258,0.290169,-0.09209011,1.48269,NA,NA,NotTracked,Unknown,
0.2426758,0.987793,0.6269531,0.9853516,-0.2583008,0.1499023,0,-5,-2,-3,-1,0,10,14,-1,-6,-4,-1,-3,-2,20,13,74.1875,74.1875,74.1875,-19.8125,-19.8125,-19.8125,6.492516,4.482743,4.335782,2.946994,2.876101,3.668584,-0.1575923,-0.4349978,1.42186,0.3219813,-0.1198778,1.176586,0.02454208,0.446903,1.546816,-0.1166642,-0.4058295,1.4042,0.2834564,-0.0657658,1.1605,0.02498853,-0.01240725,1.547023,0.02576208,-0.3259853,1.521767,-0.1527166,0.1660395,1.539665,-0.05134394,-0.3181364,1.489111,-0.1916323,-0.1131614,1.538066,0.2810045,-0.09072566,1.498409,NA,NA,NotTracked,Unknown,
0.5351563,1.008789,0.6782227,0.9853516,-0.2583008,0.1499023,3,4,-5,0,-2,-5,-6,-2,-1,-6,-4,-1,-3,-2,20,13,89.6875,89.6875,89.6875,-19.8125,-19.8125,-19.8125,6.5315,4.27738,4.364675,2.946994,2.876101,3.668584,-0.157804,-0.435335,1.423251,0.3107531,-0.2140681,1.199479,0.02457446,0.4468482,1.546818,-0.1206516,-0.4152824,1.399397,0.300646,-0.1930283,1.15528,0.02503305,-0.01245304,1.547101,0.02600225,-0.3258087,1.522017,-0.1534021,0.165443,1.541317,-0.05115025,-0.3180676,1.489084,-0.1916468,-0.113159,1.538117,0.2792613,-0.08819895,1.505245,NA,NA,NotTracked,Unknown,
0.9477539,1.006348,0.6821289,0.9853516,-0.2583008,0.1499023,8,3,2,0,2,4,13,-4,-1,-6,-4,-1,-3,-2,20,13,65.375,65.375,65.375,-19.8125,-19.8125,-19.8125,6.584335,3.925119,4.414112,2.946994,2.876101,3.668584,-0.157233,-0.4345897,1.423378,0.2933262,-0.2904498,1.225735,0.02462411,0.4467883,1.546839,-0.1207918,-0.4152657,1.399564,0.2478884,-0.2420063,1.1782,0.02509174,-0.01253689,1.547239,0.02615936,-0.3256495,1.522261,-0.153823,0.1649226,1.542994,-0.05102651,-0.3179946,1.489129,-0.1916077,-0.1135576,1.538164,0.2801629,-0.08882853,1.50746,NA,NA,NotTracked,Unknown,
0.8618164,0.8393555,0.5507813,0.9853516,-0.2583008,0.1499023,5,2,-2,0,1,4,3,1,-1,-6,-4,-1,-3,-2,20,13,65.625,65.625,65.625,-19.8125,-19.8125,-19.8125,6.605428,3.778946,4.43698,2.946994,2.876101,3.668584,-0.1582983,-0.4354688,1.422965,0.279791,-0.3349845,1.274546,0.02476212,0.4465878,1.546653,-0.1195974,-0.4116842,1.400186,0.2360798,-0.3219101,1.244538,0.02509728,-0.01255255,1.547253,0.02633298,-0.3255341,1.522374,-0.1534097,0.1657023,1.540869,-0.05082864,-0.3178814,1.489067,-0.1916064,-0.1137394,1.538135,0.2700846,-0.08596064,1.511958,NA,NA,NotTracked,Unknown,
1.041504,0.7299805,0.2978516,0.9853516,-0.2583008,0.1499023,0,3,-1,0,2,-4,-5,-78,-1,-6,-4,-1,-3,-2,20,13,83.75,83.75,83.75,-19.8125,-19.8125,-19.8125,6.677971,3.522489,4.460341,2.946994,2.876101,3.668584,-0.1649372,-0.4123658,1.431499,0.267289,-0.3845856,1.317745,0.02490403,0.446471,1.546576,-0.1270905,-0.3975597,1.402927,0.2232093,-0.3762717,1.288778,0.02528442,-0.01264285,1.547401,0.02665205,-0.3254197,1.522591,-0.154301,0.1651693,1.543169,-0.05050142,-0.3177933,1.489075,-0.1916554,-0.113966,1.53817,0.2664019,-0.08900405,1.512596,NA,NA,NotTracked,Unknown,
1.072266,0.7143555,0.1879883,0.9853516,-0.2583008,0.1499023,-3,0,2,0,2,9,-1,-6,-1,-6,-4,-1,-3,-2,20,13,58.25,58.25,58.25,-19.8125,-19.8125,-19.8125,6.746029,3.335805,4.468192,2.946994,2.876101,3.668584,-0.1642652,-0.415084,1.429312,0.2591628,-0.4058582,1.354758,0.02523554,0.4462966,1.546331,-0.1220258,-0.3971277,1.407137,0.210063,-0.4090936,1.327381,0.02536813,-0.0126922,1.547429,0.02679344,-0.325404,1.522679,-0.1547343,0.1647163,1.544047,-0.05033109,-0.317786,1.489042,-0.1917975,-0.1140646,1.53814,0.2629163,-0.09397697,1.513432,NA,NA,NotTracked,Unknown,
1.044922,0.5551758,0.1743164,0.9853516,-0.2583008,0.1499023,-14,1,1,-1,-2,-9,-4,-21,-1,-6,-4,-1,-3,-2,20,13,57.1875,57.1875,57.1875,-19.8125,-19.8125,-19.8125,6.800345,3.214155,4.477562,2.946994,2.876101,3.668584,-0.1641758,-0.4119141,1.430531,0.2544469,-0.412827,1.383505,0.0256809,0.4462446,1.546196,-0.1233312,-0.4043557,1.402521,0.205406,-0.4234732,1.354238,0.02537311,-0.01269362,1.547435,0.02685995,-0.3253251,1.522799,-0.1549472,0.1648581,1.544621,-0.05024171,-0.3176917,1.489045,-0.1918897,-0.1140444,1.538212,0.2601376,-0.09712432,1.515382,NA,NA,NotTracked,Unknown,
0.9775391,0.5498047,0.1831055,0.9853516,-0.2583008,0.1499023,6,0,0,-1,1,-2,-4,13,-1,-6,-4,-1,-3,-2,20,13,65.625,65.625,65.625,-19.8125,-19.8125,-19.8125,6.852722,3.145255,4.502613,2.946994,2.876101,3.668584,-0.1656961,-0.4162575,1.430456,0.2480867,-0.4104942,1.406788,0.02624824,0.4461075,1.546004,-0.1253016,-0.4032606,1.402355,0.1991432,-0.4329639,1.36975,0.02541725,-0.01272613,1.547434,0.02689812,-0.3253154,1.522831,-0.1550841,0.164857,1.545056,-0.05017345,-0.317659,1.488987,-0.1921304,-0.1141064,1.538314,0.2578685,-0.09996984,1.517864,NA,NA,NotTracked,Unknown,
0.9775391,0.5498047,0.1831055,0.9853516,-0.2583008,0.1499023,1,-1,-4,-1,-6,10,8,8,-1,-6,-4,-1,-3,-2,20,13,65.625,65.625,65.625,-19.8125,-19.8125,-19.8125,6.852722,3.145255,4.502613,2.946994,2.876101,3.668584,-0.1664093,-0.4162986,1.431328,0.2400424,-0.4097521,1.423422,0.02771569,0.4459996,1.545379,-0.1226143,-0.3793032,1.409526,0.1992798,-0.3959695,1.403345,0.02544806,-0.01273841,1.547428,0.02696398,-0.3252068,1.522977,-0.1553664,0.1649347,1.545512,-0.05004741,-0.317478,1.488875,-0.1922931,-0.1141867,1.538392,0.2544526,-0.103467,1.52285,NA,NA,NotTracked,NotTracked,
0.8842773,0.5107422,0.1972656,0.9853516,-0.2583008,0.1499023,-1,1,1,2,-1,-30,-5,1,-1,-6,-4,-1,-3,-2,20,13,47.8125,47.8125,47.8125,-19.8125,-19.8125,-19.8125,6.897924,3.094733,4.593829,2.946994,2.876101,3.668584,-0.1674774,-0.4159043,1.431763,0.2362385,-0.4089715,1.426588,0.02821912,0.4459629,1.545233,-0.1244092,-0.3901855,1.40675,0.1956613,-0.4166356,1.398189,0.02545138,-0.01272899,1.547452,0.02696248,-0.3250677,1.523193,-0.1554544,0.1649929,1.545681,-0.05003057,-0.3173479,1.48886,-0.1924829,-0.1140323,1.53848,0.2528959,-0.1045938,1.525264,NA,NA,NotTracked,NotTracked,
0.8754883,0.4775391,0.1762695,0.9853516,-0.2583008,0.1499023,0,-4,-2,0,-4,-6,-2,13,-1,-6,-4,-1,-3,-2,20,13,36.8125,36.8125,36.8125,-19.8125,-19.8125,-19.8125,6.899521,3.092668,4.614114,2.946994,2.876101,3.668584,-0.1674946,-0.4162594,1.43246,0.2339713,-0.4075312,1.428935,0.02862489,0.4458981,1.545115,-0.1245263,-0.3871644,1.408032,0.1932244,-0.4010947,1.402538,0.02547307,-0.01272762,1.5475,0.02699067,-0.3249346,1.523499,-0.1555882,0.1649755,1.545844,-0.05000661,-0.3172526,1.488934,-0.1926027,-0.114038,1.538488,0.2516156,-0.1049633,1.526717,NA,NA,NotTracked,NotTracked,
0.8955078,0.453125,0.1445313,0.9853516,-0.2583008,0.1499023,0,0,-1,0,3,1,-1,-12,-1,-6,-4,-1,-3,-2,20,13,13.8125,13.8125,13.8125,-19.8125,-19.8125,-19.8125,6.898657,3.096531,4.638263,2.946994,2.876101,3.668584,-0.1678558,-0.415619,1.430947,0.2326618,-0.404332,1.428019,0.02901209,0.4458387,1.544863,-0.123954,-0.3937259,1.407006,0.1919523,-0.3927295,1.400686,0.02546783,-0.01272719,1.547498,0.02695986,-0.3248602,1.523602,-0.1556395,0.1649923,1.545857,-0.0500258,-0.317142,1.488892,-0.1928664,-0.1140828,1.538428,0.2506785,-0.1049933,1.527479,NA,NA,NotTracked,NotTracked,
0.9082031,0.3833008,0.1313477,0.9853516,-0.2583008,0.1499023,-3,2,0,-2,-1,5,5,1,-1,-6,-4,-1,-3,-2,20,13,6.125,6.125,6.125,-19.8125,-19.8125,-19.8125,6.901398,3.101065,4.644999,2.946994,2.876101,3.668584,-0.1629482,-0.4336932,1.424287,0.2312128,-0.4044933,1.427337,0.02919463,0.445751,1.54469,-0.1210233,-0.4042158,1.406022,0.1919582,-0.3967467,1.398958,0.02546763,-0.01274738,1.547531,0.02691557,-0.3247881,1.523776,-0.1558038,0.1649918,1.545878,-0.05004707,-0.3170715,1.488908,-0.1928935,-0.1139503,1.538328,0.2499819,-0.1050212,1.527748,NA,NA,NotTracked,NotTracked,
0.9291992,0.296875,0.1176758,0.9853516,-0.2583008,0.1499023,0,1,1,-1,9,35,4,0,-1,-6,-4,-1,-3,-2,20,13,15.0625,15.0625,15.0625,-19.8125,-19.8125,-19.8125,6.904217,3.101738,4.656088,2.946994,2.876101,3.668584,-0.1662182,-0.4191351,1.42874,0.2296292,-0.4046975,1.426466,0.02930298,0.4456501,1.544621,-0.1272265,-0.4059288,1.401262,0.1899627,-0.4055493,1.397629,0.02545665,-0.01274658,1.547558,0.02693173,-0.3247138,1.523926,-0.1558477,0.1649991,1.545889,-0.05003759,-0.3170072,1.488906,-0.1931684,-0.1136487,1.538269,0.2494039,-0.1048734,1.527855,NA,NA,NotTracked,NotTracked,
0.9404297,0.2856445,0.1210938,0.9853516,-0.2583008,0.1499023,-3,-4,-3,-3,-3,10,-11,-5,-1,-6,-4,-1,-3,-2,20,13,24.9375,24.9375,24.9375,-19.8125,-19.8125,-19.8125,6.910058,3.101244,4.664665,2.946994,2.876101,3.668584,-0.1666842,-0.4182489,1.428244,0.2287303,-0.4045233,1.424331,0.02937403,0.445607,1.544542,-0.1298115,-0.4219976,1.394422,0.1878451,-0.4078901,1.39327,0.02535127,-0.01273368,1.547587,0.02686279,-0.3246441,1.523998,-0.1560809,0.1650331,1.545982,-0.05010663,-0.3169057,1.4889,-0.1933982,-0.1129519,1.538198,0.2483853,-0.1046335,1.527556,NA,NA,NotTracked,NotTracked,
0.9394531,0.2851563,0.1000977,0.9853516,-0.2583008,0.1499023,-2,-2,-1,-2,-2,8,0,-2,-1,-6,-4,-1,-3,-2,20,13,37.5625,37.5625,37.5625,-19.8125,-19.8125,-19.8125,6.933322,3.098835,4.681798,2.946994,2.876101,3.668584,-0.1668254,-0.4148915,1.428134,0.2263858,-0.4038089,1.422076,0.02946389,0.4455639,1.544462,-0.1291158,-0.3994267,1.401,0.1859684,-0.3928046,1.395309,0.02524615,-0.01274156,1.54759,0.02677293,-0.3245661,1.52407,-0.1563789,0.1649708,1.545926,-0.05020212,-0.3167694,1.488838,-0.1934202,-0.1129531,1.537958,0.2473757,-0.1041892,1.526976,NA,NA,NotTracked,NotTracked,
0.921875,0.2954102,0.08349609,0.9853516,-0.2583008,0.1499023,1,-1,-3,-1,-8,15,6,-5,-1,-6,-4,-1,-3,-2,20,13,34.5,34.5,34.5,-19.8125,-19.8125,-19.8125,6.961474,3.096426,4.695895,2.946994,2.876101,3.668584,-0.1665139,-0.4145323,1.429345,0.224838,-0.4041835,1.421602,0.02947334,0.4455729,1.544461,-0.13078,-0.4145221,1.396879,0.1847567,-0.4091551,1.391389,0.0251351,-0.01272749,1.547667,0.02669721,-0.3244749,1.524198,-0.1565049,0.1649777,1.545942,-0.05026767,-0.3166689,1.488876,-0.1937391,-0.1126701,1.537741,0.2464474,-0.1036684,1.526336,NA,NA,NotTracked,NotTracked,
0.9145508,0.2890625,0.04345703,0.9853516,-0.2583008,0.1499023,-3,-1,0,1,-1,-10,-3,-7,-1,-6,-4,-1,-3,-2,20,13,24.125,24.125,24.125,-19.8125,-19.8125,-19.8125,6.987452,3.091478,4.70142,2.946994,2.876101,3.668584,-0.1662363,-0.4113118,1.429893,0.2232134,-0.4036009,1.420814,0.02950452,0.4455711,1.544431,-0.1287185,-0.408943,1.399031,0.1830263,-0.3883976,1.394786,0.02509449,-0.0127088,1.547676,0.02668611,-0.3244424,1.52422,-0.1567005,0.1649702,1.54596,-0.0502759,-0.3166237,1.488859,-0.1937548,-0.1125481,1.537533,0.2457242,-0.1032354,1.525694,NA,NA,NotTracked,NotTracked,
0.9287109,0.3027344,0.05859375,0.9853516,-0.2583008,0.1499023,-1,0,0,1,0,-6,0,1,-1,-6,-4,-1,-3,-2,20,13,2.8125,2.8125,2.8125,-19.8125,-19.8125,-19.8125,6.999556,3.086893,4.700208,2.946994,2.876101,3.668584,-0.1666696,-0.4115384,1.431144,0.2232165,-0.4039195,1.42121,0.0295064,0.4455619,1.544423,-0.1285127,-0.4068909,1.400756,0.1831282,-0.389715,1.394601,0.02503799,-0.01269651,1.547701,0.02661493,-0.3243721,1.524305,-0.1568624,0.1650705,1.54585,-0.05033428,-0.3165248,1.488876,-0.1938254,-0.1125109,1.537445,0.2451223,-0.1032972,1.525229,NA,NA,NotTracked,NotTracked,
0.9282227,0.2895508,0.1010742,0.9853516,-0.2583008,0.1499023,0,-1,-2,-2,-2,-8,2,-1,-1,-6,-4,-1,-3,-2,20,13,-11.375,-11.375,-11.375,-19.8125,-19.8125,-19.8125,6.983819,3.083834,4.706241,2.946994,2.876101,3.668584,-0.1634305,-0.4306194,1.425254,0.222843,-0.4039221,1.420734,0.02950817,0.445558,1.544417,-0.1260543,-0.4102011,1.401283,0.1814485,-0.3901553,1.396226,0.02499248,-0.01269402,1.547714,0.02658724,-0.3243078,1.5244,-0.1568779,0.1650688,1.545838,-0.0503565,-0.316437,1.488907,-0.1938049,-0.1125592,1.537372,0.2449491,-0.1032626,1.524963,NA,NA,NotTracked,NotTracked,
0.9296875,0.2827148,0.1162109,0.9853516,-0.2583008,0.1499023,-1,-1,-2,-1,-1,-1,-2,-4,-1,-6,-4,-1,-3,-2,20,13,-12.0625,-12.0625,-12.0625,-19.8125,-19.8125,-19.8125,6.971189,3.082741,4.712211,2.946994,2.876101,3.668584,-0.1654372,-0.4153936,1.428912,0.2229725,-0.4041166,1.420891,0.02952434,0.4456339,1.544372,-0.1302348,-0.4146149,1.396037,0.1807059,-0.3853604,1.396429,0.02494818,-0.01264995,1.547706,0.02655113,-0.3242274,1.524484,-0.1570362,0.1651251,1.545743,-0.05038761,-0.3163357,1.48893,-0.1939122,-0.1124815,1.537272,0.2445585,-0.103082,1.524496,NA,NA,NotTracked,NotTracked,
0.9174805,0.2919922,0.1401367,0.9853516,-0.2583008,0.1499023,-1,0,-1,0,-3,-3,1,-1,-1,-6,-4,-1,-3,-2,20,13,-5.1875,-5.1875,-5.1875,-19.8125,-19.8125,-19.8125,6.945989,3.079964,4.730036,2.946994,2.876101,3.668584,-0.1631245,-0.4313714,1.426138,0.2230024,-0.4041226,1.421639,0.02955448,0.4456465,1.544139,-0.1263447,-0.4239849,1.397649,0.1809282,-0.3795891,1.398451,0.02494647,-0.01264374,1.547709,0.02654725,-0.3241985,1.524526,-0.1570925,0.1651072,1.545726,-0.05038936,-0.3163043,1.488947,-0.1938815,-0.1125712,1.537246,0.2445216,-0.1029651,1.524464,NA,NA,NotTracked,NotTracked,
0.9140625,0.3154297,0.1464844,0.9853516,-0.2583008,0.1499023,-2,-2,0,2,0,-2,-3,1,-1,-6,-4,-1,-3,-2,20,13,-2.8125,-2.8125,-2.8125,-19.8125,-19.8125,-19.8125,6.925555,3.079634,4.747173,2.946994,2.876101,3.668584,-0.1658896,-0.4185114,1.429095,0.2228553,-0.4044376,1.421178,0.02960126,0.4456537,1.544035,-0.1284998,-0.4142347,1.398546,0.1812945,-0.3830387,1.398088,0.02493073,-0.01259249,1.547701,0.02655018,-0.3241705,1.524536,-0.1570953,0.1651867,1.545661,-0.05038406,-0.3162673,1.488942,-0.1938801,-0.112588,1.537197,0.2444967,-0.1029525,1.524408,NA,NA,NotTracked,NotTracked,
