ALX,ALY,ALZ,ARX,ARY,ARZ,EMG0L,EMG1L,EMG2L,EMG3L,EMG4L,EMG5L,EMG6L,EMG7L,EMG0R,EMG1R,EMG2R,EMG3R,EMG4R,EMG5R,EMG6R,EMG7R,GLX,GLY,GLZ,GRX,GRY,GRZ,ORL,OPL,OYL,ORR,OPR,OYR,LHNX,LHNY,LHNZ,RHNX,RHNY,RHNZ,HX,HY,HZ,LTX,LTY,LTZ,RTX,RTY,RTZ,SpineMidX,SpineMidY,SpineMidZ,SpineBaseX,SpineBaseY,SpineBaseZ,ShoulderLeftX,ShoulderLeftY,ShoulderLeftZ,ShoulderRightX,ShoulderRightY,ShoulderRightZ,ElbowLeftX,ElbowLeftY,ElbowLeftZ,ElbowRightX,ElbowRightY,ElbowRightZ,Myo_Pose_left,Myo_Pose_Right,Kinect_pose_left,Kinect_pose_right
0.9277344,0.2817383,0.1069336,0.9384766,-0.3183594,0.09765625,-3,-3,0,-1,0,0,-1,0,0,-1,-3,0,0,-1,-1,1,-0.1875,-0.1875,-0.1875,0.8125,0.8125,0.8125,6.914358,2.992726,5.683834,2.99909,3.043275,6.393889,-0.1444586,-0.4101044,1.434742,0.2549249,-0.4073869,1.425111,0.05895242,0.4436547,1.529036,-0.1844975,-0.4095296,1.464304,0.2104696,-0.3858567,1.399322,0.05377451,-0.01309425,1.545138,0.05516033,-0.3241209,1.52651,-0.1284393,0.1672719,1.542236,-0.02167302,-0.3152124,1.491638,-0.1659016,-0.1092183,1.540692,0.2711529,-0.1039816,1.525607,NA,NA,NotTracked,NotTracked,
0.9311523,0.2817383,0.1108398,0.9370117,-0.3203125,0.09960938,3,1,-1,-1,-1,0,-1,2,0,0,-2,0,1,-1,1,0,0.375,0.375,0.375,0.5625,0.5625,0.5625,6.913268,2.992803,5.685027,2.998696,3.043259,6.394122,-0.1443972,-0.4126735,1.433297,0.2553006,-0.4078178,1.424381,0.05895004,0.4436068,1.52903,-0.1837909,-0.4303205,1.46325,0.2106149,-0.3857636,1.399124,0.05376958,-0.01312176,1.545124,0.05515641,-0.3241483,1.526496,-0.128449,0.16722,1.542179,-0.0216754,-0.3152302,1.491617,-0.1659509,-0.1097751,1.540772,0.2711464,-0.104008,1.525578,NA,NA,NotTracked,NotTracked,
0.9296875,0.2768555,0.1040039,0.9389648,-0.3178711,0.105957,0,-1,-1,0,1,4,4,-5,0,-4,0,0,-3,-1,-1,0,0.5,0.5,0.5,-0.0625,-0.0625,-0.0625,6.913268,2.992803,5.685027,2.99909,3.043275,6.393889,-0.1445439,-0.4126048,1.433006,0.2549617,-0.4077297,1.42331,0.05892795,0.4435747,1.529019,-0.183839,-0.4238777,1.462797,0.2104597,-0.3839443,1.398894,0.05378707,-0.01315811,1.545078,0.05515255,-0.3241769,1.526393,-0.1284597,0.1671871,1.542216,-0.02167979,-0.3152654,1.491526,-0.1659203,-0.1097983,1.540728,0.2711431,-0.1040284,1.525579,NA,NA,NotTracked,NotTracked,
0.9370117,0.2744141,0.1132813,0.9365234,-0.3178711,0.1015625,2,-1,-1,0,-2,-2,0,0,0,-1,-1,-1,-2,-1,-2,-1,-0.125,-0.125,-0.125,-0.0625,-0.0625,-0.0625,6.913268,2.992803,5.685027,2.998696,3.043259,6.394122,-0.1443211,-0.4124546,1.432901,0.2551087,-0.4072965,1.423703,0.05890584,0.4435722,1.529027,-0.184079,-0.413176,1.46205,0.2105661,-0.38542,1.398762,0.05380621,-0.01316876,1.545056,0.05513888,-0.3241706,1.526332,-0.1284747,0.1671926,1.542217,-0.02170347,-0.3152445,1.49144,-0.1659048,-0.109797,1.540765,0.2711831,-0.104049,1.525486,NA,NA,NotTracked,NotTracked,
0.9272461,0.28125,0.1040039,0.9394531,-0.3212891,0.1069336,0,0,-1,-2,-3,7,-1,-2,-1,-1,0,-2,-2,-3,1,-2,1.625,1.625,1.625,0.375,0.375,0.375,6.916382,2.992492,5.683491,2.998584,3.043397,6.394373,-0.1438824,-0.4128515,1.433413,0.2552319,-0.4073662,1.424862,0.05889636,0.4436457,1.529064,-0.1839939,-0.4016431,1.465895,0.210245,-0.3914959,1.398823,0.05380939,-0.0131519,1.545055,0.05513641,-0.3241332,1.526307,-0.1284672,0.1671923,1.542263,-0.02170793,-0.3152091,1.491432,-0.1658418,-0.1098479,1.540848,0.2712191,-0.1040265,1.525497,NA,NA,NotTracked,NotTracked,
0.9458008,0.296875,0.105957,0.9511719,-0.3212891,0.09619141,5,3,1,-1,5,11,6,1,-1,0,-2,0,-2,-3,-1,-1,2.875,2.875,2.875,-2.0625,-2.0625,-2.0625,6.915182,2.99271,5.68806,2.997537,3.04351,6.394317,-0.144108,-0.4128198,1.433236,0.2551514,-0.4074562,1.424495,0.05887149,0.4436271,1.529143,-0.1861653,-0.3891734,1.466654,0.2106933,-0.3829115,1.399234,0.05383907,-0.01315476,1.545086,0.05514388,-0.3241413,1.52632,-0.1284827,0.1670533,1.542417,-0.02170227,-0.3152243,1.491467,-0.1657529,-0.1098118,1.540935,0.2712341,-0.1040097,1.525528,NA,NA,NotTracked,NotTracked,
0.9750977,0.4702148,0.1005859,0.9335938,-0.3237305,0.09570313,-2,-8,-17,1,-2,-4,-4,-4,0,-3,-1,-1,-3,-2,-1,-1,56.8125,56.8125,56.8125,-5.1875,-5.1875,-5.1875,6.910048,3.013167,5.765162,2.99073,3.043832,6.392912,-0.1440549,-0.4125633,1.433743,0.2537381,-0.4058405,1.420058,0.05888753,0.4435642,1.529226,-0.1834774,-0.4351181,1.460857,0.2099885,-0.4091128,1.3995,0.05382977,-0.01317107,1.545115,0.05511011,-0.3241471,1.526348,-0.1284702,0.1670091,1.54248,-0.02174436,-0.3152187,1.491503,-0.1656989,-0.1099047,1.54099,0.271331,-0.1039407,1.525463,NA,NA,NotTracked,NotTracked,
1.01709,0.5151367,0.203125,0.918457,-0.3232422,0.1220703,-4,0,2,2,-4,-12,-7,-3,-2,-3,-2,0,-1,-1,-1,-1,56.875,56.875,56.875,-11.875,-11.875,-11.875,6.844221,3.078246,5.900638,2.982051,3.04397,6.378655,-0.143935,-0.4093437,1.434153,0.2312587,-0.3997249,1.392117,0.05899132,0.4435765,1.529509,-0.1847579,-0.4006029,1.467409,0.1899938,-0.3780698,1.394182,0.05384584,-0.0131793,1.545227,0.05497428,-0.3241501,1.526439,-0.1283924,0.1669901,1.542572,-0.02191017,-0.315115,1.49153,-0.1656872,-0.1095828,1.541216,0.2722901,-0.1013295,1.524082,NA,NA,NotTracked,NotTracked,
0.9262695,0.6396484,0.5493164,0.9521484,-0.3388672,0.1313477,-19,-4,3,3,-8,-1,-4,-13,0,-3,-2,-2,-1,-1,-1,-2,129.0625,129.0625,129.0625,-12.625,-12.625,-12.625,6.685815,3.504184,6.364192,2.979073,3.041754,6.360325,-0.1432604,-0.4092088,1.434862,0.1791235,-0.3424293,1.352134,0.05924129,0.443503,1.529882,-0.1852116,-0.3922027,1.46663,0.1395058,-0.3295404,1.323826,0.05350557,-0.01311001,1.545421,0.0534649,-0.3239142,1.526689,-0.1283452,0.1669513,1.542611,-0.024053,-0.3140301,1.491547,-0.1656526,-0.1095676,1.54119,0.2771004,-0.07479544,1.516372,NA,NA,NotTracked,Unknown,
0.7939453,0.7358398,0.6171875,0.9599609,-0.3203125,0.08642578,-26,4,16,-31,10,11,-9,-11,-1,-1,-1,-3,-2,-4,-2,-2,97.75,97.75,97.75,-13.1875,-13.1875,-13.1875,6.671668,3.912146,6.650221,2.97723,3.043651,6.334589,-0.1427931,-0.4084438,1.432841,0.09958507,-0.2511101,1.337683,0.05999094,0.4434598,1.530257,-0.1840191,-0.398897,1.465527,0.06093776,-0.2101201,1.369845,0.05410829,-0.01300174,1.546225,0.05501752,-0.323824,1.527979,-0.1278965,0.1669087,1.542355,-0.02204311,-0.3139262,1.49261,-0.1654477,-0.1092751,1.540657,0.2818326,-0.06268019,1.505206,NA,NA,NotTracked,Unknown,
0.5395508,0.6767578,0.5615234,0.9477539,-0.2988281,0.07568359,-7,3,0,7,4,2,9,16,-1,-3,-4,-1,-1,-1,-2,-3,53.125,53.125,53.125,-2.625,-2.625,-2.625,6.641329,4.373266,6.901726,2.970451,3.049765,6.328697,-0.1408066,-0.4071212,1.431168,0.02004578,-0.1430977,1.329007,0.06177067,0.4431023,1.531551,-0.1795467,-0.416504,1.460722,-0.01252154,-0.09337419,1.353688,0.05535732,-0.01300856,1.547397,0.05650022,-0.3234535,1.528961,-0.1268245,0.166847,1.542032,-0.01990325,-0.3137677,1.49363,-0.1648358,-0.1087369,1.539964,0.2831057,-0.05994329,1.481843,NA,NA,NotTracked,Unknown,
0.1474609,0.6523438,0.5102539,0.940918,-0.2724609,0.06884766,5,10,-20,-18,-14,-5,-12,-7,0,0,-1,-1,-1,0,0,-1,3.625,3.625,3.625,4.4375,4.4375,4.4375,6.625824,4.9599,7.183587,2.967974,3.052202,6.336383,-0.1329099,-0.4400737,1.420408,0.01882257,-0.04916695,1.359746,0.06402623,0.4426751,1.533182,-0.1751788,-0.4422722,1.44104,0.009261983,-0.09888805,1.396054,0.05664589,-0.01229685,1.548848,0.05797575,-0.3216884,1.530205,-0.1254513,0.1669379,1.542089,-0.01763567,-0.3117623,1.494923,-0.1647647,-0.1090069,1.539068,0.2712525,-0.0554109,1.453127,NA,NA,NotTracked,Unknown,
-0.05273438,0.6416016,0.409668,0.9384766,-0.3115234,0.07861328,35,5,2,-4,-2,1,10,9,-1,-1,-2,0,-1,-2,0,0,1.375,1.375,1.375,6.875,6.875,6.875,6.636966,5.311847,7.337611,2.950898,3.04784,6.36529,-0.1324589,-0.4402809,1.420845,-0.04277331,0.05361586,1.378142,0.06641804,0.4424708,1.534414,-0.176543,-0.4437949,1.4433,-0.03441035,-0.006299715,1.42372,0.05732358,-0.0120077,1.549664,0.0581874,-0.321287,1.530522,-0.1251132,0.1668333,1.541861,-0.01709381,-0.3112467,1.49598,-0.1641687,-0.1097739,1.538927,0.2571664,-0.05175745,1.43647,NA,NA,NotTracked,Unknown,
-0.168457,0.7133789,0.394043,0.9443359,-0.331543,0.08984375,33,11,0,-5,-6,2,8,19,-1,-2,0,-1,-1,-1,0,-1,2.0625,2.0625,2.0625,9.6875,9.6875,9.6875,6.664221,5.54267,7.440328,2.941649,3.043789,6.39104,-0.13857,-0.4114655,1.431654,-0.03353491,0.07830206,1.397843,0.06846719,0.4426843,1.535692,-0.1781931,-0.4133586,1.458105,-0.04446135,0.016101,1.418968,0.05776669,-0.01181058,1.550215,0.05828293,-0.3211498,1.530708,-0.113151,0.1695753,1.541035,-0.01683031,-0.3109414,1.497144,-0.1633767,-0.1092316,1.539517,0.2417107,-0.04733633,1.422984,NA,NA,NotTracked,Unknown,
-0.2167969,0.7392578,0.4282227,0.9165039,-0.3466797,0.1005859,-23,-5,-5,-54,-13,-5,0,11,-2,-2,0,0,1,-1,-1,-1,-3.8125,-3.8125,-3.8125,9.1875,9.1875,9.1875,6.685383,5.644804,7.516355,2.938873,3.044685,6.41055,-0.1391725,-0.4093124,1.434529,-0.03766424,0.09681957,1.407187,0.0703164,0.4428509,1.536961,-0.1797314,-0.4221495,1.462333,-0.06878463,0.04960663,1.415,0.05805968,-0.01176378,1.550725,0.05832304,-0.3211081,1.530893,-0.1081867,0.1702292,1.539304,-0.01677668,-0.310876,1.497866,-0.1630209,-0.1066646,1.541452,0.2337221,-0.04460681,1.417251,NA,NA,NotTracked,Unknown,
-0.2832031,0.8017578,0.487793,0.9248047,-0.3598633,0.1191406,1,-4,-2,-51,0,4,-6,-23,-1,-1,-2,-2,-2,0,-1,0,-3.6875,-3.6875,-3.6875,5.5,5.5,5.5,6.703596,5.672657,7.58266,2.942993,3.048369,6.418703,-0.1395683,-0.4094341,1.435069,-0.0325783,0.09973953,1.417251,0.07113557,0.4429256,1.537735,-0.1796494,-0.4172714,1.461572,-0.05764739,0.03152598,1.432,0.0581906,-0.01180816,1.550869,0.05832852,-0.3211574,1.530929,-0.1053143,0.1701566,1.538331,-0.01682012,-0.3110189,1.498231,-0.1627349,-0.1054809,1.542684,0.2281799,-0.04250754,1.413198,NA,NA,NotTracked,Unknown,
-0.34375,0.8012695,0.4765625,0.9296875,-0.3461914,0.1074219,-21,-9,-12,-11,-17,4,4,-21,0,0,-1,-1,-1,2,-2,-2,-4.5,-4.5,-4.5,-0.125,-0.125,-0.125,6.7173,5.684257,7.633497,2.951469,3.051255,6.417833,-0.1401219,-0.4102039,1.436959,-0.02747688,0.1015486,1.431794,0.07155464,0.4428424,1.538385,-0.1816379,-0.3962675,1.464609,-0.0498802,0.0406526,1.433866,0.05835656,-0.01199735,1.551299,0.05822236,-0.3214483,1.531206,-0.1038897,0.1702217,1.538647,-0.0170803,-0.3115189,1.499184,-0.1627594,-0.1048052,1.54386,0.2270663,-0.04358144,1.41084,NA,NA,NotTracked,Unknown,
-0.4399414,0.7460938,0.4023438,0.9248047,-0.3125,0.08496094,9,-6,-8,-15,5,-1,-1,8,-1,-1,0,-2,-2,0,-1,-2,0.1875,0.1875,0.1875,0.8125,0.8125,0.8125,6.763165,5.705126,7.763253,2.952653,3.055654,6.415874,-0.1400147,-0.4099256,1.436107,-0.02714549,0.1020944,1.434228,0.07165272,0.442818,1.538501,-0.1790863,-0.4255902,1.457182,-0.05435531,0.04306899,1.436528,0.05843294,-0.01201903,1.551472,0.05815593,-0.3215227,1.531263,-0.1030352,0.1701958,1.539206,-0.01725655,-0.3116773,1.499678,-0.1626707,-0.1046244,1.544182,0.2264602,-0.04212706,1.40817,NA,NA,NotTracked,Unknown,
-0.4057617,0.8349609,0.4780273,0.9526367,-0.347168,0.09472656,7,3,-5,-53,-17,-10,6,3,-3,-1,-3,0,-2,-1,-1,-2,5.625,5.625,5.625,-1.8125,-1.8125,-1.8125,6.764393,5.690901,7.720737,2.951083,3.056991,6.413699,-0.1401746,-0.4093629,1.435199,-0.03287274,0.1066256,1.426211,0.07172439,0.442793,1.538631,-0.178877,-0.4290653,1.455556,-0.05655222,0.03889865,1.430862,0.05856885,-0.01201036,1.55169,0.05811542,-0.3215474,1.531353,-0.10261,0.1703041,1.539384,-0.0173364,-0.3117182,1.500114,-0.162528,-0.1045599,1.544494,0.2257898,-0.0411828,1.40653,NA,NA,NotTracked,Unknown,
-0.3935547,0.8081055,0.5327148,0.9243164,-0.3520508,0.08251953,-5,8,8,20,7,-1,-11,-20,-1,0,-3,-2,-1,0,-1,-2,4.5625,4.5625,4.5625,-4.9375,-4.9375,-4.9375,6.737888,5.675359,7.669448,2.952124,3.05512,6.411015,-0.1397165,-0.4094682,1.435549,-0.03579174,0.1075209,1.421083,0.07179675,0.4428065,1.538769,-0.1798208,-0.4165764,1.462069,-0.0451068,0.07744756,1.386578,0.05867581,-0.01202802,1.551797,0.0581117,-0.3216278,1.531358,-0.1055355,0.1686116,1.53646,-0.0173459,-0.3118343,1.500233,-0.1622996,-0.1042779,1.544751,0.2255171,-0.0419671,1.405265,NA,NA,NotTracked,Unknown,
-0.371582,0.8242188,0.4995117,0.9321289,-0.3330078,0.09960938,-4,-3,-3,-7,-10,-18,-26,-19,0,-1,-1,0,1,-2,-1,0,1.3125,1.3125,1.3125,2.375,2.375,2.375,6.737548,5.668915,7.676864,2.951437,3.057085,6.410972,-0.1403019,-0.406642,1.437476,-0.03198723,0.1055398,1.426385,0.07182964,0.4428028,1.53916,-0.1819049,-0.3948556,1.469917,-0.05628991,0.03977437,1.433342,0.05884342,-0.0120532,1.55194,0.05815275,-0.3216441,1.531363,-0.1041542,0.1690634,1.537042,-0.01728573,-0.3118383,1.500302,-0.1621873,-0.1042863,1.544976,0.2253357,-0.04104817,1.404318,NA,NA,NotTracked,Unknown,
-0.4345703,0.7978516,0.4135742,0.9394531,-0.3232422,0.09716797,0,-6,-11,9,0,-4,-2,-12,-1,-3,-2,-2,-1,-2,-1,-1,2.375,2.375,2.375,-0.5,-0.5,-0.5,6.764008,5.672854,7.742982,2.950377,3.059646,6.408332,-0.1396813,-0.4062801,1.43535,-0.02744139,0.1019748,1.432351,0.07190375,0.4427173,1.539611,-0.1793003,-0.4300738,1.459,-0.05158578,0.04478484,1.435629,0.058908,-0.01210331,1.551991,0.05815391,-0.3217548,1.531316,-0.1031482,0.16927,1.53786,-0.0172841,-0.3119735,1.500351,-0.1621335,-0.1039857,1.545079,0.2255241,-0.04251068,1.402667,NA,NA,NotTracked,Unknown,
-0.4580078,0.8120117,0.340332,0.9511719,-0.3188477,0.09619141,-19,-1,4,-30,-21,-5,-3,-1,-1,-2,-1,-1,-2,-2,-3,-1,0.1875,0.1875,0.1875,-1.5,-1.5,-1.5,6.777611,5.677496,7.765416,2.954149,3.061101,6.404354,-0.1396134,-0.4056768,1.434493,-0.03196408,0.1048527,1.429157,0.07192685,0.4426802,1.539902,-0.1809436,-0.3996756,1.46392,-0.05675613,0.04027686,1.433351,0.05900516,-0.01213495,1.552009,0.05815895,-0.3218181,1.53118,-0.1026205,0.1694522,1.538302,-0.0172803,-0.3120058,1.500323,-0.1620745,-0.1040223,1.54504,0.2254408,-0.04236603,1.401269,NA,NA,NotTracked,Unknown,
-0.4082031,0.84375,0.434082,0.9267578,-0.3085938,0.07421875,22,-1,-5,4,-7,-7,-3,-16,-1,-3,-2,-1,-1,0,0,0,5.1875,5.1875,5.1875,3.6875,3.6875,3.6875,6.767045,5.66858,7.714647,2.956389,3.060099,6.405424,-0.1396681,-0.4059323,1.43471,-0.03562108,0.1069041,1.422179,0.07203548,0.442788,1.540216,-0.1806996,-0.4044185,1.46332,-0.0383867,0.07076542,1.384622,0.05914211,-0.01208369,1.55206,0.05826119,-0.3218491,1.53108,-0.1022653,0.1695369,1.538316,-0.01720717,-0.3120355,1.500313,-0.1619237,-0.104107,1.545027,0.2253602,-0.0419243,1.400778,NA,NA,NotTracked,Unknown,
-0.3754883,0.828125,0.5097656,0.9262695,-0.3637695,0.09326172,22,13,-6,-20,-8,3,6,8,-1,-1,-1,0,-2,0,-1,-1,3.5,3.5,3.5,-2.3125,-2.3125,-2.3125,6.753644,5.653738,7.678467,2.948773,3.058787,6.40998,-0.1398008,-0.4094332,1.434269,-0.03562154,0.1073009,1.420116,0.07211783,0.4427998,1.540369,-0.1819339,-0.3953939,1.468036,-0.03846109,0.07258002,1.382777,0.0607617,-0.01155402,1.551353,0.05833952,-0.3218411,1.530948,-0.101956,0.1696289,1.538181,-0.01713253,-0.3120054,1.500254,-0.1616858,-0.1038447,1.545082,0.225269,-0.04088627,1.400457,NA,NA,NotTracked,Unknown,
-0.4033203,0.7856445,0.4482422,0.9365234,-0.3295898,0.1098633,-17,-4,-2,0,1,2,9,5,-1,-2,0,0,0,-1,0,0,-2.4375,-2.4375,-2.4375,-1.25,-1.25,-1.25,6.756576,5.655819,7.709645,2.951549,3.058144,6.408638,-0.1394808,-0.4057026,1.434613,-0.03029142,0.1043757,1.425851,0.07221189,0.4428863,1.540719,-0.1799261,-0.414377,1.46375,-0.05850847,0.03920172,1.430568,0.06075468,-0.01157493,1.551379,0.0583848,-0.3218612,1.530808,-0.1017441,0.1696411,1.538311,-0.01709539,-0.3120044,1.500186,-0.1615375,-0.103719,1.545068,0.2253614,-0.04032523,1.400099,NA,NA,NotTracked,Unknown,
-0.434082,0.7915039,0.3774414,0.9355469,-0.3173828,0.09326172,-5,-2,-1,-10,1,-3,1,-3,-1,-1,-2,-1,-1,-2,-3,-1,-1.375,-1.375,-1.375,0.9375,0.9375,0.9375,6.774058,5.663168,7.759164,2.954269,3.058946,6.405883,-0.1391954,-0.4052229,1.433564,-0.0288261,0.1027234,1.429139,0.0722487,0.4429986,1.540915,-0.1805936,-0.4083732,1.463358,-0.05914257,0.03889239,1.430161,0.06072748,-0.01157113,1.551361,0.05842555,-0.3218942,1.530666,-0.1046134,0.1685328,1.537232,-0.01706725,-0.3120417,1.500134,-0.1614795,-0.1037194,1.545021,0.225836,-0.03986394,1.399513,NA,NA,NotTracked,Unknown,
-0.3896484,0.8583984,0.4077148,0.9350586,-0.3364258,0.08300781,34,8,-6,-5,-6,-3,-1,9,-1,1,-2,-2,-2,0,-2,-1,2.25,2.25,2.25,0.125,0.125,0.125,6.761045,5.658121,7.727063,2.956736,3.0597,6.403558,-0.1399755,-0.4084285,1.43327,-0.03294599,0.1034399,1.425861,0.0722288,0.4430731,1.541034,-0.1810436,-0.406375,1.464221,-0.05885845,0.03744938,1.431825,0.0607205,-0.01157565,1.551353,0.05845298,-0.321852,1.530521,-0.1036338,0.1689163,1.537611,-0.01703762,-0.3120039,1.50006,-0.1613561,-0.1039209,1.54486,0.2259692,-0.03952882,1.399304,NA,NA,NotTracked,Unknown,
-0.3789063,0.8588867,0.453125,0.9243164,-0.3320313,0.09179688,5,7,3,14,4,2,4,-3,-1,0,-1,-1,0,0,-1,0,3.375,3.375,3.375,-2.625,-2.625,-2.625,6.752643,5.64956,7.695115,2.954835,3.056463,6.404933,-0.1396885,-0.4090019,1.432842,-0.03444287,0.1038948,1.422103,0.07221828,0.4431102,1.541006,-0.1797802,-0.4247795,1.455384,-0.05880116,0.03810778,1.430625,0.06064857,-0.01151713,1.551333,0.05852362,-0.3218027,1.530314,-0.1031441,0.1691388,1.537652,-0.01695747,-0.3119488,1.499848,-0.1613726,-0.1039336,1.544649,0.2263664,-0.03943207,1.399428,NA,NA,NotTracked,Unknown,
-0.3632813,0.7963867,0.4584961,0.9360352,-0.3334961,0.1035156,3,1,-5,-4,-2,-2,1,4,-2,-1,1,-3,-3,-1,-1,-1,3.0625,3.0625,3.0625,3.6875,3.6875,3.6875,6.743586,5.638136,7.668561,2.951896,3.057807,6.408403,-0.1399574,-0.4084195,1.432076,-0.03527205,0.1039987,1.418813,0.07217214,0.4431021,1.540964,-0.1792427,-0.4259656,1.458454,-0.05875096,0.03833885,1.430155,0.06063447,-0.01156462,1.551212,0.05858978,-0.3218457,1.5299,-0.1028123,0.1692401,1.537657,-0.01687734,-0.3119793,1.499519,-0.1614194,-0.1040691,1.544354,0.2276854,-0.03996576,1.400375,NA,NA,NotTracked,Unknown,
-0.2285156,0.6665039,0.3666992,0.9477539,-0.2973633,0.09228516,2,2,-1,0,-3,1,3,-2,-1,-1,-1,-2,0,1,-2,-1,-8.625,-8.625,-8.625,8.75,8.75,8.75,6.697282,5.559565,7.582486,2.967983,3.061692,6.406752,-0.1403027,-0.408474,1.432298,-0.03857138,0.09639955,1.408112,0.07206214,0.4431008,1.540923,-0.182568,-0.3920976,1.4615,-0.03897529,0.0628538,1.360643,0.06055982,-0.01160959,1.551128,0.05855536,-0.3219083,1.529738,-0.1105665,0.1670396,1.534125,-0.01689278,-0.3120708,1.499359,-0.1614219,-0.1041979,1.544294,0.2317324,-0.04140037,1.403226,NA,NA,NotTracked,Unknown,
-0.2021484,0.6347656,0.3842773,0.9394531,-0.3188477,0.08984375,4,0,-2,-5,-4,2,4,-4,-3,0,0,0,-2,-2,-1,-2,8.4375,8.4375,8.4375,8.5625,8.5625,8.5625,6.654478,5.402526,7.428169,2.978146,3.06199,6.411211,-0.139985,-0.4084809,1.43084,-0.04451227,0.03831645,1.370477,0.07142223,0.4431475,1.540455,-0.1787194,-0.4148295,1.454,-0.03778421,0.01285419,1.321935,0.06035296,-0.01150433,1.550803,0.05846825,-0.3216297,1.529514,-0.1153746,0.1675908,1.538956,-0.01686447,-0.3119385,1.499292,-0.1613915,-0.1061344,1.54401,0.2447424,-0.04674169,1.415003,NA,NA,NotTracked,Unknown,
-0.05810547,0.7739258,0.487793,0.9311523,-0.3222656,0.08349609,1,2,-1,-1,-1,-2,-9,-8,-2,0,0,1,-2,-1,-1,0,-18.375,-18.375,-18.375,10.5625,10.5625,10.5625,6.603628,4.950987,7.198929,2.981414,3.058357,6.426488,-0.1345551,-0.4440328,1.423413,-0.03264717,-0.06480747,1.330477,0.07039513,0.4434296,1.540057,-0.1799104,-0.4350778,1.444857,-0.01634951,-0.04733947,1.287617,0.05996145,-0.01110912,1.550502,0.05804244,-0.3208339,1.529352,-0.1182908,0.1677546,1.542218,-0.0171083,-0.3111586,1.498914,-0.1625583,-0.1075855,1.54362,0.2564912,-0.05327462,1.434482,NA,NA,NotTracked,Unknown,
0.3530273,0.7709961,0.5297852,0.9384766,-0.3769531,0.1240234,-1,0,-2,-3,-4,-2,-1,3,1,-3,0,-1,0,-2,-2,-1,-15.4375,-15.4375,-15.4375,0.8125,0.8125,0.8125,6.599966,4.505816,7.013326,2.974142,3.055828,6.439981,-0.1428664,-0.4093285,1.434053,0.01346553,-0.1832828,1.311149,0.0688142,0.4434539,1.539094,-0.1863306,-0.3948779,1.468555,0.00561627,-0.1566306,1.266441,0.05932051,-0.01105951,1.549829,0.05737026,-0.3208454,1.528852,-0.1201711,0.167851,1.54395,-0.01803255,-0.3113925,1.49781,-0.1627648,-0.1076134,1.544084,0.2697279,-0.05721654,1.454657,NA,NA,NotTracked,Unknown,
0.5913086,0.8662109,0.5449219,0.9370117,-0.3359375,0.1181641,-2,-1,-2,-5,-2,0,3,-3,0,-3,-2,-1,1,-1,-2,1,-42.3125,-42.3125,-42.3125,-1.0625,-1.0625,-1.0625,6.634652,4.099137,6.845943,2.974066,3.058775,6.441708,-0.1442962,-0.4093404,1.434924,0.08756923,-0.2599413,1.328896,0.06741341,0.4434058,1.538225,-0.1836222,-0.4107695,1.460565,0.1184122,-0.2448911,1.287572,0.05862343,-0.01136662,1.549705,0.05657701,-0.3215572,1.529049,-0.121473,0.1678534,1.544946,-0.01877373,-0.3121284,1.497459,-0.1631388,-0.1076834,1.544358,0.2770512,-0.06061087,1.480604,NA,NA,NotTracked,Closed,
0.8779297,0.7368164,0.4790039,0.9174805,-0.3271484,0.1098633,1,2,1,1,1,1,1,-3,0,-1,-1,-2,1,-2,0,-2,-48.25,-48.25,-48.25,-1.3125,-1.3125,-1.3125,6.651475,3.759463,6.679636,2.978065,3.062642,6.434286,-0.1459466,-0.4091029,1.434572,0.1326071,-0.3352872,1.318642,0.06639294,0.4434001,1.537617,-0.1845723,-0.4057875,1.461438,0.1424933,-0.3547876,1.283877,0.05761435,-0.01205092,1.549102,0.05506238,-0.3226726,1.52839,-0.1227398,0.1677658,1.545662,-0.02094521,-0.3127475,1.496052,-0.1634213,-0.1077089,1.544437,0.2757613,-0.06180433,1.485021,NA,NA,NotTracked,Unknown,
0.8681641,0.5483398,0.3696289,0.9321289,-0.3149414,0.09716797,0,1,0,0,0,1,6,-3,0,-3,-2,-1,-4,0,0,2,-78.1875,-78.1875,-78.1875,-4.3125,-4.3125,-4.3125,6.698538,3.43609,6.416567,2.976708,3.05926,6.429522,-0.1457773,-0.4092573,1.432995,0.1812488,-0.3702056,1.341301,0.06544906,0.4434544,1.53669,-0.1876048,-0.3928806,1.4674,0.1988563,-0.3862298,1.311435,0.05560863,-0.01219574,1.547838,0.05105462,-0.323001,1.526549,-0.1235451,0.1679031,1.546022,-0.02617635,-0.3121354,1.493348,-0.1639023,-0.107438,1.544221,0.2742369,-0.0629255,1.493243,NA,NA,NotTracked,Closed,
0.9140625,0.4731445,0.2822266,0.9428711,-0.3261719,0.09912109,-2,-4,-2,0,0,-4,-11,-18,-1,-3,-2,-1,0,-4,-2,-1,-77.3125,-77.3125,-77.3125,-2.1875,-2.1875,-2.1875,6.776571,3.255471,6.179261,2.972456,3.054645,6.428668,-0.1465467,-0.4087341,1.433484,0.2178425,-0.3850432,1.372801,0.06481293,0.4436136,1.53583,-0.1879682,-0.4175423,1.464643,0.2557827,-0.3955941,1.361643,0.05462093,-0.01238868,1.547051,0.04993642,-0.3234099,1.525957,-0.1241441,0.1681965,1.545895,-0.02744661,-0.3121612,1.492399,-0.1645725,-0.107197,1.543636,0.2731844,-0.0760073,1.500934,NA,NA,NotTracked,Closed,
0.9667969,0.4086914,0.222168,0.9350586,-0.3310547,0.1020508,-3,-1,0,-2,5,3,3,-2,-2,-1,-1,-1,0,-1,-5,-2,-82.9375,-82.9375,-82.9375,-2.125,-2.125,-2.125,6.870363,3.132064,5.924642,2.970896,3.053287,6.426558,-0.1471394,-0.4085128,1.433826,0.2409262,-0.4035985,1.391539,0.06427156,0.4436384,1.535043,-0.1876409,-0.406295,1.465305,0.2837943,-0.4016591,1.383459,0.05436309,-0.01253813,1.546776,0.04998636,-0.3235428,1.525849,-0.1248284,0.168265,1.545711,-0.02725602,-0.312469,1.49209,-0.1650695,-0.1073423,1.543394,0.2731101,-0.08836381,1.506015,NA,NA,NotTracked,Unknown,
0.9609375,0.3447266,0.2128906,0.9360352,-0.3076172,0.1035156,2,-2,0,-1,-6,-3,2,0,-12,-16,-2,-3,-1,-4,-3,0,-58.8125,-58.8125,-58.8125,-0.125,-0.125,-0.125,6.928256,3.053672,5.736847,2.972159,3.053612,6.424315,-0.1465154,-0.4088689,1.43245,0.2539827,-0.4148471,1.405536,0.06393565,0.4436319,1.534518,-0.1881145,-0.3990214,1.463985,0.2944211,-0.4125765,1.389619,0.05426129,-0.01260129,1.546569,0.05040301,-0.3236997,1.525725,-0.1254626,0.1682319,1.545479,-0.02650351,-0.3130163,1.491575,-0.165449,-0.1075494,1.543142,0.2735175,-0.09776825,1.51169,NA,NA,NotTracked,NotTracked,
0.9282227,0.3476563,0.2026367,0.9365234,-0.3227539,0.1030273,-2,-2,-2,0,22,7,7,-1,-9,-4,-2,0,1,-2,11,2,-22.9375,-22.9375,-22.9375,-2.25,-2.25,-2.25,6.943012,3.00901,5.633083,2.966431,3.051597,6.425665,-0.1451708,-0.4156136,1.42956,0.2586561,-0.4182963,1.412685,0.06362475,0.4436275,1.534177,-0.1866228,-0.4067573,1.461348,0.3025854,-0.4163834,1.4045,0.0542604,-0.01264312,1.546419,0.05095451,-0.3238797,1.52561,-0.1259096,0.1681672,1.545171,-0.02575095,-0.3134982,1.491171,-0.1657612,-0.1077847,1.542941,0.2740432,-0.1016399,1.516145,NA,NA,NotTracked,NotTracked,
0.9033203,0.3276367,0.2006836,0.9414063,-0.3110352,0.09863281,1,0,-1,-1,-6,-1,-4,-9,5,2,-1,0,-1,-1,-2,-1,-14.1875,-14.1875,-14.1875,-1.1875,-1.1875,-1.1875,6.894705,3.006547,5.639833,2.964004,3.048708,6.42843,-0.145112,-0.4130866,1.429991,0.2594033,-0.416547,1.416845,0.06330493,0.4436015,1.533835,-0.1869057,-0.4432957,1.4508,0.3035666,-0.4190266,1.415143,0.05424843,-0.01267936,1.546288,0.05140849,-0.3239833,1.52552,-0.1261822,0.1681736,1.544865,-0.02521982,-0.3137525,1.490914,-0.1659678,-0.1078804,1.542575,0.27404,-0.1032009,1.518441,NA,NA,NotTracked,NotTracked,
0.9179688,0.3168945,0.1547852,0.9477539,-0.3193359,0.08642578,-3,-2,0,-2,-4,-1,-4,27,1,-1,0,-1,-2,-1,2,3,-6.1875,-6.1875,-6.1875,-1.1875,-1.1875,-1.1875,6.858891,3.004528,5.661306,2.959274,3.043229,6.430018,-0.1456534,-0.4130156,1.430517,0.2574168,-0.4147614,1.418417,0.06307247,0.4437011,1.533517,-0.1884381,-0.3989534,1.462273,0.2984916,-0.4171913,1.407396,0.05423062,-0.01267477,1.546217,0.05182013,-0.3240252,1.52552,-0.1264549,0.1681787,1.544612,-0.02472286,-0.3139315,1.49076,-0.1660688,-0.1081551,1.542204,0.2736188,-0.1042323,1.520238,NA,NA,NotTracked,NotTracked,
0.9331055,0.2963867,0.08740234,0.9433594,-0.3168945,0.08300781,2,0,1,0,0,-1,2,5,-1,-2,-2,-1,-1,1,1,1,12.5625,12.5625,12.5625,0.8125,0.8125,0.8125,6.844326,3.000379,5.678185,2.95269,3.039554,6.435052,-0.1454058,-0.4126474,1.430633,0.2548203,-0.4127012,1.419224,0.06283718,0.4436725,1.533179,-0.1841373,-0.4108827,1.455812,0.2953035,-0.4298378,1.420273,0.05420868,-0.01272461,1.546123,0.05210256,-0.3241017,1.525481,-0.126609,0.1681118,1.544358,-0.02444313,-0.3141184,1.490642,-0.1660467,-0.108309,1.541774,0.2730029,-0.1046874,1.521136,NA,NA,NotTracked,NotTracked,
0.9375,0.3359375,0.02001953,0.9375,-0.3105469,0.09033203,-1,1,1,0,1,-3,-4,-1,-1,-1,0,0,0,1,0,-1,8.4375,8.4375,8.4375,-0.125,-0.125,-0.125,6.946479,2.997805,5.624252,2.952481,3.038999,6.435245,-0.1449503,-0.4127608,1.430608,0.2525651,-0.4108771,1.420809,0.06273241,0.4436094,1.533095,-0.1841296,-0.403555,1.45575,0.2902409,-0.4149462,1.4198,0.0541738,-0.01278634,1.546091,0.05222666,-0.3241826,1.525509,-0.1268311,0.167927,1.544112,-0.02434599,-0.3142478,1.490616,-0.1660381,-0.1084035,1.541725,0.2721047,-0.1049685,1.522264,NA,NA,NotTracked,NotTracked,
0.9287109,0.2822266,0.109375,0.9370117,-0.3208008,0.09033203,-3,-3,-3,-3,-5,0,6,17,-2,0,-1,-3,0,-1,2,-4,-1.3125,-1.3125,-1.3125,1.875,1.875,1.875,6.926651,2.99398,5.640252,2.954248,3.038969,6.436474,-0.1453038,-0.4129741,1.432118,0.2538509,-0.4112856,1.422059,0.06266634,0.4436056,1.532988,-0.1859111,-0.4017374,1.460156,0.2958088,-0.4188941,1.42875,0.05416446,-0.0127759,1.546091,0.0525433,-0.3240804,1.525618,-0.1268675,0.1679091,1.544072,-0.02405608,-0.3141859,1.490674,-0.1660582,-0.1083228,1.541759,0.271798,-0.104984,1.522557,NA,NA,NotTracked,NotTracked,
