ALX,ALY,ALZ,ARX,ARY,ARZ,EMG0L,EMG1L,EMG2L,EMG3L,EMG4L,EMG5L,EMG6L,EMG7L,EMG0R,EMG1R,EMG2R,EMG3R,EMG4R,EMG5R,EMG6R,EMG7R,GLX,GLY,GLZ,GRX,GRY,GRZ,ORL,OPL,OYL,ORR,OPR,OYR,LHNX,LHNY,LHNZ,RHNX,RHNY,RHNZ,HX,HY,HZ,LTX,LTY,LTZ,RTX,RTY,RTZ,SpineMidX,SpineMidY,SpineMidZ,SpineBaseX,SpineBaseY,SpineBaseZ,ShoulderLeftX,ShoulderLeftY,ShoulderLeftZ,ShoulderRightX,ShoulderRightY,ShoulderRightZ,ElbowLeftX,ElbowLeftY,ElbowLeftZ,ElbowRightX,ElbowRightY,ElbowRightZ,Myo_Pose_left,Myo_Pose_Right,Kinect_pose_left,Kinect_pose_right
0.934082,-0.3149414,0.08203125,1.020508,0.5673828,0.1005859,0,-2,-1,-1,-1,-3,-1,0,-25,-17,19,-6,-1,-6,-9,5,-7.875,-7.875,-7.875,-69.9375,-69.9375,-69.9375,2.950797,3.025433,3.835271,6.863465,3.171455,8.475986,-0.1588705,-0.4265489,1.430269,0.2257573,-0.4099495,1.39621,0.03518915,0.4470318,1.542623,-0.2071343,-0.4273718,1.45757,0.1836836,-0.4341137,1.403,0.02873254,-0.02284103,1.548233,0.03064995,-0.3488474,1.5255,-0.1477573,0.1680947,1.537143,-0.05411512,-0.3393192,1.487202,-0.1913668,-0.1028944,1.532107,0.2469939,-0.1012678,1.521842,NA,NA,NotTracked,Unknown,
0.9306641,-0.2944336,0.09912109,1.157715,0.8017578,0.3530273,-2,-1,-1,-2,-1,0,-1,-1,8,4,-36,5,6,6,0,3,-12.6875,-12.6875,-12.6875,-56.125,-56.125,-56.125,2.946934,3.029616,3.818501,6.793247,3.525584,8.471702,-0.1583715,-0.4257805,1.428674,0.240947,-0.370114,1.288012,0.03514838,0.4469098,1.542861,-0.2072394,-0.4197184,1.454737,0.1984009,-0.3768078,1.289417,0.02884848,-0.02290798,1.54849,0.03086499,-0.3489055,1.525722,-0.1483493,0.1680207,1.537358,-0.05392569,-0.3393461,1.487234,-0.1914468,-0.1031244,1.532024,0.2498191,-0.09422033,1.513284,NA,NA,NotTracked,Unknown,
0.9477539,-0.2802734,0.09912109,0.9741211,0.8061523,0.5927734,1,0,-1,-1,-1,-1,-2,-3,9,12,17,7,-21,-13,-8,-3,1.1875,1.1875,1.1875,-10.5625,-10.5625,-10.5625,2.94939,3.03406,3.808433,6.701004,3.975639,8.522303,-0.1583587,-0.4256841,1.428109,0.2353537,-0.2535071,1.189505,0.03514221,0.4467875,1.543358,-0.2073511,-0.4231791,1.456397,0.2289264,-0.319546,1.194,0.02893233,-0.02300473,1.548999,0.03102078,-0.3488806,1.526042,-0.1490001,0.1679114,1.537945,-0.05380004,-0.3393025,1.487283,-0.1914514,-0.1030194,1.53202,0.2568097,-0.06736486,1.503326,NA,NA,NotTracked,Unknown,
0.9521484,-0.2900391,0.09082031,0.6650391,0.8969727,0.6313477,-2,0,-1,0,-1,-2,-1,-1,3,-5,-25,-32,22,2,-5,-7,3,3,3,34.8125,34.8125,34.8125,2.950403,3.03282,3.811797,6.707373,4.540799,8.594245,-0.1588052,-0.4233596,1.428869,0.2135027,-0.09290623,1.138857,0.03508318,0.4466936,1.543912,-0.2073352,-0.4353867,1.455364,0.2093219,-0.1255833,1.160455,0.02906301,-0.02305097,1.54942,0.03115743,-0.3488539,1.52627,-0.1494948,0.1676257,1.53857,-0.05369141,-0.3392982,1.487382,-0.1914847,-0.1025083,1.532124,0.3100764,-0.03538888,1.465629,NA,NA,NotTracked,Unknown,
0.9428711,-0.3085938,0.08105469,0.1464844,0.6914063,0.4794922,-1,-1,-1,-2,-1,-1,-3,0,2,3,-5,19,20,0,-3,-5,11.0625,11.0625,11.0625,8.625,8.625,8.625,2.947168,3.031473,3.829067,6.719665,5.149903,8.712117,-0.1572011,-0.4260082,1.428818,0.1987957,0.07715841,1.163817,0.0351603,0.4466356,1.544217,-0.2066917,-0.4325025,1.456268,0.1491273,0.08349451,1.144429,0.02907862,-0.02333597,1.549908,0.03112423,-0.3493,1.526641,-0.1496197,0.1674985,1.538943,-0.05379721,-0.3401607,1.488172,-0.1914147,-0.1020731,1.532189,0.278032,-0.03450269,1.441965,NA,NA,NotTracked,Unknown,
0.9458008,-0.3154297,0.08642578,-0.3046875,0.5361328,0.3442383,0,-3,-2,-2,-2,-1,-2,-1,-9,3,5,2,-7,-1,2,3,12.8125,12.8125,12.8125,47.4375,47.4375,47.4375,2.943558,3.031832,3.864654,6.859918,5.876402,8.953268,-0.1573659,-0.4280445,1.429448,0.1708152,0.2029112,1.22352,0.03490421,0.4466824,1.544515,-0.2073118,-0.4262599,1.456721,0.1525774,0.2043543,1.26125,0.02926269,-0.02321617,1.550197,0.03054722,-0.3499027,1.526703,-0.14956,0.1674962,1.539873,-0.05480156,-0.3405567,1.488689,-0.1905244,-0.0996289,1.533139,0.2979087,-0.01467282,1.399763,NA,NA,NotTracked,Unknown,
0.9350586,-0.3422852,0.09326172,-0.5341797,0.5107422,0.2475586,-1,-2,-1,2,0,-1,-1,-1,27,12,-8,3,11,0,0,18,7.625,7.625,7.625,23.875,23.875,23.875,2.934275,3.033367,3.89076,7.069888,6.278802,9.199288,-0.1573946,-0.4245724,1.432074,0.1607901,0.2569807,1.288673,0.03440014,0.4468311,1.544624,-0.2071538,-0.427284,1.456981,0.1340533,0.2484911,1.3305,0.03148285,-0.0203359,1.550334,0.02981533,-0.3482414,1.52679,-0.148527,0.1674094,1.540643,-0.05628867,-0.3383358,1.489277,-0.1890221,-0.09251468,1.535364,0.3038568,0.004857807,1.378475,NA,NA,NotTracked,Unknown,
0.9394531,-0.3354492,0.1044922,-0.5458984,0.4472656,0.1279297,-2,-2,-1,0,-2,-1,-1,-2,-13,6,7,-2,-7,-5,-3,-11,5.0625,5.0625,5.0625,9.6875,9.6875,9.6875,2.930101,3.036536,3.905235,7.407548,6.569302,9.601245,-0.1576243,-0.4280528,1.431257,0.1574665,0.2764097,1.335715,0.03399296,0.446928,1.544508,-0.2065899,-0.4489812,1.4511,0.1420973,0.2601804,1.390556,0.03376775,-0.01840418,1.550327,0.02930541,-0.3463452,1.52645,-0.1466089,0.1670932,1.541393,-0.05721555,-0.3362224,1.489471,-0.1877646,-0.08202419,1.538326,0.3385806,0.0009185096,1.352661,NA,NA,NotTracked,Unknown,
0.9375,-0.328125,0.1044922,-0.7177734,0.4477539,0.001464844,-1,-1,-2,0,0,-1,1,-2,-8,-5,-3,4,-16,-9,-3,1,2.375,2.375,2.375,-10.9375,-10.9375,-10.9375,2.934556,3.041958,3.906375,7.631269,6.65343,9.883416,-0.1578097,-0.425175,1.431511,0.1556323,0.2818268,1.358741,0.03381824,0.4467134,1.544142,-0.2064926,-0.4265065,1.451643,0.1388201,0.2674555,1.415437,0.03451138,-0.01797169,1.550369,0.02917114,-0.3456135,1.526225,-0.1452586,0.1665222,1.541876,-0.05746229,-0.3355707,1.489534,-0.1874757,-0.08280186,1.538558,0.3101479,0.03825457,1.350971,NA,NA,NotTracked,Unknown,
0.9423828,-0.3227539,0.07470703,-0.7319336,0.4746094,-0.03955078,-1,-1,-2,0,-1,-1,-1,-1,-2,6,7,3,14,-3,-6,-5,-1.4375,-1.4375,-1.4375,-9.375,-9.375,-9.375,2.933029,3.046226,3.90805,7.731764,6.674431,0.01260937,-0.1578563,-0.4255818,1.431698,0.1583802,0.2808908,1.365308,0.03373755,0.4465479,1.543848,-0.2064449,-0.4366347,1.454768,0.1475912,0.2641275,1.422727,0.03509373,-0.01771614,1.55041,0.02906967,-0.3451105,1.52604,-0.1444856,0.1663395,1.542454,-0.05763278,-0.3350872,1.489719,-0.1872203,-0.08328892,1.538697,0.3092733,0.04207382,1.347011,NA,NA,NotTracked,Lasso,
0.9404297,-0.3154297,0.08496094,-0.7915039,0.4829102,-0.06640625,0,0,0,-2,-1,0,-1,-3,13,18,7,5,6,3,2,1,-1.25,-1.25,-1.25,-2.5625,-2.5625,-2.5625,2.92665,3.046567,3.912296,7.841149,6.68292,0.1587465,-0.1572525,-0.4230883,1.431582,0.1649354,0.2728221,1.363579,0.03375561,0.4460329,1.542989,-0.2044128,-0.4598245,1.4415,0.160541,0.2592178,1.419091,0.03593998,-0.01740839,1.55021,0.02902183,-0.3448534,1.525797,-0.144238,0.1661899,1.542776,-0.0577055,-0.3349033,1.489738,-0.1868274,-0.08437202,1.538978,0.3092799,0.04310716,1.34561,NA,NA,NotTracked,Closed,
0.9443359,-0.3222656,0.09863281,-0.8349609,0.4931641,-0.1015625,1,-3,-1,0,-2,0,0,-1,-4,6,-5,3,-6,9,-3,-18,-0.125,-0.125,-0.125,-5,-5,-5,2.926533,3.046434,3.912625,7.871007,6.677415,0.2085039,-0.1567683,-0.4252901,1.430731,0.1664061,0.2706076,1.363794,0.03393776,0.4456241,1.542332,-0.2048471,-0.4568867,1.4445,0.1519403,0.2604898,1.422307,0.03577592,-0.01760886,1.550463,0.02905494,-0.3446661,1.525596,-0.1435509,0.1660488,1.543062,-0.05772661,-0.3347136,1.489702,-0.1866488,-0.08487052,1.538998,0.308825,0.04427285,1.344195,NA,NA,NotTracked,Lasso,
0.9423828,-0.3134766,0.09033203,-0.8554688,0.4833984,-0.08007813,0,-1,-2,-1,-2,-2,-2,0,7,3,3,-2,-6,-2,2,7,-0.1875,-0.1875,-0.1875,-3.25,-3.25,-3.25,2.926574,3.046076,3.912005,7.863161,6.674246,0.2064335,-0.1572975,-0.4236113,1.4309,0.1641653,0.2720523,1.364427,0.03418421,0.4454094,1.541953,-0.2014703,-0.4240987,1.4464,0.1614867,0.2581512,1.419735,0.03700483,-0.01744679,1.55016,0.02919429,-0.344584,1.525281,-0.1429698,0.1658557,1.543207,-0.05769214,-0.3346865,1.489643,-0.1865228,-0.08521751,1.538957,0.3079947,0.04599562,1.342007,NA,NA,NotTracked,Unknown,
0.9262695,-0.3134766,0.07421875,-0.8115234,0.465332,-0.05908203,-1,-2,0,-1,0,0,-1,-1,16,-5,-3,-3,-1,-2,-1,-9,-0.875,-0.875,-0.875,0,0,0,2.926416,3.046302,3.912954,7.842516,6.675393,0.1870975,-0.1570735,-0.4238063,1.430423,0.1641625,0.2717059,1.361689,0.03458065,0.4452749,1.541611,-0.1954625,-0.4695938,1.432875,0.1619036,0.2574105,1.41075,0.03745203,-0.01760381,1.550026,0.02922622,-0.3444749,1.525033,-0.1426103,0.1658238,1.543387,-0.05768715,-0.3346194,1.489629,-0.1858355,-0.08070251,1.539396,0.3076534,0.0455649,1.341696,NA,NA,NotTracked,Closed,
0.9350586,-0.3173828,0.09375,-0.7436523,0.4052734,0.002929688,0,-2,-2,-2,0,0,0,-3,41,2,4,5,10,-1,3,28,1.9375,1.9375,1.9375,1.9375,1.9375,1.9375,2.922652,3.046278,3.918383,7.786557,6.685889,0.124303,-0.1574685,-0.4231931,1.430642,0.1591811,0.2767817,1.357192,0.03480677,0.4451832,1.54129,-0.2069997,-0.4180821,1.458929,0.149171,0.259566,1.417,0.03773227,-0.01770554,1.550114,0.02927918,-0.344368,1.52486,-0.1420192,0.1659687,1.543633,-0.0576709,-0.3344993,1.489571,-0.1855056,-0.08274671,1.539066,0.3065912,0.04395959,1.342046,NA,NA,NotTracked,Unknown,
0.9458008,-0.3212891,0.09228516,-0.8022461,0.296875,-0.03710938,-2,-1,0,-2,-1,-1,-2,-2,-5,10,8,5,-2,2,5,-58,3.375,3.375,3.375,30.1875,30.1875,30.1875,2.929556,3.047768,3.920027,7.579135,6.707421,9.850764,-0.1565647,-0.4239864,1.429345,0.1514391,0.2860695,1.338554,0.03480762,0.445301,1.541103,-0.2065306,-0.427891,1.455818,0.1256456,0.2669695,1.405333,0.0376505,-0.01825511,1.550142,0.02920761,-0.3444748,1.524687,-0.1412416,0.1659581,1.543723,-0.05777889,-0.3345213,1.489545,-0.1847758,-0.07961315,1.539343,0.3020449,0.03735157,1.342879,NA,NA,NotTracked,Unknown,
0.9536133,-0.3349609,0.08935547,-0.9990234,0.3598633,-0.09130859,-3,-1,-1,0,0,-2,-1,-3,-3,1,6,0,0,1,3,-10,0.3125,0.3125,0.3125,29.5625,29.5625,29.5625,2.932254,3.049538,3.91893,7.309028,6.602296,9.476626,-0.1586268,-0.4166447,1.432202,0.167611,0.2772902,1.286765,0.0340992,0.4460206,1.542077,-0.2087701,-0.4100983,1.46332,0.1272257,0.2775123,1.3445,0.03700923,-0.01841949,1.550459,0.029113,-0.3442811,1.52457,-0.140677,0.166173,1.544092,-0.0580226,-0.3341087,1.489466,-0.1843397,-0.0775883,1.539804,0.2870509,0.03331087,1.337629,NA,NA,NotTracked,Unknown,
0.9335938,-0.3271484,0.07324219,-0.7368164,1.005859,0.05957031,-2,-2,-1,-2,-1,0,-2,1,-4,-5,-11,-12,-18,-50,-4,9,-0.75,-0.75,-0.75,-51.3125,-51.3125,-51.3125,2.930914,3.053112,3.918207,7.006714,6.346385,9.120354,-0.1571252,-0.4236503,1.431011,0.1976611,0.2397361,1.221019,0.03410294,0.4461854,1.543717,-0.2068822,-0.4355809,1.46064,0.1709708,0.2507074,1.251333,0.03567217,-0.01964734,1.551019,0.02915467,-0.3445868,1.524448,-0.1416923,0.1661073,1.545515,-0.05789001,-0.3344647,1.489229,-0.1843486,-0.08648514,1.539609,0.2792042,-0.001785627,1.366398,NA,NA,NotTracked,Closed,
0.925293,-0.3212891,0.09667969,-0.8579102,0.2729492,-0.112793,0,-1,-2,0,-1,-2,-1,-1,-11,-4,-17,-26,-7,-1,-5,-35,0.125,0.125,0.125,-165.1875,-165.1875,-165.1875,2.930383,3.054783,3.915715,6.468439,6.164367,8.869683,-0.1589054,-0.4222074,1.431203,0.2073196,0.2188021,1.180068,0.03426612,0.4465003,1.545299,-0.2072992,-0.4200889,1.458484,0.2384228,0.2732207,1.180874,0.03481824,-0.02089884,1.551471,0.02934412,-0.345422,1.524375,-0.1410274,0.1664608,1.54492,-0.05753191,-0.3354948,1.4892,-0.1848318,-0.09186342,1.539584,0.2729401,-0.01062545,1.373487,NA,NA,NotTracked,Unknown,
0.9311523,-0.3325195,0.1025391,-0.8398438,1.149414,-0.01806641,-1,1,-2,0,-1,-2,-2,-1,-10,-6,0,-2,-13,-8,-3,-18,-0.0625,-0.0625,-0.0625,330.5,330.5,330.5,2.928869,3.049983,3.918496,6.742818,5.984937,8.798644,-0.1585556,-0.4253871,1.431823,0.2056082,0.1969651,1.168771,0.0345222,0.4465808,1.546427,-0.2073668,-0.4298037,1.460122,0.1855425,0.2419513,1.188625,0.03452399,-0.0219127,1.551726,0.02971293,-0.3464455,1.524375,-0.1418493,0.1662284,1.545595,-0.05692369,-0.3367534,1.489111,-0.1852035,-0.09512255,1.539568,0.2677954,-0.02037979,1.383679,NA,NA,NotTracked,Unknown,
0.9614258,-0.3251953,0.08837891,-0.559082,1.036133,0.496582,0,-3,-2,-1,1,-1,-2,-2,5,1,-6,-1,-3,29,1,-10,1.125,1.125,1.125,-242.25,-242.25,-242.25,2.926421,3.04775,3.923725,6.683795,5.89806,8.844131,-0.1589136,-0.4262627,1.432599,0.2002504,0.1891773,1.162312,0.03473753,0.4469541,1.547381,-0.2095436,-0.4136781,1.466081,0.2103935,0.2497822,1.1653,0.03449537,-0.02231413,1.551846,0.02975929,-0.3470937,1.524584,-0.1425526,0.1662393,1.546304,-0.05664925,-0.3374916,1.489325,-0.1855915,-0.09717669,1.539582,0.2666852,-0.02317315,1.387197,NA,NA,NotTracked,Unknown,
0.9355469,-0.3383789,0.07861328,-0.5664063,0.3598633,0.6958008,1,-3,-1,-1,0,-1,-1,-1,-22,14,7,1,32,-5,-3,-8,0.25,0.25,0.25,119.5,119.5,119.5,2.925616,3.047793,3.924461,6.550856,5.91259,8.845843,-0.1585712,-0.4254909,1.431632,0.1962925,0.1875055,1.162885,0.03496046,0.4470507,1.547692,-0.2079848,-0.4225007,1.461734,0.2019197,0.2495397,1.172932,0.03383542,-0.02283471,1.552156,0.02977703,-0.3474537,1.52459,-0.1431969,0.1663212,1.546829,-0.05651424,-0.3378989,1.489354,-0.1857,-0.09754088,1.539602,0.2652293,-0.02520946,1.389567,NA,NA,NotTracked,Unknown,
0.9350586,-0.3422852,0.09179688,-0.6557617,0.9370117,0.2583008,-1,-1,-2,-1,-1,-1,-1,-1,-1,-7,-3,-9,-93,-22,1,-3,-2.875,-2.875,-2.875,-55.4375,-55.4375,-55.4375,2.921287,3.047597,3.928009,6.670107,5.923538,8.848263,-0.1584495,-0.4284509,1.431482,0.1951209,0.1844867,1.165076,0.03511907,0.4470519,1.547767,-0.2063682,-0.4418206,1.4577,0.1952936,0.2504124,1.17722,0.03379675,-0.02301538,1.552123,0.02973296,-0.3478227,1.524698,-0.1434736,0.1663906,1.547078,-0.05646539,-0.3382719,1.489496,-0.1858221,-0.0980368,1.539585,0.2635258,-0.02722738,1.391743,NA,NA,NotTracked,Unknown,
0.9355469,-0.3139648,0.09667969,-0.578125,0.7661133,0.3808594,-1,0,-2,1,-1,-1,-3,-2,-8,-1,-2,-3,14,-1,-5,-14,0.5,0.5,0.5,16.125,16.125,16.125,2.924088,3.048368,3.926217,6.622344,5.911029,8.841912,-0.158492,-0.4280386,1.431185,0.1942147,0.1820348,1.161927,0.03517703,0.4470398,1.547775,-0.2073289,-0.4299178,1.459621,0.1956032,0.248018,1.17367,0.03373165,-0.02314936,1.552092,0.02968444,-0.3480006,1.524749,-0.1438007,0.1663192,1.547227,-0.05645819,-0.3384864,1.489629,-0.1860189,-0.0983234,1.539641,0.262572,-0.02822765,1.393086,NA,NA,NotTracked,Unknown,
0.9321289,-0.3164063,0.07666016,-0.5249023,0.7495117,0.4399414,-1,0,-1,-3,-3,-2,-2,-1,7,1,0,2,2,-4,0,9,-1.6875,-1.6875,-1.6875,4.3125,4.3125,4.3125,2.926529,3.04725,3.919536,6.629996,5.881834,8.842554,-0.1584795,-0.4282092,1.431309,0.1919208,0.1783901,1.159424,0.03528604,0.4470122,1.547813,-0.208051,-0.4251155,1.461397,0.1957839,0.2424547,1.171458,0.03364085,-0.02341021,1.552002,0.02962155,-0.3482621,1.524795,-0.1441758,0.1663756,1.547446,-0.05644694,-0.3387383,1.489694,-0.1861105,-0.09862855,1.539581,0.2620186,-0.02869789,1.393458,NA,NA,NotTracked,Unknown,
0.9248047,-0.3256836,0.08447266,-0.4848633,0.6743164,0.4418945,-2,-3,-2,-1,1,1,1,-1,-6,-6,-4,-5,23,6,-2,-12,-3.3125,-3.3125,-3.3125,2.6875,2.6875,2.6875,2.923831,3.046295,3.91661,6.623164,5.84234,8.830331,-0.1601139,-0.4246904,1.431625,0.1934842,0.1667059,1.150164,0.03539915,0.4469103,1.547691,-0.2062538,-0.4473508,1.452789,0.1927883,0.2333751,1.159154,0.03336345,-0.02378963,1.551803,0.02952315,-0.3487611,1.524649,-0.1444166,0.1663551,1.547344,-0.05646076,-0.3392197,1.489502,-0.186327,-0.0996071,1.539308,0.2614771,-0.02975829,1.394481,NA,NA,NotTracked,Lasso,
0.940918,-0.3129883,0.09082031,-0.3081055,0.5727539,0.3720703,-1,-2,0,0,-1,-1,-1,-1,8,2,-2,-1,18,5,2,24,0.0625,0.0625,0.0625,17.9375,17.9375,17.9375,2.928322,3.047648,3.91065,6.625099,5.701591,8.780866,-0.1595173,-0.4236454,1.430804,0.1977867,0.1337808,1.132671,0.03543239,0.4468102,1.547626,-0.2082831,-0.4201422,1.460178,0.1947931,0.2075196,1.146,0.03317319,-0.02432234,1.551645,0.02957469,-0.3495348,1.524572,-0.1448635,0.1662986,1.547349,-0.05622866,-0.3400703,1.489407,-0.1869327,-0.1000567,1.538994,0.2797266,-0.08006296,1.415932,NA,NA,NotTracked,Lasso,
0.9633789,-0.3173828,0.09228516,-0.2148438,0.605957,0.3837891,-1,-1,-1,-1,-2,-2,0,1,1,-1,-1,-1,-4,-8,-7,2,6.1875,6.1875,6.1875,19.8125,19.8125,19.8125,2.947682,3.051065,3.896421,6.642469,5.46169,8.744325,-0.1598064,-0.4245672,1.430493,0.1994894,0.06696081,1.105012,0.03540182,0.4467552,1.547635,-0.2093759,-0.4135855,1.461175,0.197111,0.1269359,1.098571,0.03280209,-0.02465572,1.551554,0.02964001,-0.3498358,1.524602,-0.1455068,0.1660897,1.54741,-0.05600272,-0.3404951,1.489361,-0.1874086,-0.1008879,1.538656,0.2449461,-0.04456532,1.418658,NA,NA,NotTracked,Lasso,
0.9462891,-0.3266602,0.07958984,0.01708984,0.6782227,0.4174805,-3,-1,-2,0,-2,0,-1,-1,10,1,-2,-1,0,-2,-1,-8,3.75,3.75,3.75,32.9375,32.9375,32.9375,2.958931,3.051389,3.893251,6.681174,5.095093,8.71928,-0.1598806,-0.424831,1.430087,0.2020185,-0.05355435,1.089844,0.03511759,0.446654,1.547709,-0.2057211,-0.4466285,1.451895,0.1939356,0.0001716153,1.081545,0.03247153,-0.02486558,1.551487,0.02973536,-0.349983,1.524542,-0.1466338,0.16562,1.547722,-0.055734,-0.340769,1.489172,-0.1877449,-0.1010926,1.538626,0.2029046,-0.1279635,1.48757,NA,NA,NotTracked,Unknown,
0.9555664,-0.3422852,0.09472656,0.4179688,0.7919922,0.4868164,-1,0,0,-1,1,-2,0,0,11,-3,-3,-2,6,0,-1,0,0.8125,0.8125,0.8125,47.75,47.75,47.75,2.960547,3.051577,3.895583,6.778167,4.486082,8.679754,-0.1596611,-0.4241278,1.430435,0.2204798,-0.187492,1.128299,0.03443951,0.4464107,1.547785,-0.2070657,-0.4301928,1.457119,0.1890372,-0.156247,1.09125,0.03188273,-0.02505739,1.55137,0.02969417,-0.3500971,1.524475,-0.1475296,0.1655332,1.547835,-0.0557177,-0.340865,1.489005,-0.1889559,-0.1023304,1.53858,0.2770015,-0.04357771,1.43755,NA,NA,NotTracked,Unknown,
0.9326172,-0.3378906,0.1103516,0.7426758,0.8823242,0.5004883,-1,0,0,-1,-2,-2,-3,-1,8,-2,-1,-2,-9,2,1,5,-0.25,-0.25,-0.25,10.4375,10.4375,10.4375,2.954348,3.052188,3.901392,6.832502,4.032969,8.643514,-0.1596309,-0.4270519,1.428633,0.2272402,-0.2970607,1.190861,0.03312165,0.4462769,1.547973,-0.2086827,-0.4143148,1.459205,0.2429734,-0.3679844,1.176375,0.03139821,-0.02523293,1.551278,0.02962651,-0.3502484,1.524405,-0.1488518,0.1651455,1.54782,-0.05571516,-0.3409627,1.488821,-0.189327,-0.1032961,1.538097,0.2736261,-0.05852348,1.445122,NA,NA,NotTracked,Unknown,
0.9306641,-0.3154297,0.1088867,0.8237305,0.5458984,0.402832,1,-2,-3,1,0,0,0,-3,-34,-2,-1,-1,-2,7,-1,15,1.0625,1.0625,1.0625,-16.4375,-16.4375,-16.4375,2.954499,3.04984,3.908264,6.811739,3.686558,8.611402,-0.1576642,-0.4258603,1.427377,0.2297822,-0.3703105,1.260787,0.03150117,0.4464271,1.547785,-0.2054834,-0.4228773,1.448385,0.214437,-0.4346669,1.2664,0.03107882,-0.02531913,1.550974,0.02966917,-0.350338,1.524354,-0.1496597,0.1650562,1.547648,-0.05554598,-0.3410684,1.488639,-0.1895262,-0.1038907,1.53777,0.2578826,-0.06483642,1.459435,NA,NA,NotTracked,Unknown,
0.9311523,-0.3041992,0.08837891,1.081055,0.6630859,0.1835938,-1,0,0,-1,-1,-1,-1,-1,-4,1,0,-2,0,8,2,-4,-1.375,-1.375,-1.375,56.5625,56.5625,56.5625,2.958898,3.042536,3.903967,6.992801,3.349473,8.530055,-0.1550937,-0.4386281,1.424036,0.2352021,-0.3982275,1.318387,0.03036149,0.4466367,1.547438,-0.2012526,-0.4492753,1.43275,0.2040493,-0.4148808,1.320733,0.03095495,-0.02532664,1.550417,0.0298705,-0.3504808,1.524231,-0.1444812,0.166258,1.541794,-0.0552121,-0.341159,1.488286,-0.1895106,-0.1044896,1.537137,0.2504087,-0.07795801,1.46981,NA,NA,NotTracked,Unknown,
0.9394531,-0.3330078,0.07666016,0.956543,0.5717773,0.06005859,-1,0,-2,1,-1,0,-1,-1,6,3,0,1,-1,4,-2,0,-4.4375,-4.4375,-4.4375,17.4375,17.4375,17.4375,2.944886,3.0343,3.905659,7.046419,3.221117,8.522179,-0.1589864,-0.4262457,1.428294,0.23328,-0.4140286,1.359946,0.02943575,0.4469741,1.546999,-0.210312,-0.4155424,1.4595,0.1995177,-0.3866004,1.394857,0.03085186,-0.02533132,1.549753,0.02999669,-0.3504985,1.524155,-0.1469055,0.166197,1.542271,-0.05491274,-0.3411887,1.48798,-0.1897311,-0.1049403,1.536555,0.2479185,-0.08768351,1.47909,NA,NA,NotTracked,Unknown,
0.9438477,-0.3129883,0.09667969,0.925293,0.5341797,0.1162109,0,-1,-2,-2,-2,-1,-2,-1,-10,0,1,0,-1,3,4,9,-3.8125,-3.8125,-3.8125,-7.75,-7.75,-7.75,2.941902,3.033275,3.902618,7.064029,3.152013,8.510841,-0.1602585,-0.4229305,1.428823,0.2253335,-0.4135072,1.392599,0.02880197,0.4469096,1.545813,-0.2092848,-0.4493541,1.452154,0.1849123,-0.3871893,1.398181,0.0306844,-0.02538931,1.549282,0.02997731,-0.3505076,1.524164,-0.1486718,0.1660324,1.542352,-0.05490701,-0.3411857,1.487988,-0.1897657,-0.105213,1.536036,0.2465273,-0.09504765,1.490326,NA,NA,NotTracked,Unknown,
0.9404297,-0.3066406,0.1044922,0.8916016,0.4101563,0.1591797,-2,-2,-2,-1,-2,-3,0,0,-7,0,-1,0,-1,1,0,2,-3.25,-3.25,-3.25,-20.5625,-20.5625,-20.5625,2.951209,3.034147,3.888264,7.018159,3.114681,8.524314,-0.161448,-0.4221421,1.429197,0.2204305,-0.4135943,1.407681,0.02845214,0.4469483,1.544508,-0.2121802,-0.4200524,1.46337,0.1743018,-0.3886248,1.395812,0.03031268,-0.02547492,1.548362,0.02989921,-0.3505663,1.524005,-0.1476386,0.1663926,1.540029,-0.05502056,-0.3412186,1.48773,-0.1899182,-0.1056571,1.535242,0.2464026,-0.09752414,1.500641,NA,NA,NotTracked,Unknown,
0.9360352,-0.309082,0.09667969,0.9267578,0.3925781,0.1333008,-2,-3,-1,-2,1,1,-1,0,89,8,-1,1,0,1,2,15,-5.5,-5.5,-5.5,-12.1875,-12.1875,-12.1875,2.959019,3.033146,3.87139,6.983375,3.078182,8.529466,-0.1612527,-0.4227583,1.426949,0.2181062,-0.4132901,1.41575,0.02832496,0.4467069,1.543238,-0.2102656,-0.4292518,1.457811,0.1733225,-0.4044988,1.39487,0.03007266,-0.02554343,1.547765,0.02993598,-0.3505855,1.523815,-0.1496996,0.1659664,1.539929,-0.05493366,-0.3412661,1.487409,-0.1902395,-0.1058661,1.534422,0.2461336,-0.09912127,1.507782,NA,NA,NotTracked,NotTracked,
0.9521484,-0.3046875,0.08251953,0.9057617,0.4165039,0.1630859,1,-3,-1,-3,0,-2,-1,-2,7,-2,-1,-2,-7,5,1,-1,-3.3125,-3.3125,-3.3125,-20.6875,-20.6875,-20.6875,2.960918,3.031089,3.860743,6.950844,3.074723,8.536044,-0.1604678,-0.4264949,1.425977,0.2188817,-0.4091679,1.419901,0.02847627,0.4464107,1.542165,-0.2103472,-0.4365657,1.4572,0.170586,-0.402118,1.394542,0.02984572,-0.02564209,1.54725,0.02988563,-0.3505594,1.523669,-0.1506944,0.1657871,1.539467,-0.05498257,-0.341203,1.486977,-0.1904112,-0.1051493,1.533683,0.2462717,-0.1008974,1.513687,NA,NA,NotTracked,NotTracked,
0.9624023,-0.3037109,0.09277344,0.8979492,0.3452148,0.1713867,0,-1,-1,0,0,0,-1,-2,-1,0,-1,-1,0,2,1,2,-5.8125,-5.8125,-5.8125,-22.375,-22.375,-22.375,2.958944,3.024044,3.854472,6.882154,3.095345,8.537217,-0.1596232,-0.4228119,1.426177,0.218846,-0.4106449,1.419528,0.0287648,0.4460502,1.540904,-0.2099473,-0.4436122,1.453496,0.1747926,-0.4073087,1.394459,0.02955719,-0.02561751,1.546616,0.02992047,-0.3505104,1.52349,-0.1518519,0.1655709,1.538714,-0.05494475,-0.3411483,1.486622,-0.1906953,-0.1055923,1.532688,0.2463834,-0.1017759,1.517126,NA,NA,NotTracked,NotTracked,
0.9394531,-0.3071289,0.09130859,0.9033203,0.2958984,0.1757813,0,-1,0,-2,-1,-1,0,0,-2,0,1,2,3,2,5,1,-5.9375,-5.9375,-5.9375,-1,-1,-1,2.956067,3.018755,3.847194,6.864108,3.096175,8.540757,-0.1598955,-0.4232274,1.427604,0.2194346,-0.4084802,1.420807,0.02906734,0.446096,1.540383,-0.2108849,-0.4195378,1.4585,0.1741338,-0.3939953,1.395454,0.02941354,-0.02562179,1.546246,0.02991622,-0.3504989,1.523423,-0.1528784,0.1654788,1.537955,-0.05492607,-0.3411372,1.486412,-0.1908453,-0.1055405,1.531971,0.2463578,-0.102272,1.518975,NA,NA,NotTracked,NotTracked,
0.9521484,-0.2919922,0.09960938,0.9223633,0.2983398,0.1357422,1,-1,-2,-1,0,-3,0,-1,0,-1,0,-1,0,0,0,3,0.25,0.25,0.25,10.3125,10.3125,10.3125,2.954034,3.017004,3.842859,6.873227,3.092831,8.543163,-0.161211,-0.4222339,1.42751,0.2183043,-0.4085831,1.419678,0.0293961,0.4459532,1.539905,-0.2107464,-0.4176607,1.456464,0.1724127,-0.386167,1.395167,0.02916422,-0.02562845,1.545966,0.0298211,-0.3504661,1.523396,-0.1534292,0.1654919,1.537597,-0.05502664,-0.3410904,1.486311,-0.1910018,-0.1054157,1.531436,0.2461878,-0.1024205,1.519843,NA,NA,NotTracked,NotTracked,
0.9467773,-0.2866211,0.09375,0.9296875,0.3149414,0.1079102,-1,-1,-1,-1,-1,0,-1,-2,0,-1,-1,0,4,-8,-2,-1,2.25,2.25,2.25,7.625,7.625,7.625,2.961187,3.016197,3.838843,6.898967,3.08353,8.545238,-0.161053,-0.4233194,1.428025,0.2176714,-0.4100828,1.419605,0.03001984,0.4455655,1.538979,-0.2033223,-0.4347339,1.4413,0.1735593,-0.3971861,1.395528,0.02881158,-0.02562083,1.5455,0.02976515,-0.3504478,1.52331,-0.1537336,0.165804,1.536795,-0.05509749,-0.3410599,1.486088,-0.191376,-0.1052703,1.530858,0.2460375,-0.1023315,1.520154,NA,NA,NotTracked,NotTracked,
0.9438477,-0.3007813,0.08251953,0.9238281,0.2836914,0.1367188,1,-1,-1,-2,-1,-2,0,-1,-1,-1,-1,-4,-6,7,2,1,3.375,3.375,3.375,0.125,0.125,0.125,2.963115,3.015077,3.844109,6.885821,3.080525,8.560553,-0.1616403,-0.4236955,1.429417,0.2177564,-0.4112705,1.419311,0.03023393,0.4454446,1.538742,-0.2104117,-0.4248043,1.455334,0.1724943,-0.4002159,1.395375,0.02863353,-0.02560813,1.545385,0.02972286,-0.3504381,1.523297,-0.1540276,0.1658902,1.536535,-0.05515685,-0.3410439,1.486015,-0.1916076,-0.1051682,1.530535,0.2459254,-0.1023691,1.52033,NA,NA,NotTracked,NotTracked,
0.9492188,-0.3110352,0.09863281,0.9199219,0.2998047,0.1469727,1,1,-1,-1,0,0,-3,-1,0,0,1,-1,-1,3,1,-3,2.5,2.5,2.5,5.75,5.75,5.75,2.963457,3.016509,3.849893,6.877076,3.077888,8.578033,-0.1618467,-0.4226275,1.428263,0.2164881,-0.4115852,1.417149,0.03057102,0.4449795,1.537974,-0.2090269,-0.445674,1.446167,0.1721556,-0.3993952,1.394332,0.02835152,-0.02564065,1.545124,0.02960084,-0.3504166,1.523192,-0.1543394,0.1659982,1.536299,-0.05526762,-0.3410254,1.485847,-0.1919664,-0.1045634,1.530338,0.2457794,-0.1023436,1.520428,NA,NA,NotTracked,NotTracked,
0.9418945,-0.3061523,0.09863281,0.9248047,0.2963867,0.1333008,-1,-1,-1,-1,-2,-1,-1,-2,-1,-1,-2,-4,7,25,1,-2,1.5,1.5,1.5,4.75,4.75,4.75,2.963855,3.017807,3.852738,6.872059,3.075634,8.594162,-0.1622084,-0.4231888,1.428975,0.215554,-0.4117784,1.417157,0.03071549,0.4446997,1.53744,-0.2102738,-0.4206512,1.454308,0.1708814,-0.4079352,1.393931,0.02822435,-0.02564021,1.544882,0.02947715,-0.3503649,1.523084,-0.1546411,0.1661439,1.536223,-0.05538395,-0.3409849,1.485731,-0.1922581,-0.1045434,1.530226,0.2456159,-0.1023621,1.520429,NA,NA,NotTracked,NotTracked,
