ALX,ALY,ALZ,ARX,ARY,ARZ,EMG0L,EMG1L,EMG2L,EMG3L,EMG4L,EMG5L,EMG6L,EMG7L,EMG0R,EMG1R,EMG2R,EMG3R,EMG4R,EMG5R,EMG6R,EMG7R,GLX,GLY,GLZ,GRX,GRY,GRZ,ORL,OPL,OYL,ORR,OPR,OYR,LHNX,LHNY,LHNZ,RHNX,RHNY,RHNZ,HX,HY,HZ,LTX,LTY,LTZ,RTX,RTY,RTZ,SpineMidX,SpineMidY,SpineMidZ,SpineBaseX,SpineBaseY,SpineBaseZ,ShoulderLeftX,ShoulderLeftY,ShoulderLeftZ,ShoulderRightX,ShoulderRightY,ShoulderRightZ,ElbowLeftX,ElbowLeftY,ElbowLeftZ,ElbowRightX,ElbowRightY,ElbowRightZ,Myo_Pose_left,Myo_Pose_Right,Kinect_pose_left,Kinect_pose_right
1.059082,-0.3583984,0.05224609,1.059082,0.3359375,0.08203125,-3,0,1,3,-1,4,6,5,17,2,-4,-4,-5,-2,6,-52,36.25,36.25,36.25,-8.1875,-8.1875,-8.1875,3.091197,3.107974,9.980852,6.825398,3.031155,9.955674,-0.1624604,-0.4246759,1.430441,0.2275466,-0.4060291,1.435406,0.03491637,0.4461369,1.539201,-0.1152612,-0.4035415,1.402018,0.1800813,-0.3885798,1.403095,0.02866941,-0.02273165,1.549246,0.03286907,-0.3474154,1.5283,-0.154632,0.1671749,1.537992,-0.05150052,-0.3381871,1.489515,-0.195161,-0.1096951,1.536736,0.2464705,-0.1058001,1.535234,NA,NA,NotTracked,NotTracked,
1.045898,-0.4526367,0.078125,1.074707,0.2436523,0.1088867,12,3,-4,-2,-3,1,9,6,21,7,0,-2,0,0,8,30,45.4375,45.4375,45.4375,-11.75,-11.75,-11.75,3.151589,3.193956,9.965077,6.764037,3.050671,0.01397355,-0.1627591,-0.4180486,1.424143,0.2274294,-0.4089872,1.431032,0.03496847,0.4461051,1.539083,-0.1156613,-0.4000535,1.402396,0.179399,-0.3935221,1.402688,0.02868281,-0.02273127,1.549177,0.03287074,-0.3474172,1.528231,-0.1544976,0.1672118,1.537739,-0.05151751,-0.3381638,1.48937,-0.1953751,-0.1091564,1.53727,0.2468689,-0.1052583,1.536046,NA,NA,NotTracked,NotTracked,
0.9916992,-0.5053711,0.1987305,1.038086,0.359375,0.07080078,-10,0,14,4,8,-4,3,1,-9,-12,-1,0,5,2,-1,1,54.25,54.25,54.25,23.625,23.625,23.625,3.214676,3.316854,9.958534,6.691566,3.129663,0.1106079,-0.1599173,-0.4133939,1.412819,0.2278502,-0.412715,1.421852,0.0350057,0.4461312,1.538932,-0.1177071,-0.4240112,1.3872,0.1844706,-0.4149537,1.4005,0.02867234,-0.0227134,1.548974,0.03288407,-0.3474337,1.528089,-0.154432,0.1672329,1.537538,-0.05152277,-0.3381639,1.489139,-0.1960827,-0.1082238,1.538491,0.2477988,-0.1047648,1.537248,NA,NA,NotTracked,NotTracked,
0.8803711,-0.6098633,0.2905273,1.028809,0.5532227,0.2177734,14,1,-15,-1,13,6,-4,0,11,5,3,-1,9,2,-3,-2,46.1875,46.1875,46.1875,-6.1875,-6.1875,-6.1875,3.257966,3.467175,9.973691,6.681873,3.313562,0.1361074,-0.1586237,-0.3970526,1.400463,0.2250911,-0.4103766,1.409095,0.03511263,0.4461581,1.538777,-0.1262293,-0.3681423,1.380679,0.1782927,-0.4136806,1.400667,0.02873053,-0.02267354,1.548869,0.03289237,-0.3474331,1.528075,-0.1543702,0.1673192,1.537348,-0.05150618,-0.3381639,1.489099,-0.1972969,-0.1064634,1.541194,0.2499081,-0.1036185,1.540076,NA,NA,NotTracked,NotTracked,
0.8300781,-0.6289063,0.3554688,1.006348,0.578125,0.3286133,29,-11,-10,-3,-6,-1,1,7,-5,-8,-6,-4,-9,0,19,9,39.8125,39.8125,39.8125,-20,-20,-20,3.275491,3.636715,0.0116023,6.671587,3.394718,0.1349247,-0.1603618,-0.3683074,1.383625,0.2238232,-0.3873425,1.390254,0.0351931,0.4460731,1.538635,-0.1260427,-0.3605804,1.414562,0.1802337,-0.3701688,1.4056,0.02876263,-0.02270127,1.548826,0.03290655,-0.3474562,1.528069,-0.1542647,0.16751,1.537228,-0.05149062,-0.3381876,1.48909,-0.19961,-0.1025799,1.545622,0.2528523,-0.1021063,1.543244,NA,NA,NotTracked,NotTracked,
0.6894531,-0.7016602,0.4267578,0.7700195,0.6889648,0.40625,-13,0,-15,-12,-17,-11,-2,-9,1,16,12,0,-12,-1,20,-3,33.4375,33.4375,33.4375,-57.0625,-57.0625,-57.0625,3.284876,3.819865,0.05595199,6.645973,3.682202,0.07320639,-0.1723299,-0.3379498,1.347513,0.2255658,-0.3540999,1.365778,0.03537096,0.4460238,1.538167,-0.1519351,-0.3645901,1.386857,0.1900101,-0.4048293,1.376,0.02887372,-0.022726,1.548715,0.03290677,-0.3474678,1.528053,-0.1541926,0.1676916,1.537189,-0.05149739,-0.3382044,1.489048,-0.2021552,-0.09719922,1.549358,0.2566239,-0.09744309,1.547095,NA,NA,NotTracked,Unknown,
0.5229492,-0.7421875,0.4003906,0.7133789,0.6220703,0.4848633,44,25,-2,-8,-6,-2,3,2,1,15,18,5,-50,-19,15,4,31,31,31,-68.1875,-68.1875,-68.1875,3.2846,4.014479,0.1146177,6.614426,3.882535,0.01193188,-0.1764663,-0.2737007,1.313823,0.2200463,-0.2883735,1.327395,0.03567082,0.4460162,1.537447,-0.1466959,-0.300567,1.24825,0.1844762,-0.3411267,1.3275,0.02904006,-0.02269952,1.548496,0.03290234,-0.3474195,1.528049,-0.1539291,0.1682587,1.537191,-0.05151523,-0.3381034,1.489012,-0.2072917,-0.08379635,1.558675,0.2620439,-0.07995673,1.558001,NA,NA,Unknown,Unknown,
0.4970703,-0.7338867,0.3979492,0.6347656,0.5805664,0.534668,5,13,17,1,-4,-2,-3,0,5,4,0,4,27,27,23,5,29.75,29.75,29.75,-65.6875,-65.6875,-65.6875,3.28141,4.197758,0.1824477,6.592237,3.985357,9.987341,-0.1907507,-0.2318958,1.280063,0.2333973,-0.2357242,1.292268,0.03587631,0.4460561,1.536919,-0.1586601,-0.210848,1.2594,0.1933752,-0.2441133,1.27725,0.02906075,-0.02266064,1.548345,0.03289583,-0.3473732,1.528019,-0.1537527,0.1684504,1.537148,-0.05152305,-0.3380324,1.488973,-0.207512,-0.07486216,1.562034,0.2623821,-0.07222305,1.561359,NA,NA,Closed,Unknown,
0.4189453,-0.762207,0.4160156,0.3120117,0.637207,0.4887695,14,-1,-2,-8,-8,3,1,-4,-7,-13,-1,1,-31,-27,-28,-7,27.6875,27.6875,27.6875,-31.25,-31.25,-31.25,3.290777,4.37491,0.2414847,6.568143,4.306725,9.89629,-0.201389,-0.1924508,1.265602,0.2400946,-0.1933986,1.273404,0.03614229,0.446077,1.536467,-0.182042,-0.1612895,1.2597,0.2133276,-0.1681464,1.271,0.02915349,-0.0225573,1.548253,0.03290556,-0.3472081,1.528021,-0.1537189,0.1686587,1.537175,-0.05151821,-0.3378767,1.488974,-0.2088794,-0.06874425,1.564333,0.2617269,-0.0658513,1.564272,NA,NA,Closed,Closed,
0.3286133,-0.8022461,0.4042969,0.2880859,0.6801758,0.4946289,-46,-3,23,-1,4,3,-2,-5,-4,-2,-11,-14,51,4,-13,-11,17.375,17.375,17.375,-28.5,-28.5,-28.5,3.28823,4.461709,0.2752936,6.566216,4.407892,9.860222,-0.214755,-0.1591649,1.254494,0.2463493,-0.1583081,1.260116,0.03628817,0.4460805,1.536192,-0.1798552,-0.1347992,1.239111,0.2235747,-0.1298526,1.257534,0.02922482,-0.02247562,1.548174,0.03285003,-0.3469918,1.52802,-0.1535642,0.169267,1.537328,-0.05159117,-0.3376408,1.488968,-0.2095569,-0.06320126,1.564708,0.260646,-0.06255419,1.565061,NA,NA,Closed,Closed,
0.2768555,-0.7373047,0.4482422,0.21875,0.7792969,0.4223633,22,3,22,3,3,5,-3,-1,0,0,-5,3,52,7,-5,10,12.5,12.5,12.5,-32.375,-32.375,-32.375,3.294311,4.675652,0.3678369,6.562721,4.595049,9.778716,-0.2309067,-0.1273269,1.251589,0.2585464,-0.1245045,1.253588,0.03641,0.4460596,1.536095,-0.1950411,-0.09909742,1.2285,0.2179536,-0.0998569,1.237667,0.02929624,-0.02244705,1.548148,0.03280971,-0.3468809,1.528051,-0.1534819,0.1697496,1.53735,-0.05161715,-0.3375182,1.489024,-0.2084886,-0.05522249,1.566998,0.2602795,-0.05635348,1.566887,NA,NA,Closed,Closed,
0.1665039,-0.7783203,0.4326172,0.1816406,0.6298828,0.5131836,5,-1,8,9,3,-3,1,1,2,1,2,-4,3,4,9,-5,-10.9375,-10.9375,-10.9375,-39.6875,-39.6875,-39.6875,3.278182,4.788215,0.4195291,6.534937,4.746634,9.699513,-0.2547223,-0.07123435,1.249957,0.2825669,-0.0689172,1.248594,0.03682734,0.4459182,1.535757,-0.2195695,-0.03520177,1.216,0.2265131,-0.04596999,1.2188,0.02942574,-0.0224241,1.548055,0.0328194,-0.3467835,1.528078,-0.152846,0.1704463,1.537571,-0.05157432,-0.3374178,1.489082,-0.209547,-0.07465967,1.581763,0.2639836,-0.09434262,1.565485,NA,NA,Closed,Unknown,
0.1035156,-0.75,0.4614258,0.0625,0.6972656,0.5200195,2,1,5,8,-2,-2,0,-2,-11,-12,-7,-3,-10,-3,-3,3,-8.0625,-8.0625,-8.0625,5.625,5.625,5.625,3.268485,4.863094,0.4640226,6.529219,4.918235,9.600849,-0.2623544,-0.05046276,1.253392,0.2890466,-0.04708967,1.250562,0.03701074,0.4458885,1.535675,-0.2207027,-0.01766857,1.234333,0.2418145,-0.02309989,1.2324,0.02945352,-0.02242238,1.548045,0.03277461,-0.3467532,1.528105,-0.1524589,0.1708717,1.537784,-0.0516012,-0.3373709,1.489126,-0.2158622,-0.08957546,1.572096,0.2661948,-0.09968541,1.562787,NA,NA,Closed,Unknown,
0.08300781,-0.7563477,0.4814453,0.04394531,0.7363281,0.5419922,11,4,8,-3,7,2,-1,-1,-5,-2,-3,-7,-38,-23,-7,-11,-16.3125,-16.3125,-16.3125,2.5,2.5,2.5,3.255929,4.90609,0.5003676,6.530694,4.956844,9.575012,-0.2694771,-0.03477771,1.252319,0.2967757,-0.03257314,1.252672,0.03726043,0.4458163,1.535339,-0.2227569,-0.008919599,1.216,0.2473311,-0.007498688,1.224,0.02953798,-0.02242981,1.547837,0.03275323,-0.3467359,1.528041,-0.1520129,0.171299,1.537653,-0.05160254,-0.3373642,1.48911,-0.2209276,-0.09412866,1.564824,0.2770409,-0.1004174,1.537774,NA,NA,Closed,Unknown,
0.06298828,-0.7646484,0.4931641,-0.01757813,0.7207031,0.5932617,-21,-7,-15,-16,-5,-2,-2,-4,4,2,-5,-4,-34,-11,-5,1,-12.25,-12.25,-12.25,-2.3125,-2.3125,-2.3125,3.252063,4.918614,0.5162708,6.5251,5.010595,9.539515,-0.2746451,-0.0257887,1.254784,0.3006617,-0.02137884,1.254804,0.03745436,0.4457659,1.535212,-0.2263565,0.001695453,1.2248,0.246255,0.01116549,1.228,0.02959858,-0.02243438,1.547773,0.03274951,-0.3466824,1.527961,-0.1518183,0.1714822,1.537647,-0.05160542,-0.3373443,1.4891,-0.252985,-0.07232608,1.523286,0.2784701,-0.1025678,1.540045,NA,NA,Closed,Unknown,
0.02783203,-0.7763672,0.5068359,-0.04248047,0.6806641,0.6196289,18,2,-2,-2,-4,-2,-4,3,-6,1,1,-4,5,0,-6,-9,-3.8125,-3.8125,-3.8125,-0.25,-0.25,-0.25,3.250043,4.932363,0.54624,6.515781,5.041059,9.518112,-0.2812478,-0.02172865,1.255978,0.3026608,-0.01484957,1.255825,0.037683,0.4456947,1.535044,-0.230175,0.009341172,1.21175,0.2512906,0.01035742,1.2266,0.02971989,-0.02247746,1.54768,0.03273354,-0.3466732,1.527929,-0.1515752,0.1717134,1.537641,-0.05161437,-0.3373409,1.489082,-0.2312332,-0.09578799,1.571101,0.2805952,-0.1027263,1.53616,NA,NA,Closed,Unknown,
0.1069336,-0.7885742,0.6030273,-0.0625,0.6938477,0.6240234,-30,0,11,6,12,2,-1,-3,1,-5,-1,6,-34,-21,-2,3,7.4375,7.4375,7.4375,3.4375,3.4375,3.4375,3.274953,4.911691,0.5735524,6.510384,5.052662,9.509758,-0.284164,-0.02240568,1.25795,0.3040418,-0.01439886,1.256722,0.03783253,0.4456578,1.534951,-0.250611,-0.02569954,1.239143,0.2586576,0.01182333,1.234333,0.02986312,-0.02251511,1.547569,0.03271302,-0.3466729,1.527866,-0.1514773,0.1718388,1.537637,-0.05162919,-0.3373381,1.489059,-0.2325876,-0.09656453,1.569752,0.2830163,-0.1044857,1.53494,NA,NA,Unknown,Unknown,
0.1323242,-0.8198242,0.6411133,-0.08544922,0.7260742,0.6748047,4,-2,-5,-9,-4,-1,-10,-5,7,10,-1,1,-30,0,10,19,17.9375,17.9375,17.9375,-11.25,-11.25,-11.25,3.305083,4.884032,0.5580223,6.493747,5.04526,9.528508,-0.2837388,-0.03198764,1.25592,0.2993795,-0.01986151,1.253756,0.03823022,0.4456519,1.534828,-0.2309114,-0.003467154,1.2036,0.253594,0.009642293,1.222136,0.03003711,-0.02256154,1.547406,0.03268193,-0.3466865,1.527696,-0.1512818,0.1719865,1.537727,-0.05166704,-0.3373517,1.488942,-0.2298508,-0.1012583,1.576219,0.2837735,-0.1063759,1.535236,NA,NA,Closed,Closed,
0.1010742,-0.7939453,0.6362305,-0.05761719,0.6811523,0.703125,27,3,-6,-1,1,-1,3,3,0,0,-4,-6,-11,-11,-3,-17,29.5625,29.5625,29.5625,-21.125,-21.125,-21.125,3.350952,4.86125,0.511424,6.461526,5.026189,9.570538,-0.2775553,-0.03841681,1.255293,0.2915106,-0.0261565,1.249181,0.03839979,0.4456325,1.534776,-0.2334845,-0.006185442,1.215513,0.2501141,0.004408287,1.225637,0.03003119,-0.02254427,1.547387,0.03266078,-0.3466517,1.527609,-0.1510428,0.1721966,1.537636,-0.05168388,-0.3373238,1.488897,-0.2153579,-0.04889007,1.566281,0.2822264,-0.1084156,1.538712,NA,NA,Closed,Unknown,
0.09521484,-0.8417969,0.621582,-0.06396484,0.7045898,0.6821289,6,0,-5,-2,-6,-2,2,5,0,5,-4,3,53,16,-1,-2,29.75,29.75,29.75,-0.75,-0.75,-0.75,3.400189,4.844867,0.4296942,6.444478,5.008685,9.632287,-0.2671144,-0.04533161,1.251155,0.2815055,-0.03238105,1.243933,0.03862314,0.4455206,1.534601,-0.2196833,-0.02256958,1.2064,0.2316673,-0.008880761,1.221,0.03016576,-0.02260493,1.547251,0.03264813,-0.3466418,1.527472,-0.1507891,0.1723396,1.537632,-0.0516682,-0.3373029,1.488771,-0.2193423,-0.09987333,1.559446,0.2798034,-0.1096496,1.538636,NA,NA,Closed,Unknown,
0.1064453,-0.8330078,0.5634766,0.006835938,0.8012695,0.7182617,-21,-5,-2,-1,1,-1,-1,1,-4,4,-4,-6,6,6,8,21,28.75,28.75,28.75,-14.9375,-14.9375,-14.9375,3.447024,4.829072,0.3121862,6.430386,4.988331,9.722336,-0.2482231,-0.0508719,1.248038,0.2669849,-0.03914595,1.240095,0.03879002,0.4455755,1.534647,-0.2067586,-0.02653784,1.218667,0.2214221,-0.02707472,1.238,0.03021796,-0.02254597,1.547189,0.03269796,-0.346551,1.527251,-0.1506288,0.1725371,1.537697,-0.05161631,-0.3372028,1.488556,-0.2170011,-0.1007683,1.558283,0.2733981,-0.1105926,1.539346,NA,NA,Closed,Unknown,
0.07666016,-0.8476563,0.5556641,-0.008300781,0.7695313,0.7333984,38,7,2,-7,-1,2,6,-1,-12,-16,-8,-8,27,7,15,-19,23,23,23,-27.5,-27.5,-27.5,3.465999,4.824858,0.2458214,6.411204,4.982075,9.778878,-0.2249798,-0.05432973,1.244327,0.2456984,-0.0442966,1.238951,0.03893264,0.4455602,1.534687,-0.1883335,-0.02398257,1.2146,0.1957965,-0.01335418,1.2084,0.03027556,-0.02254718,1.547152,0.03270739,-0.346539,1.527214,-0.1502441,0.1727785,1.537685,-0.05158177,-0.3371776,1.488458,-0.2011547,-0.1085309,1.554305,0.2415626,-0.05944508,1.556947,NA,NA,Closed,Unknown,
0.1298828,-0.9042969,0.5141602,0.04589844,0.7675781,0.6831055,33,9,3,1,4,3,0,2,8,12,1,-3,-21,-14,-10,-11,13.75,13.75,13.75,-7,-7,-7,3.495649,4.81715,0.1055793,6.374327,4.965296,9.975033,-0.1989366,-0.06053725,1.244612,0.2260711,-0.05266041,1.240893,0.03906842,0.4455417,1.534821,-0.1575053,-0.03017635,1.20925,0.1722279,-0.02776054,1.222333,0.0303482,-0.0225352,1.547142,0.03275065,-0.3465143,1.527139,-0.1498636,0.1729547,1.537676,-0.05152114,-0.3371418,1.488386,-0.1922639,-0.05477249,1.560718,0.2426312,-0.0607944,1.544131,NA,NA,Closed,Lasso,
0.1230469,-0.9628906,0.4833984,0.06494141,0.8300781,0.6098633,3,-6,-10,-3,-4,-1,-3,-4,7,-9,-5,-4,2,5,1,13,7.5625,7.5625,7.5625,-10.0625,-10.0625,-10.0625,3.507755,4.817497,9.978228,6.36562,4.953692,0.1096029,-0.1451588,-0.0671948,1.248361,0.1814104,-0.06114924,1.247928,0.03947736,0.4454335,1.535329,-0.1410562,-0.03387561,1.22375,0.1806162,-0.03298455,1.2219,0.03047632,-0.02254371,1.547151,0.03287724,-0.3464629,1.526965,-0.1494185,0.1729013,1.537791,-0.05135218,-0.3370757,1.488185,-0.2047964,-0.0530936,1.554016,0.2543612,-0.05955333,1.522523,NA,NA,Unknown,Lasso,
0.1650391,-1.008789,0.4023438,0.1308594,0.8603516,0.5620117,27,9,13,5,-1,4,9,-2,3,-13,-10,-5,19,9,4,19,0.1875,0.1875,0.1875,-6.3125,-6.3125,-6.3125,3.499356,4.818928,9.901668,6.362424,4.938816,0.2145008,-0.1244165,-0.06657956,1.250655,0.1633332,-0.06227195,1.248682,0.03965234,0.4454081,1.535555,-0.1015272,-0.04111319,1.23575,0.1274048,-0.03555376,1.2206,0.03053617,-0.0225295,1.547146,0.0329973,-0.3464035,1.526824,-0.1492981,0.1727358,1.53784,-0.05114279,-0.3370037,1.487944,-0.2499734,-0.1089193,1.530868,0.2569233,-0.05895632,1.519288,NA,NA,Lasso,Lasso,
0.1904297,-1.052246,0.3217773,0.152832,0.9116211,0.543457,21,5,2,-10,-2,-6,11,13,7,17,2,-2,4,-4,-5,-4,3.0625,3.0625,3.0625,-6.0625,-6.0625,-6.0625,3.477583,4.822452,9.892838,6.36493,4.930381,0.2488169,-0.1141105,-0.06476758,1.254393,0.1530723,-0.06336789,1.250937,0.03981461,0.4453578,1.535755,-0.1278554,-0.04428492,1.279333,0.1094015,-0.06258588,1.245875,0.03068438,-0.0224016,1.547263,0.03311364,-0.3462005,1.526742,-0.1490435,0.1725574,1.537821,-0.05097463,-0.3368046,1.487849,-0.2494385,-0.1059067,1.528564,0.2577344,-0.05861715,1.518063,NA,NA,Lasso,Lasso,
0.2084961,-1.027344,0.2905273,0.230957,0.980957,0.5009766,5,1,2,11,0,-4,-10,-4,5,7,-3,1,2,3,7,1,-7.9375,-7.9375,-7.9375,-8.625,-8.625,-8.625,3.440749,4.828928,9.943557,6.374364,4.916589,0.2731359,-0.1139179,-0.06288339,1.253877,0.1502891,-0.06284426,1.249878,0.03999738,0.445366,1.536289,-0.06119317,-0.03330789,1.222667,0.1285502,-0.04072051,1.231222,0.03079078,-0.02239781,1.547322,0.03316246,-0.3461725,1.526741,-0.1487937,0.1723593,1.537881,-0.05086481,-0.3367694,1.487819,-0.2498431,-0.1058963,1.528077,0.2581436,-0.05845568,1.51639,NA,NA,Lasso,Lasso,
0.1914063,-0.9794922,0.3417969,0.2133789,0.9628906,0.4736328,8,0,-5,-9,-3,0,2,0,0,-4,-2,-1,-59,-13,-7,-8,-23.25,-23.25,-23.25,-7.125,-7.125,-7.125,3.389743,4.832684,0.02892661,6.387626,4.913771,0.2446619,-0.120743,-0.06170234,1.24948,0.1554881,-0.06045477,1.24841,0.04013931,0.4454224,1.536718,-0.05671489,-0.03578411,1.219866,0.1028897,-0.0392588,1.228,0.03085945,-0.02233418,1.547365,0.0331926,-0.3460455,1.52677,-0.1488985,0.1724174,1.538048,-0.05079067,-0.3366395,1.48782,-0.2494318,-0.1055649,1.528241,0.2583438,-0.0582592,1.514553,NA,NA,Lasso,Lasso,
0.1762695,-0.934082,0.4648438,0.1279297,0.8764648,0.5405273,4,2,3,-3,-1,-1,-1,0,1,6,8,10,14,-2,4,-4,-31.25,-31.25,-31.25,10.875,10.875,10.875,3.337892,4.835693,0.1302824,6.421888,4.918787,0.1406618,-0.1349471,-0.06050687,1.245602,0.165087,-0.05841894,1.246765,0.04027501,0.4454529,1.53694,-0.07412276,-0.03430378,1.218333,0.1087864,-0.02997146,1.219333,0.03095716,-0.02229236,1.547421,0.0332112,-0.345991,1.526771,-0.1489406,0.1724602,1.53814,-0.05075188,-0.3365866,1.487819,-0.2104889,-0.05426187,1.532894,0.2583524,-0.05813072,1.514179,NA,NA,Lasso,Lasso,
0.1586914,-0.8911133,0.5498047,0.1010742,0.8476563,0.5742188,-44,-11,-8,10,2,0,-1,-5,1,1,1,3,9,1,-2,-6,-37.9375,-37.9375,-37.9375,16.0625,16.0625,16.0625,3.288928,4.841166,0.2353633,6.435864,4.921907,0.09521265,-0.1527486,-0.06139137,1.244783,0.1808302,-0.05702398,1.246616,0.04045549,0.4453707,1.537111,-0.09117302,-0.03601995,1.2162,0.18485,-0.02745623,1.211,0.03101207,-0.02227717,1.547468,0.03323229,-0.3459807,1.526777,-0.1486928,0.1724335,1.53817,-0.05070838,-0.336556,1.487793,-0.2100672,-0.05434331,1.532838,0.2582546,-0.05803705,1.513972,NA,NA,Lasso,Lasso,
0.1401367,-0.8349609,0.6044922,0.046875,0.831543,0.637207,-14,-2,-5,-9,-5,-2,-1,-2,1,3,3,2,-2,6,4,1,-36,-36,-36,28.25,28.25,28.25,3.249582,4.847371,0.3307429,6.471786,4.928652,9.995487,-0.1949637,-0.05305889,1.233982,0.2179672,-0.05262759,1.24822,0.04066037,0.4453127,1.537159,-0.1352447,-0.03818526,1.2015,0.2034638,-0.02749034,1.2446,0.03110128,-0.02230802,1.547427,0.03335883,-0.3460011,1.526592,-0.1483688,0.172581,1.537964,-0.05059381,-0.3365513,1.487521,-0.2061586,-0.05425286,1.543413,0.2562779,-0.05845872,1.517705,NA,NA,Unknown,Lasso,
0.1137695,-0.7963867,0.652832,0.001464844,0.7602539,0.6982422,-31,-10,-12,-4,1,5,0,-6,-5,-4,2,3,-5,0,0,-5,-29.5625,-29.5625,-29.5625,24,24,24,3.223537,4.854297,0.4077444,6.496961,4.935643,9.89712,-0.2187342,-0.05688733,1.241825,0.2387021,-0.05078346,1.247941,0.04088852,0.4453013,1.537074,-0.1644739,-0.03845199,1.2098,0.185045,-0.02716414,1.2195,0.03113313,-0.02233885,1.547397,0.03338864,-0.3460781,1.526492,-0.1482249,0.1726766,1.537941,-0.05060128,-0.3366331,1.48732,-0.2056781,-0.05350961,1.549302,0.2460359,-0.0587406,1.551961,NA,NA,Unknown,Lasso,
0.07080078,-0.7490234,0.6870117,-0.05126953,0.706543,0.7407227,9,1,-8,-7,0,-2,0,3,-5,-3,-2,2,6,1,-5,4,-18.625,-18.625,-18.625,23.25,23.25,23.25,3.217454,4.862419,0.4559741,6.512634,4.947487,9.804906,-0.2359664,-0.05444671,1.244899,0.2540976,-0.04772474,1.247388,0.04105455,0.4453364,1.537034,-0.1779564,-0.03822374,1.20325,0.1930324,-0.02189867,1.2075,0.03119641,-0.02235677,1.547371,0.03338906,-0.3461057,1.526443,-0.1481967,0.1726907,1.537958,-0.05062778,-0.3366704,1.487238,-0.206764,-0.05260707,1.55329,0.2467507,-0.05838818,1.554939,NA,NA,Unknown,Unknown,
0.03955078,-0.7241211,0.6826172,-0.08740234,0.6767578,0.7597656,-18,-2,8,23,-3,1,1,-2,-7,-8,-2,-8,-49,-15,-8,-10,-7.125,-7.125,-7.125,17.375,17.375,17.375,3.227428,4.871121,0.4704367,6.518543,4.962185,9.73112,-0.2474742,-0.05149691,1.246627,0.2677819,-0.04670822,1.247905,0.04119907,0.4453338,1.536905,-0.1947737,-0.03330884,1.217,0.2168193,-0.01864583,1.212,0.03123084,-0.02237283,1.54731,0.03339102,-0.3461493,1.526395,-0.1482049,0.172702,1.537951,-0.05065393,-0.3367375,1.487159,-0.2191199,-0.084419,1.577156,0.2472478,-0.05723312,1.562084,NA,NA,Closed,Unknown,
0.04882813,-0.7280273,0.6835938,-0.08105469,0.6396484,0.7666016,16,2,2,-1,-3,-2,-2,-4,-2,-5,-7,-12,23,8,-1,-2,9.125,9.125,9.125,5.6875,5.6875,5.6875,3.256968,4.87575,0.4490712,6.510305,4.974727,9.689159,-0.2544407,-0.05030753,1.248709,0.2752729,-0.04491137,1.249093,0.04128738,0.4453719,1.53686,-0.19209,-0.03601325,1.203,0.2225731,-0.02101841,1.219833,0.03127035,-0.02238391,1.5473,0.03339443,-0.346156,1.52638,-0.1482267,0.1727863,1.538026,-0.05066308,-0.3367459,1.487126,-0.2193228,-0.08443481,1.576868,0.2744602,-0.1088787,1.535377,NA,NA,Closed,Unknown,
0.0546875,-0.7583008,0.6464844,-0.05810547,0.6591797,0.7744141,14,-1,-4,-6,-6,-16,-7,-1,3,5,4,5,15,-2,0,-2,24.0625,24.0625,24.0625,-16.6875,-16.6875,-16.6875,3.325506,4.877719,0.3464711,6.454098,4.993566,9.724217,-0.2314575,-0.05176792,1.242702,0.26222,-0.04531215,1.242495,0.04137795,0.4453909,1.536846,-0.1858594,-0.0333872,1.209346,0.2143593,-0.02956907,1.227429,0.03136098,-0.02243,1.547269,0.03341764,-0.3461837,1.526351,-0.1486395,0.1730781,1.538455,-0.05066573,-0.3368022,1.487072,-0.2123876,-0.09416006,1.574845,0.268274,-0.1120268,1.530849,NA,NA,Closed,Unknown,
0.09716797,-0.8291016,0.6074219,-0.03369141,0.6943359,0.7490234,19,-2,-7,-7,-4,3,11,-3,11,20,-7,-1,27,9,-5,-6,26.625,26.625,26.625,-21.375,-21.375,-21.375,3.371187,4.876599,0.2348074,6.416773,4.999773,9.800447,-0.2133449,-0.05353076,1.239345,0.2460455,-0.04648969,1.240154,0.04137622,0.4453007,1.536806,-0.1706647,-0.02997694,1.211,0.1867665,-0.02030472,1.2095,0.03136736,-0.02243359,1.547272,0.03343396,-0.3461778,1.526338,-0.1486161,0.1731518,1.538459,-0.05065787,-0.3368017,1.487053,-0.2106373,-0.09424474,1.573173,0.2446776,-0.05883248,1.555969,NA,NA,Closed,Unknown,
0.1015625,-0.8808594,0.559082,0.006347656,0.753418,0.7202148,-6,5,5,-7,-4,-1,3,-2,-2,-1,6,8,0,-1,3,-1,22.3125,22.3125,22.3125,-21.4375,-21.4375,-21.4375,3.408724,4.878575,0.09934246,6.386564,5.004719,9.911125,-0.190241,-0.0552978,1.241573,0.2297363,-0.050627,1.24618,0.0413722,0.4452436,1.53681,-0.1474467,-0.03269283,1.205714,0.1827687,-0.03564367,1.226667,0.03138202,-0.02246391,1.547315,0.03347245,-0.346176,1.526353,-0.148606,0.1731844,1.538491,-0.05061869,-0.3368057,1.487075,-0.2143328,-0.05196949,1.538092,0.2461096,-0.0599907,1.543107,NA,NA,Unknown,Unknown,
0.1386719,-0.9584961,0.4848633,0.05126953,0.8081055,0.6577148,10,2,2,-2,-3,1,2,7,-5,-11,3,-3,5,-1,4,0,15.8125,15.8125,15.8125,-15.6875,-15.6875,-15.6875,3.434832,4.886558,9.9697,6.367506,5.004498,0.04522023,-0.1614003,-0.05617647,1.24165,0.2008584,-0.05042156,1.24249,0.04140602,0.4452483,1.536941,-0.1088189,-0.03663442,1.213,0.1320479,-0.02214779,1.22,0.0314661,-0.02248955,1.547419,0.03351247,-0.3462097,1.526388,-0.1485741,0.1731889,1.538522,-0.05058312,-0.3368429,1.487085,-0.2170742,-0.05125931,1.536213,0.2525672,-0.05951315,1.52178,NA,NA,Unknown,Lasso,
0.1611328,-1.005371,0.4008789,0.1040039,0.8554688,0.578125,-13,-5,9,3,-2,-1,2,2,-2,-2,0,2,0,2,-5,-9,16.6875,16.6875,16.6875,-7.8125,-7.8125,-7.8125,3.442852,4.893949,9.870751,6.365765,4.999537,0.1724694,-0.1387617,-0.05568747,1.2451,0.1628639,-0.03989445,1.234366,0.04141878,0.4451481,1.537081,-0.09810537,-0.0347063,1.231333,0.107741,-0.02106162,1.220667,0.03151876,-0.0225218,1.547601,0.03350569,-0.3462306,1.526478,-0.1485475,0.1731866,1.538523,-0.05056831,-0.3368744,1.487158,-0.2569408,-0.1142209,1.519988,0.2549596,-0.05891793,1.51644,NA,NA,Lasso,Lasso,
0.1777344,-1.02002,0.3095703,0.1357422,0.8754883,0.5444336,-6,-8,-14,3,-8,-5,1,-1,-3,1,2,4,2,0,4,3,10.9375,10.9375,10.9375,-6.125,-6.125,-6.125,3.437411,4.901425,9.817798,6.368551,4.994895,0.2228932,-0.1100962,-0.05245053,1.250111,0.1474174,-0.05243449,1.251722,0.04138441,0.4451064,1.537616,-0.0559865,-0.03125124,1.231,0.0912533,-0.03987216,1.253,0.03156656,-0.02243669,1.54804,0.03357832,-0.3461453,1.5267,-0.1483729,0.1730465,1.538468,-0.05036483,-0.3368122,1.487422,-0.2097988,-0.05409098,1.516453,0.2588148,-0.05764508,1.509443,NA,NA,Lasso,Lasso,
0.1499023,-1.003906,0.3085938,0.1450195,0.9291992,0.5024414,17,10,12,-18,-5,1,3,2,-8,-17,6,-3,-15,-3,2,26,4.8125,4.8125,4.8125,-10.8125,-10.8125,-10.8125,3.421822,4.908306,9.808555,6.373446,4.988464,0.2859328,-0.1029982,-0.04941838,1.250949,0.1423594,-0.05212652,1.253314,0.041336,0.4451592,1.538055,-0.07679114,-0.02948536,1.2476,0.1116595,-0.02229476,1.224833,0.03162422,-0.02231702,1.54834,0.03371174,-0.3459114,1.527029,-0.1483127,0.1729366,1.538473,-0.05017107,-0.3366295,1.487622,-0.2490432,-0.1062961,1.494388,0.2587795,-0.05748004,1.508622,NA,NA,Lasso,Lasso,
0.168457,-0.9545898,0.3686523,0.1616211,0.9145508,0.5078125,4,-1,-2,2,1,1,-2,0,-7,8,6,-1,-10,-2,-4,-9,-9.625,-9.625,-9.625,-12.375,-12.375,-12.375,3.396577,4.90756,9.834006,6.375667,4.984358,0.3037037,-0.1015869,-0.04718534,1.247523,0.1416414,-0.05098506,1.251777,0.04126427,0.44525,1.538426,-0.06798336,-0.02449125,1.231638,0.1493341,-0.03113762,1.212529,0.03166099,-0.02226908,1.548492,0.03370295,-0.3458152,1.527201,-0.1484664,0.1729695,1.538601,-0.05012572,-0.3365585,1.487734,-0.2479006,-0.1066598,1.49434,0.2589823,-0.05731013,1.507713,NA,NA,Lasso,Lasso,
0.1459961,-0.9003906,0.4467773,0.1474609,0.8945313,0.515625,3,-1,-4,-1,1,-1,-2,-1,-2,-8,-5,-3,-10,-1,-3,-15,-16.375,-16.375,-16.375,-1.0625,-1.0625,-1.0625,3.368033,4.90018,9.878592,6.387162,4.981261,0.2848428,-0.1067217,-0.04550865,1.24547,0.1457228,-0.04980032,1.251231,0.04124311,0.4452526,1.538541,-0.03591323,-0.02587685,1.234667,0.1515798,-0.07022236,1.221708,0.03165237,-0.02225243,1.548669,0.03371638,-0.3457493,1.527339,-0.1485191,0.1730007,1.538689,-0.05007359,-0.3365046,1.487824,-0.2481451,-0.1058134,1.495628,0.2590142,-0.05724924,1.507555,NA,NA,Lasso,Lasso,
0.144043,-0.8256836,0.5009766,0.1098633,0.8769531,0.527832,0,-2,-1,0,-2,-1,-4,-2,-2,1,-1,0,0,0,-2,-6,-21.8125,-21.8125,-21.8125,1,1,1,3.341159,4.883389,9.929986,6.394116,4.979222,0.266695,-0.1149938,-0.046,1.241186,0.1530259,-0.04955599,1.249724,0.04120285,0.4452941,1.538825,-0.1044561,-0.02760064,1.242273,0.1553871,-0.0749391,1.22395,0.0316207,-0.02226011,1.548949,0.03374815,-0.3457564,1.527555,-0.1483675,0.1729639,1.538682,-0.05000282,-0.3365155,1.487988,-0.2480311,-0.1056797,1.496223,0.2589501,-0.05708843,1.506896,NA,NA,Lasso,Lasso,
0.1621094,-0.7695313,0.5454102,0.04492188,0.75,0.5917969,-2,5,0,16,0,-1,0,-1,0,1,0,0,6,12,-4,-5,-23.375,-23.375,-23.375,10.125,10.125,10.125,3.317719,4.852531,9.977158,6.411767,4.963524,0.1854064,-0.1276681,-0.04818172,1.237314,0.1647791,-0.0503749,1.248559,0.04119946,0.4452945,1.538831,-0.06451795,-0.02408378,1.204667,0.16947,-0.07655914,1.221778,0.0316322,-0.02224636,1.548975,0.03376069,-0.3457047,1.527599,-0.1484901,0.1730142,1.538787,-0.049972,-0.3364674,1.487998,-0.2124407,-0.05335041,1.514633,0.2588271,-0.0569478,1.506689,NA,NA,Lasso,Lasso,
0.08837891,-0.7290039,0.5488281,0.04101563,0.7172852,0.628418,4,-3,-3,-6,-1,-1,-2,-1,-2,-1,-2,1,4,26,1,-4,-17.6875,-17.6875,-17.6875,14.8125,14.8125,14.8125,3.300826,4.812341,0.01834785,6.428316,4.937412,0.1241116,-0.1503391,-0.05897326,1.227645,0.1901137,-0.05949258,1.237959,0.04120364,0.4452567,1.538868,-0.09231962,-0.03475685,1.196,0.2069922,-0.08011474,1.2175,0.03164056,-0.02226907,1.549,0.0337765,-0.3457144,1.52761,-0.1484556,0.1730209,1.538779,-0.04995279,-0.3364804,1.488011,-0.2155481,-0.05247177,1.518963,0.2585088,-0.05749643,1.513811,NA,NA,Lasso,Lasso,
0.04150391,-0.7080078,0.5112305,0.02441406,0.7299805,0.6352539,-7,-5,-5,-3,-2,-6,-8,-30,47,-3,-3,-2,-8,0,1,13,-13.5625,-13.5625,-13.5625,10.3125,10.3125,10.3125,3.287611,4.751434,0.06528793,6.43925,4.895935,0.05101035,-0.1616769,-0.06920144,1.220578,0.2082839,-0.07521101,1.236776,0.04120132,0.445253,1.538873,-0.1035181,-0.04518698,1.213,0.2175513,-0.09990075,1.22065,0.03164314,-0.02227463,1.549009,0.03380865,-0.3457207,1.527619,-0.1484978,0.1730347,1.538802,-0.04992928,-0.3364926,1.487999,-0.2196812,-0.05095201,1.529721,0.2627351,-0.05499971,1.550409,NA,NA,Closed,Lasso,
0.1748047,-0.6381836,0.5029297,-0.02001953,0.5839844,0.5541992,2,-4,-3,-2,0,-1,13,5,4,2,-1,-4,-7,-5,3,0,-18.5625,-18.5625,-18.5625,14.75,14.75,14.75,3.271792,4.649708,0.1170937,6.457417,4.832336,9.96069,-0.1775566,-0.08624797,1.218767,0.2201367,-0.08990616,1.236152,0.04120392,0.4452676,1.538872,-0.1206588,-0.06359301,1.18675,0.2314406,-0.1213786,1.220778,0.0316705,-0.02226089,1.549016,0.03381305,-0.3457154,1.527629,-0.1485168,0.1730479,1.538819,-0.04993001,-0.3364874,1.48801,-0.218686,-0.05061415,1.539488,0.2606595,-0.0550537,1.555575,NA,NA,Closed,Unknown,
0.1767578,-0.7426758,0.4414063,0.08105469,0.597168,0.590332,0,3,-1,2,2,4,-5,10,31,4,2,1,-4,-12,-3,-1,-33.1875,-33.1875,-33.1875,27.8125,27.8125,27.8125,3.228237,4.519506,0.1719913,6.494261,4.729088,9.874154,-0.1927862,-0.1080025,1.220061,0.2341578,-0.1113773,1.238504,0.04118402,0.4452608,1.538882,-0.1388382,-0.08787065,1.189,0.2558925,-0.1373417,1.218895,0.03168971,-0.02224156,1.549095,0.03380511,-0.3457049,1.527655,-0.1486416,0.1730249,1.538993,-0.04994559,-0.3364736,1.488025,-0.2315244,-0.04599893,1.540606,0.2579427,-0.05519242,1.560556,NA,NA,Closed,Unknown,
0.3647461,-0.7744141,0.4199219,0.1113281,0.6494141,0.5424805,-4,1,-1,-2,-3,-2,-4,5,-3,-2,1,0,-3,-4,6,4,-21,-21,-21,25,25,25,3.183659,4.350037,0.2276424,6.53804,4.596844,9.800066,-0.2045311,-0.1367789,1.22065,0.2468282,-0.1409345,1.241685,0.04117829,0.4452659,1.538875,-0.1685372,-0.1150026,1.2045,0.2447394,-0.1815141,1.25675,0.03168641,-0.02223065,1.549106,0.03380217,-0.3456976,1.527662,-0.1488214,0.1729927,1.539169,-0.0499619,-0.3364569,1.488027,-0.224647,-0.06534307,1.533195,0.2775484,-0.06292009,1.558325,NA,NA,Closed,Unknown,
0.4414063,-0.8583984,0.4145508,0.3066406,0.6850586,0.5449219,3,1,0,0,2,2,-2,-9,20,4,1,1,0,3,9,7,-6.1875,-6.1875,-6.1875,9.6875,9.6875,9.6875,3.15135,4.167459,0.2761465,6.593615,4.336241,9.702293,-0.2226889,-0.2045506,1.243863,0.2721208,-0.2129561,1.253882,0.04122329,0.4452388,1.538925,-0.1935476,-0.1846503,1.223375,0.2906648,-0.2322256,1.221143,0.03165016,-0.02226243,1.549253,0.03366337,-0.3457674,1.527871,-0.1491149,0.1728792,1.539564,-0.05017076,-0.3365016,1.4882,-0.2291257,-0.07591867,1.54534,0.2803093,-0.0710317,1.558712,NA,NA,Closed,Unknown,
0.5522461,-0.7080078,0.3881836,0.5356445,0.6591797,0.527832,0,-1,0,-1,-2,-1,15,5,14,4,0,-1,-3,-5,-7,7,18.125,18.125,18.125,21.875,21.875,21.875,3.14703,3.96059,0.3121153,6.636848,4.138079,9.64986,-0.2284666,-0.2473496,1.254883,0.2847815,-0.2498409,1.270825,0.04122849,0.4452413,1.538924,-0.205626,-0.2164574,1.243588,0.2932167,-0.287879,1.231538,0.03164193,-0.02227097,1.549255,0.03364619,-0.3457965,1.527887,-0.1492642,0.1726614,1.539711,-0.05020916,-0.3365215,1.488207,-0.2298376,-0.07627454,1.545887,0.2701937,-0.06972288,1.558597,NA,NA,Unknown,Unknown,
0.8007813,-0.6035156,0.3842773,0.5952148,0.7182617,0.4799805,-3,-4,-2,-2,-2,-5,-2,-3,8,1,0,-1,-2,-10,-4,-6,-0.0625,-0.0625,-0.0625,21.25,21.25,21.25,3.129269,3.751067,0.3535872,6.659206,4.0379,9.62961,-0.230639,-0.2875483,1.275166,0.2900586,-0.2911375,1.287521,0.04122507,0.4452296,1.538915,-0.2097387,-0.2575062,1.2553,0.3081719,-0.3370731,1.26025,0.03158597,-0.02231933,1.549289,0.03353693,-0.3459006,1.527945,-0.149321,0.1725061,1.539822,-0.05038931,-0.3366277,1.488286,-0.2270144,-0.07604625,1.546116,0.2678207,-0.07139106,1.557338,NA,NA,Unknown,Unknown,
0.8745117,-0.625,0.3349609,0.6904297,0.6650391,0.4785156,-3,-3,1,-2,-4,-9,-47,-34,4,2,-1,0,4,-3,0,2,-6,-6,-6,-2.25,-2.25,-2.25,3.082989,3.560079,0.4029023,6.678417,3.841229,9.606323,-0.2347957,-0.3225657,1.3015,0.2928112,-0.326842,1.309832,0.04123191,0.4452289,1.538932,-0.2068986,-0.3040439,1.270917,0.2898546,-0.3522083,1.33,0.03154225,-0.02235899,1.549331,0.03345351,-0.3460401,1.52804,-0.1493835,0.1723884,1.539916,-0.05053741,-0.3367853,1.488446,-0.2249928,-0.07725769,1.54495,0.2659828,-0.07532308,1.554929,NA,NA,Unknown,Unknown,
1.009277,-0.4155273,0.2583008,0.8549805,0.5073242,0.3930664,2,-4,18,2,1,4,49,8,6,-1,-3,-2,0,-2,-5,-4,-13.375,-13.375,-13.375,10,10,10,3.031404,3.382237,0.4579969,6.696149,3.643465,9.582893,-0.2353928,-0.3546545,1.325758,0.2935594,-0.3592665,1.3317,0.04125898,0.4452473,1.539098,-0.2340587,-0.3314298,1.289257,0.318125,-0.376298,1.30475,0.03154918,-0.02246906,1.549412,0.0334256,-0.3462821,1.528232,-0.1495274,0.171995,1.540063,-0.05061157,-0.337043,1.488657,-0.2218679,-0.08157334,1.542974,0.2654282,-0.08104932,1.551593,NA,NA,Unknown,Unknown,
1.058594,-0.3515625,0.1396484,0.9624023,0.5351563,0.3598633,0,9,-7,-4,-1,1,-10,-1,7,-4,-1,0,-1,-6,-2,6,-65.1875,-65.1875,-65.1875,22.5625,22.5625,22.5625,2.922592,3.221707,0.5173579,6.747007,3.463651,9.548293,-0.2319289,-0.3863492,1.34977,0.2907571,-0.3893498,1.356594,0.04131439,0.4452625,1.539206,-0.2032709,-0.3708656,1.317696,0.3125999,-0.3961056,1.327238,0.03147956,-0.02268874,1.549604,0.03325621,-0.3467576,1.528475,-0.1497641,0.1713446,1.540116,-0.05084114,-0.3375491,1.488987,-0.2191821,-0.08756165,1.540418,0.2648432,-0.09150951,1.545897,NA,NA,Unknown,Unknown,
1.095215,-0.3989258,0.02099609,1.03125,0.3847656,0.269043,0,-2,-5,0,-1,-1,-18,1,20,0,0,2,-1,-3,-9,12,-69.375,-69.375,-69.375,24.875,24.875,24.875,2.784134,3.100296,0.582042,6.80086,3.30996,9.514322,-0.2218161,-0.4288811,1.396812,0.2810424,-0.4221701,1.395282,0.04136936,0.4452722,1.539349,-0.2104951,-0.4492179,1.3475,0.2530284,-0.4244828,1.355714,0.03121227,-0.02298063,1.549772,0.03279647,-0.3476273,1.528766,-0.1500404,0.1705171,1.54001,-0.05124296,-0.3382533,1.489217,-0.2133115,-0.1019697,1.534791,0.2634692,-0.1004955,1.540829,NA,NA,NotTracked,Unknown,
1.03418,-0.3583984,-0.01708984,1.05127,0.3759766,0.1850586,-4,-2,12,0,-3,-4,-3,0,10,-1,-3,-2,0,-11,-6,9,-64.25,-64.25,-64.25,37.4375,37.4375,37.4375,2.705554,3.021682,0.588098,6.861212,3.187895,9.490018,-0.1981024,-0.4319607,1.426994,0.2698851,-0.4283993,1.416832,0.04136408,0.4452655,1.539392,-0.2368187,-0.4649951,1.394889,0.2939882,-0.4127664,1.3872,0.03110922,-0.0231111,1.549764,0.03271888,-0.3478689,1.528707,-0.1501776,0.1702183,1.539892,-0.05131707,-0.3384489,1.489099,-0.210322,-0.1065561,1.533606,0.2619796,-0.1031077,1.539851,NA,NA,NotTracked,Lasso,
1.001953,-0.4311523,0.004882813,1.007324,0.4116211,0.1201172,-4,-6,2,-1,-1,-1,7,1,-2,-3,-1,0,0,5,-1,-9,-51,-51,-51,25,25,25,2.692178,3.00173,0.5717985,6.901788,3.110308,9.481488,-0.1899908,-0.4318529,1.435619,0.2591763,-0.426484,1.432709,0.04136229,0.4453084,1.539421,-0.2326964,-0.4244947,1.429273,0.291345,-0.4085189,1.403536,0.03108189,-0.02314454,1.54973,0.03269636,-0.3479621,1.528628,-0.1503328,0.1702402,1.539926,-0.05132742,-0.3385075,1.488956,-0.2075023,-0.1088836,1.533492,0.2595446,-0.105892,1.538775,NA,NA,NotTracked,Lasso,
0.9907227,-0.4501953,0.05517578,0.9814453,0.394043,0.09472656,3,4,-8,-2,-1,-1,1,30,0,-5,-2,0,4,18,7,8,-9.125,-9.125,-9.125,23.875,23.875,23.875,2.739765,2.986953,0.4989699,6.909947,3.08373,9.487868,-0.1839338,-0.4324576,1.440629,0.2501166,-0.4233825,1.438729,0.04136415,0.4452887,1.53937,-0.2264506,-0.4293193,1.446933,0.284989,-0.4132311,1.412182,0.03100076,-0.02328894,1.549608,0.03264651,-0.3481146,1.528544,-0.1504591,0.1694802,1.539631,-0.05138417,-0.3385981,1.488827,-0.2052473,-0.1111245,1.534406,0.2577851,-0.1076906,1.538136,NA,NA,NotTracked,NotTracked,
0.9208984,-0.4619141,0.06494141,0.953125,0.3759766,0.1289063,-3,4,1,-1,0,1,24,28,1,-1,0,0,0,-9,-1,5,3.625,3.625,3.625,39.3125,39.3125,39.3125,2.828616,2.99209,0.4064944,6.927058,3.044954,9.513153,-0.1774462,-0.4286793,1.444829,0.2469824,-0.4230658,1.4412,0.04138698,0.445303,1.539287,-0.2190473,-0.435318,1.458333,0.2828709,-0.4326982,1.425857,0.0309206,-0.02334228,1.549477,0.03257764,-0.3481931,1.528406,-0.1504746,0.1693126,1.539499,-0.05148236,-0.3386154,1.488605,-0.2033938,-0.1114813,1.535352,0.2560487,-0.109427,1.538083,NA,NA,NotTracked,NotTracked,
0.8857422,-0.4614258,0.05224609,0.9287109,0.3764648,0.09765625,4,-3,-1,-3,-1,-3,16,-1,-3,-3,-1,-10,2,0,-1,7,15.25,15.25,15.25,30.4375,30.4375,30.4375,2.890503,3.013913,0.3534331,6.928307,3.026756,9.554151,-0.1737377,-0.4197991,1.446289,0.2423032,-0.4176609,1.443541,0.04138766,0.4453132,1.539172,-0.2175904,-0.4125036,1.469733,0.2837592,-0.4067422,1.439364,0.03091544,-0.0233825,1.549407,0.03256018,-0.3482257,1.528362,-0.1505025,0.1689713,1.539504,-0.05150297,-0.338628,1.488577,-0.2008279,-0.1120228,1.537278,0.2544667,-0.1105417,1.538431,NA,NA,NotTracked,NotTracked,
0.8911133,-0.3330078,0.02832031,0.9389648,0.4033203,0.109375,-7,4,17,2,1,2,-5,-5,3,-2,-2,-5,1,30,9,2,-0.8125,-0.8125,-0.8125,43.25,43.25,43.25,2.906358,3.024162,0.3434959,6.929547,3.021892,9.612784,-0.1710665,-0.4165851,1.446486,0.2368061,-0.4091491,1.444815,0.04151924,0.4453417,1.538551,-0.2198448,-0.3919895,1.476688,0.2774116,-0.3957833,1.444187,0.03091352,-0.02345254,1.549238,0.03257934,-0.348282,1.52827,-0.1504824,0.168586,1.539341,-0.05150991,-0.3386568,1.488549,-0.1973694,-0.1117863,1.540213,0.2518277,-0.1113221,1.538699,NA,NA,NotTracked,NotTracked,
0.9140625,-0.3374023,0.04101563,0.9306641,0.3984375,0.04394531,-2,-2,7,2,0,-2,-9,-6,2,0,1,9,1,1,3,-2,-23.8125,-23.8125,-23.8125,26.8125,26.8125,26.8125,2.865247,3.024539,0.3624058,6.971575,3.025112,9.60546,-0.1719795,-0.4166379,1.447758,0.2354156,-0.4043426,1.445712,0.04150778,0.4453546,1.538354,-0.2175283,-0.4056941,1.482214,0.2759194,-0.392783,1.44295,0.03085608,-0.02346756,1.549158,0.03254936,-0.3482895,1.528249,-0.1504854,0.1685253,1.539386,-0.05155131,-0.338648,1.48853,-0.1965635,-0.1118756,1.541086,0.2511229,-0.1113114,1.539092,NA,NA,NotTracked,NotTracked,
0.9545898,-0.2963867,0.078125,0.9287109,0.328125,0.08105469,-1,-3,3,0,-1,0,4,-1,3,0,-1,-1,0,17,3,3,-25.3125,-25.3125,-25.3125,13.6875,13.6875,13.6875,2.832354,3.024734,0.3685949,6.985878,3.021461,9.607754,-0.1676341,-0.4310807,1.442904,0.235145,-0.4045542,1.445478,0.04150891,0.44539,1.53823,-0.2157933,-0.4150412,1.476833,0.2783114,-0.3730235,1.447611,0.03081602,-0.02344508,1.549127,0.03250022,-0.3482538,1.528275,-0.1505017,0.1685076,1.539418,-0.05163071,-0.3385925,1.488629,-0.1959617,-0.1119486,1.54172,0.2506948,-0.1112819,1.539164,NA,NA,NotTracked,NotTracked,
0.9824219,-0.2802734,0.1083984,0.9213867,0.2470703,0.09960938,1,10,22,3,3,4,4,13,4,2,-1,1,3,-2,-4,-1,-30.0625,-30.0625,-30.0625,18.6875,18.6875,18.6875,2.810826,3.021752,0.3586816,6.992123,3.018492,9.621816,-0.1715105,-0.4170724,1.446141,0.2362761,-0.4023382,1.445684,0.04149683,0.445437,1.538065,-0.2147364,-0.4238825,1.471313,0.2810173,-0.3784989,1.450426,0.03079195,-0.02343886,1.54911,0.03244982,-0.3482385,1.528317,-0.150511,0.1684976,1.53942,-0.05170292,-0.338555,1.488713,-0.1956384,-0.1122252,1.541935,0.2504591,-0.1111864,1.539145,NA,NA,NotTracked,NotTracked,
0.9707031,-0.2890625,0.1162109,0.9238281,0.2290039,0.1230469,2,-10,-5,-3,-1,-1,-7,3,6,2,0,2,1,-8,-1,15,-26.625,-26.625,-26.625,23.6875,23.6875,23.6875,2.803594,3.022172,0.3342049,6.998877,3.015823,9.628432,-0.1725439,-0.4168286,1.44655,0.2365379,-0.4031129,1.445637,0.04149801,0.4454485,1.537726,-0.218428,-0.4133093,1.476109,0.2751359,-0.4050063,1.439519,0.03078979,-0.02343031,1.549118,0.03245268,-0.3482299,1.528368,-0.1506097,0.1683321,1.53949,-0.05170543,-0.3385465,1.48885,-0.1952499,-0.1120279,1.542131,0.250333,-0.1111123,1.539131,NA,NA,NotTracked,NotTracked,
0.9472656,-0.2866211,0.1157227,0.9257813,0.2407227,0.1357422,-6,1,-5,-4,-3,-3,-14,18,4,2,-1,-3,-2,3,-4,-5,-14.5,-14.5,-14.5,16.4375,16.4375,16.4375,2.815284,3.026158,0.3026341,7.011564,3.008658,9.650114,-0.1707808,-0.4240113,1.443698,0.2371481,-0.4029778,1.445098,0.04144778,0.4455326,1.537687,-0.2191114,-0.409005,1.473403,0.2795236,-0.391656,1.444465,0.03074671,-0.02339008,1.549102,0.03245168,-0.3481978,1.528383,-0.1507275,0.1682788,1.539492,-0.05171583,-0.3384947,1.488908,-0.195247,-0.1120217,1.542129,0.2502898,-0.1110683,1.539083,NA,NA,NotTracked,NotTracked,
0.9472656,-0.2866211,0.1157227,0.9257813,0.2407227,0.1357422,-6,1,-5,-4,-3,-3,-14,18,4,2,-1,-3,-2,3,-4,-5,-14.5,-14.5,-14.5,16.4375,16.4375,16.4375,2.815284,3.026158,0.3026341,7.011564,3.008658,9.650114,-0.1708197,-0.4200037,1.443047,0.2372508,-0.4028679,1.444314,0.04131663,0.4456458,1.537434,-0.221956,-0.4004619,1.4765,0.2826608,-0.3776998,1.446072,0.03074228,-0.0233877,1.549091,0.03245397,-0.3481979,1.528383,-0.1508678,0.1680737,1.539427,-0.05171542,-0.3385038,1.488945,-0.1952365,-0.1120424,1.542039,0.2501761,-0.1109729,1.538947,NA,NA,NotTracked,NotTracked,
0.9384766,-0.2768555,0.1210938,0.9130859,0.2524414,0.1416016,-6,-8,-4,-2,-2,-3,12,-10,-13,-4,0,-3,-7,-22,-4,-18,-4.125,-4.125,-4.125,9.5625,9.5625,9.5625,2.848878,3.03269,0.2625428,7.006762,3.007858,9.659467,-0.1705287,-0.4197102,1.44339,0.2366987,-0.4031889,1.44513,0.04119186,0.4457044,1.537222,-0.2143348,-0.4173437,1.464818,0.2793469,-0.3897384,1.443485,0.03072699,-0.02337889,1.549096,0.0324694,-0.3482029,1.528468,-0.1510278,0.1679849,1.539494,-0.05170771,-0.3385226,1.489064,-0.1952368,-0.1120097,1.542038,0.2500845,-0.110869,1.538891,NA,NA,NotTracked,NotTracked,
0.9345703,-0.2788086,0.1166992,0.9233398,0.2475586,0.1259766,0,11,-8,-1,-1,-3,-7,-9,36,-11,-6,-4,-5,-27,-13,-12,-4.75,-4.75,-4.75,6.375,6.375,6.375,2.883827,3.037784,0.2226014,6.99979,3.002836,9.673491,-0.1697793,-0.416348,1.443483,0.2356129,-0.4026882,1.445077,0.04103055,0.44571,1.537145,-0.2126197,-0.4288093,1.466385,0.2772531,-0.3895256,1.440284,0.03070604,-0.02336316,1.54911,0.0325147,-0.3481583,1.528531,-0.1511187,0.1679386,1.539602,-0.05166785,-0.3384815,1.489145,-0.1952376,-0.1118471,1.542036,0.2498432,-0.1107522,1.538739,NA,NA,NotTracked,NotTracked,
0.9394531,-0.3085938,0.09960938,0.9492188,0.2832031,0.1166992,-1,-18,-2,-1,0,-1,-20,2,-23,-3,-1,-1,-1,2,-8,-38,-7.3125,-7.3125,-7.3125,3.5,3.5,3.5,2.906606,3.041124,0.1904749,6.993788,3.000602,9.683864,-0.1687423,-0.4154601,1.441881,0.2347113,-0.4024201,1.444108,0.0408571,0.4457943,1.537098,-0.2140616,-0.4175718,1.46901,0.2765883,-0.3868846,1.440521,0.03069697,-0.02328968,1.549125,0.03254766,-0.3480968,1.528578,-0.1513518,0.1682348,1.53977,-0.05162966,-0.3384269,1.489235,-0.1952144,-0.1117439,1.541987,0.2497028,-0.1106223,1.538619,NA,NA,NotTracked,NotTracked,
0.9389648,-0.3056641,0.08007813,0.9360352,0.2915039,0.04150391,1,6,-2,-2,-2,0,-2,-1,7,2,3,0,4,12,9,18,-9.3125,-9.3125,-9.3125,16.4375,16.4375,16.4375,2.921392,3.041241,0.1654842,7.021628,3.001141,9.677138,-0.1670087,-0.4158413,1.440688,0.2336939,-0.4016457,1.443559,0.04066319,0.4458742,1.536983,-0.2126598,-0.4032004,1.467,0.2773672,-0.3838257,1.442786,0.03070012,-0.02326143,1.549121,0.03259413,-0.3480567,1.528578,-0.1513481,0.1682297,1.539741,-0.05159231,-0.3384043,1.489242,-0.1950468,-0.1114559,1.541821,0.24941,-0.1103791,1.538367,NA,NA,NotTracked,NotTracked,
0.949707,-0.3291016,0.05273438,0.9262695,0.3183594,0.03857422,-2,-16,-19,-3,-3,-4,-41,4,0,0,-1,-1,-1,1,-3,9,-11.1875,-11.1875,-11.1875,13,13,13,2.920525,3.039854,0.1535244,7.036886,3.002532,9.668882,-0.1650753,-0.4105171,1.442406,0.2328446,-0.3986553,1.444178,0.04015978,0.4459227,1.536745,-0.2103675,-0.4076151,1.476111,0.276704,-0.3694358,1.445,0.03071583,-0.0232502,1.549125,0.03279666,-0.3480045,1.528632,-0.1515788,0.1679755,1.539829,-0.05141194,-0.3383984,1.489382,-0.1944781,-0.1112326,1.54162,0.2489363,-0.1102032,1.538167,NA,NA,NotTracked,NotTracked,
0.9511719,-0.3496094,0.05175781,0.9360352,0.2709961,0.09960938,-2,1,-1,-4,-3,-2,1,-6,-4,-2,-1,-2,-2,-1,1,-2,-5.5625,-5.5625,-5.5625,-0.0625,-0.0625,-0.0625,2.909953,3.040274,0.1542695,7.038514,2.999527,9.671558,-0.1608051,-0.4256898,1.438424,0.2331185,-0.3990316,1.44431,0.03995882,0.445938,1.536753,-0.2096821,-0.4048762,1.469712,0.2774953,-0.3813929,1.444735,0.03071513,-0.02324492,1.549138,0.03292713,-0.3479826,1.528674,-0.1517236,0.1677874,1.539949,-0.0512721,-0.3384162,1.489501,-0.194243,-0.1110124,1.54149,0.2487471,-0.110037,1.537997,NA,NA,NotTracked,NotTracked,
0.9521484,-0.2954102,0.07421875,0.9238281,0.2670898,0.1201172,2,-6,-1,-1,0,1,9,9,0,1,1,-1,-3,-2,0,3,-10.4375,-10.4375,-10.4375,4.8125,4.8125,4.8125,2.901905,3.039544,0.1506009,7.024292,2.99795,9.690328,-0.1606258,-0.4256712,1.437919,0.233599,-0.3994409,1.444723,0.03971788,0.4459281,1.536729,-0.2141999,-0.3917051,1.478333,0.278433,-0.3790092,1.445172,0.03069905,-0.02322799,1.549174,0.03303759,-0.3479627,1.528711,-0.1517229,0.1677524,1.539965,-0.05117986,-0.3384135,1.489538,-0.1939916,-0.1108758,1.541379,0.2485079,-0.1095617,1.537781,NA,NA,NotTracked,NotTracked,
