ALX,ALY,ALZ,ARX,ARY,ARZ,EMG0L,EMG1L,EMG2L,EMG3L,EMG4L,EMG5L,EMG6L,EMG7L,EMG0R,EMG1R,EMG2R,EMG3R,EMG4R,EMG5R,EMG6R,EMG7R,GLX,GLY,GLZ,GRX,GRY,GRZ,ORL,OPL,OYL,ORR,OPR,OYR,LHNX,LHNY,LHNZ,RHNX,RHNY,RHNZ,HX,HY,HZ,LTX,LTY,LTZ,RTX,RTY,RTZ,SpineMidX,SpineMidY,SpineMidZ,SpineBaseX,SpineBaseY,SpineBaseZ,ShoulderLeftX,ShoulderLeftY,ShoulderLeftZ,ShoulderRightX,ShoulderRightY,ShoulderRightZ,ElbowLeftX,ElbowLeftY,ElbowLeftZ,ElbowRightX,ElbowRightY,ElbowRightZ,Myo_Pose_left,Myo_Pose_Right,Kinect_pose_left,Kinect_pose_right
0.8671875,-0.6547852,0.2998047,0.9750977,0.6206055,0.2304688,-2,-2,-2,-2,-6,-7,-2,2,-2,0,-8,-5,-2,-2,-13,-4,-12.1875,-12.1875,-12.1875,7.625,7.625,7.625,3.26393,3.508049,5.496803,6.886492,3.32797,6.66684,-0.1174159,-0.4208811,1.135741,0.2277915,-0.4296176,1.164335,0.05367696,0.3040412,1.250752,-0.1598452,-0.4224597,1.166273,0.1959524,-0.434637,1.141334,0.05226453,-0.09130489,1.285405,0.05396749,-0.3699837,1.266762,-0.1128135,0.06667816,1.272649,-0.02265929,-0.3616863,1.238818,-0.1557964,-0.163533,1.27979,0.2545126,-0.168961,1.283721,NA,NA,NotTracked,NotTracked,
0.84375,-0.7089844,0.3930664,0.9130859,0.6401367,0.3217773,-2,1,8,3,2,-2,-3,-2,0,2,5,6,0,-2,-3,-1,-18.8125,-18.8125,-18.8125,5.5,5.5,5.5,3.305768,3.645394,5.418736,6.771903,3.462839,6.810171,-0.1125249,-0.4038606,1.116352,0.2234452,-0.4178494,1.150559,0.05382543,0.3040384,1.250814,-0.08200124,-0.4351012,1.136,0.1918281,-0.4246545,1.117481,0.05303981,-0.09122796,1.285069,0.0550566,-0.3697186,1.266275,-0.1126411,0.06672066,1.272592,-0.02178487,-0.3616798,1.238322,-0.1574582,-0.1585803,1.278746,0.2568584,-0.1664275,1.282475,NA,NA,Closed,NotTracked,
0.7568359,-0.762207,0.4287109,0.7875977,0.6899414,0.3691406,2,1,-1,0,-1,1,-8,0,2,3,11,10,1,-1,-1,0,-17.1875,-17.1875,-17.1875,11.125,11.125,11.125,3.341123,3.806253,5.342196,6.695961,3.626808,6.919248,-0.1064158,-0.3836851,1.098952,0.2193092,-0.4079081,1.125299,0.05407814,0.3039939,1.250969,-0.1370108,-0.4142773,1.117231,0.2192739,-0.3993772,1.085798,0.05355852,-0.0911762,1.284884,0.05613363,-0.3695655,1.266025,-0.1125329,0.06685422,1.272655,-0.02089022,-0.3617751,1.238232,-0.1596601,-0.1533109,1.27664,0.258636,-0.1650838,1.281518,NA,NA,Closed,NotTracked,
0.6386719,-0.796875,0.4916992,0.7543945,0.7016602,0.4311523,-5,-4,-3,-4,-6,-10,-7,-5,5,1,-6,-8,-5,-2,-2,-3,-25.125,-25.125,-25.125,8.875,8.875,8.875,3.355979,3.990222,5.279938,6.644431,3.810057,7.005035,-0.09851519,-0.358237,1.079558,0.2106658,-0.3942287,1.103609,0.05429202,0.3039436,1.251144,-0.12584,-0.3873224,1.084125,0.2120609,-0.3804298,1.065714,0.05426585,-0.09114931,1.284677,0.05772981,-0.3692555,1.265543,-0.1121567,0.06714793,1.272658,-0.01961968,-0.3617949,1.237791,-0.1626281,-0.1459754,1.274661,0.2609805,-0.1626241,1.279467,NA,NA,Unknown,NotTracked,
0.6386719,-0.796875,0.4916992,0.7543945,0.7016602,0.4311523,0,-3,-1,1,9,11,6,2,-1,-2,-9,-11,-2,0,1,1,-25.125,-25.125,-25.125,8.875,8.875,8.875,3.355979,3.990222,5.279938,6.644431,3.810057,7.005035,-0.09431095,-0.3260809,1.070311,0.2047918,-0.3693929,1.085467,0.05460581,0.3038989,1.251379,-0.100467,-0.3289348,1.023294,0.2049162,-0.356848,1.046589,0.05473039,-0.09106818,1.284594,0.05887406,-0.3691197,1.264944,-0.1118532,0.06735415,1.27266,-0.01870828,-0.3619613,1.237227,-0.1645665,-0.1405737,1.271881,0.262614,-0.1597919,1.277161,NA,NA,Unknown,Unknown,
0.3261719,-0.8217773,0.5644531,0.4951172,0.7617188,0.5073242,1,0,3,6,1,-1,3,6,1,-6,-2,1,-3,-3,5,1,-32.375,-32.375,-32.375,17.75,17.75,17.75,3.345259,4.582359,5.128717,6.598347,4.418723,7.188345,-0.0581799,-0.2367332,0.9944088,0.1824588,-0.2823716,1.027167,0.05527305,0.3036986,1.252318,-0.01978604,-0.2362908,1.006667,0.1681573,-0.2582303,1.008606,0.05444835,-0.09081228,1.284418,0.05657359,-0.3678633,1.263439,-0.1110567,0.06816924,1.272343,-0.02076162,-0.3603246,1.235694,-0.1758017,-0.1341658,1.257921,0.2684644,-0.1395364,1.266086,NA,NA,Unknown,Unknown,
0.2905273,-0.8212891,0.5649414,0.375,0.753418,0.4970703,-2,-2,5,-2,-3,1,1,-4,-6,-1,-11,-10,-4,-3,-8,-7,-23.5,-23.5,-23.5,16.3125,16.3125,16.3125,3.328082,4.770159,5.081846,6.60297,4.621306,7.240559,-0.05319963,-0.2030158,0.9821426,0.1741817,-0.2463272,1.010435,0.05546208,0.303729,1.252672,-0.03614805,-0.2307436,0.9855,0.1713437,-0.221028,0.9876667,0.05375802,-0.09037975,1.284676,0.05483315,-0.3670053,1.263392,-0.1110174,0.06821236,1.2723,-0.02211635,-0.3592131,1.235928,-0.2185614,-0.1144515,1.249071,0.2703515,-0.1283141,1.259263,NA,NA,Unknown,Closed,
0.1694336,-0.7880859,0.5244141,0.2363281,0.746582,0.487793,-1,-1,-1,1,1,-9,-3,4,-4,2,11,4,-2,-1,0,-1,-25.375,-25.375,-25.375,14.5625,14.5625,14.5625,3.307771,4.946555,5.029857,6.608792,4.805144,7.296726,-0.04120342,-0.1712136,0.9672367,0.1666613,-0.21203,0.9975916,0.05559649,0.303721,1.25303,0.0124372,-0.1823685,0.9713334,0.1453149,-0.1874755,0.9935556,0.05325248,-0.08999503,1.284864,0.05379738,-0.3662744,1.263486,-0.1108762,0.06820194,1.272133,-0.02292435,-0.3583528,1.23607,-0.2146508,-0.1164221,1.23236,0.2714676,-0.1209805,1.253511,NA,NA,Unknown,Closed,
0.08105469,-0.8413086,0.5356445,0.1748047,0.7436523,0.5048828,-1,-1,-2,0,-4,-4,-8,-6,-4,-5,-7,-5,-2,-1,-10,-3,-30.875,-30.875,-30.875,14.5625,14.5625,14.5625,3.274367,5.104171,4.980118,6.61405,4.892661,7.323409,-0.0359298,-0.1396071,0.964625,0.165332,-0.179696,0.9923393,0.05581354,0.3037964,1.253612,0.0161828,-0.1532392,0.959,0.1295124,-0.1565682,0.9967778,0.05303231,-0.08975691,1.285003,0.05319978,-0.3658694,1.263594,-0.1106501,0.06832807,1.271944,-0.02357503,-0.3577045,1.236084,-0.2209862,-0.1219541,1.214038,0.2748757,-0.1143522,1.244381,NA,NA,Unknown,Closed,
0.09423828,-0.8178711,0.5693359,-0.008789063,0.6782227,0.449707,-2,-3,-1,-1,2,-2,0,3,12,8,0,-1,2,-7,-2,5,-24.125,-24.125,-24.125,9.5,9.5,9.5,3.259848,5.171759,4.952768,6.634001,5.11846,7.403188,-0.02690534,-0.08449955,0.9686806,0.1529539,-0.1171063,0.9865943,0.05608046,0.3041033,1.255298,0.006234037,-0.1020382,0.9641666,0.1542757,-0.09280072,0.95895,0.05263488,-0.08886725,1.285593,0.05246422,-0.3644815,1.264105,-0.1067858,0.07233451,1.271249,-0.02430895,-0.35574,1.236922,-0.2304233,-0.1284754,1.181958,0.3396983,-0.1340575,1.184572,NA,NA,NotTracked,NotTracked,
-0.1030273,-0.7890625,0.5048828,-0.1401367,0.6674805,0.4477539,1,0,-2,-3,-4,-8,-5,2,9,-4,-5,3,1,1,0,-2,-18.375,-18.375,-18.375,19.3125,19.3125,19.3125,3.233189,5.306523,4.891859,6.654251,5.240737,7.445493,-0.02397046,-0.06082983,0.9732068,0.1500773,-0.09176835,0.9899581,0.05615703,0.3041474,1.255996,0.02170997,-0.07490514,0.9672499,0.1466511,-0.06193055,0.9745001,0.05250429,-0.08808285,1.285896,0.05227935,-0.3629559,1.264498,-0.1062857,0.0732084,1.271038,-0.02426829,-0.3542337,1.237562,-0.2307942,-0.1263996,1.179511,0.3405682,-0.1358846,1.183615,NA,NA,NotTracked,NotTracked,
-0.1777344,-0.7583008,0.484375,-0.1767578,0.6499023,0.3964844,-2,-1,-6,-3,-3,1,3,-4,7,5,2,-3,-1,-1,-8,-5,-11,-11,-11,21,21,21,3.198134,5.466884,4.823007,6.680768,5.324361,7.478031,-0.02170885,-0.04238359,0.9775708,0.1509667,-0.07398146,0.99565,0.05620025,0.304409,1.256793,0.01972806,-0.05901772,0.9731429,0.1543012,-0.05083165,0.9696667,0.05241412,-0.08756311,1.286334,0.05208311,-0.36201,1.26498,-0.1063097,0.07373412,1.271104,-0.02424654,-0.3531088,1.238358,-0.2307806,-0.1218993,1.170686,0.2895773,-0.102654,1.210861,NA,NA,NotTracked,NotTracked,
-0.1777344,-0.7583008,0.484375,-0.1767578,0.6499023,0.3964844,-2,-1,-6,-3,-3,1,3,-4,7,5,2,-3,-1,-1,-8,-5,-11,-11,-11,21,21,21,3.198134,5.466884,4.823007,6.680768,5.324361,7.478031,-0.02205028,-0.02798552,0.9807014,0.1522194,-0.06198946,0.996851,0.05616668,0.3045599,1.257386,0.02090144,-0.04130893,0.9665556,0.1606469,-0.0335856,0.9981667,0.05234677,-0.08726975,1.286488,0.0519726,-0.3615582,1.26498,-0.1061921,0.07452059,1.270804,-0.02425233,-0.3525664,1.238525,-0.198849,-0.1023658,1.184098,0.2895856,-0.1031223,1.209779,NA,NA,NotTracked,NotTracked,
-0.2587891,-0.7207031,0.4052734,-0.1987305,0.7202148,0.4584961,0,-1,-3,1,1,5,7,-4,8,-6,-3,3,1,1,-8,-11,-6.5,-6.5,-6.5,16.1875,16.1875,16.1875,3.184662,5.599887,4.774228,6.714218,5.377971,7.511757,-0.02143055,-0.01902101,0.9849268,0.1482621,-0.05163062,0.9998703,0.05616595,0.3046177,1.257943,0.02362141,-0.03177902,0.9755715,0.1040408,-0.05287632,1.021333,0.05229263,-0.08695724,1.286633,0.05183766,-0.3608393,1.264985,-0.1065153,0.07561938,1.270934,-0.02427921,-0.3519418,1.238584,-0.1983805,-0.101744,1.184349,0.2895193,-0.1030178,1.209098,NA,NA,NotTracked,NotTracked,
-0.3120117,-0.7612305,0.4482422,-0.2197266,0.7631836,0.4516602,-4,-7,-14,-4,-3,-7,0,0,-4,4,2,2,1,-2,-4,-2,2.5,2.5,2.5,5.125,5.125,5.125,3.18823,5.622118,4.767191,6.724238,5.382847,7.528559,-0.02024812,-0.0112658,0.9904737,0.145503,-0.04723219,1.003908,0.05598726,0.3047284,1.258776,-0.001787964,-0.03084987,0.97925,0.09489524,-0.03825188,1.0264,0.05208797,-0.08663867,1.286813,0.05166702,-0.360475,1.264835,-0.106742,0.07697546,1.270903,-0.02437968,-0.3515733,1.238446,-0.1972107,-0.1008873,1.183744,0.2907115,-0.1021094,1.205798,NA,NA,NotTracked,NotTracked,
-0.3120117,-0.7612305,0.4482422,-0.2265625,0.8168945,0.4360352,-4,0,3,4,8,18,17,1,-9,-3,-2,-9,0,3,10,1,2.5,2.5,2.5,-2.25,-2.25,-2.25,3.18823,5.622118,4.767191,6.725237,5.372317,7.534221,-0.01921585,-0.01049296,0.9919918,0.1442674,-0.04778307,1.006326,0.05588475,0.3047857,1.259171,-0.006774985,-0.03046912,0.9718071,0.09175017,-0.04275939,1.02267,0.05200402,-0.0864852,1.286841,0.05148489,-0.3601722,1.264681,-0.1066117,0.07784508,1.271136,-0.02449541,-0.3512922,1.238415,-0.1966793,-0.1002542,1.184029,0.2911541,-0.1019866,1.20549,NA,NA,NotTracked,NotTracked,
-0.340332,-0.8271484,0.4365234,-0.2236328,0.8764648,0.4541016,-3,0,-1,-3,-6,-10,-11,-14,-4,0,-2,-5,-4,-1,13,4,9.9375,9.9375,9.9375,-7.9375,-7.9375,-7.9375,3.213215,5.623126,4.769067,6.719107,5.352489,7.536557,-0.019426,-0.01151042,0.9927184,0.1423577,-0.0500168,1.006543,0.05575624,0.3048177,1.259379,0.001381182,-0.02909118,0.9751335,0.09414418,-0.04552029,1.023805,0.05190028,-0.08638982,1.28685,0.05132707,-0.3600145,1.264518,-0.1067817,0.07804324,1.271175,-0.02464846,-0.3510739,1.23806,-0.1964452,-0.1002771,1.1841,0.2913418,-0.1021023,1.20526,NA,NA,NotTracked,NotTracked,
-0.340332,-0.8271484,0.4365234,-0.2089844,0.9194336,0.4667969,-5,-2,0,-2,2,-4,-16,-13,8,15,4,3,3,3,13,20,9.9375,9.9375,9.9375,-9.8125,-9.8125,-9.8125,3.213215,5.623126,4.769067,6.710716,5.334617,7.537076,-0.01779334,-0.01349509,0.99369,0.1421196,-0.05361012,1.00709,0.05563277,0.3049395,1.25977,-0.005506767,-0.03184594,0.9728065,0.1277798,-0.0192931,1.010167,0.0517193,-0.08617954,1.286818,0.05118794,-0.3595726,1.264292,-0.1067658,0.0782257,1.271084,-0.02470547,-0.3507684,1.238006,-0.1960649,-0.1003719,1.184223,0.2912605,-0.1021082,1.204679,NA,NA,NotTracked,NotTracked,
-0.3554688,-0.8774414,0.4335938,-0.1972656,0.9199219,0.4936523,5,1,1,1,-1,0,8,7,-3,-6,-5,-8,-9,-2,3,-5,6.6875,6.6875,6.6875,-7.8125,-7.8125,-7.8125,3.238408,5.601717,4.780021,6.703002,5.325439,7.538671,-0.01727589,-0.01528242,0.9949126,0.1419706,-0.05697846,1.008629,0.05553063,0.3049762,1.259958,0.0364838,-0.02697769,1.004,0.1398524,-0.03472012,1.012875,0.0515482,-0.08600748,1.286808,0.05104171,-0.3592418,1.264249,-0.1067877,0.07829228,1.271107,-0.02478032,-0.3505113,1.238106,-0.1960551,-0.1004101,1.184458,0.2912937,-0.1021838,1.204782,NA,NA,NotTracked,NotTracked,
-0.3720703,-0.8896484,0.4526367,-0.2612305,1.013184,0.4575195,1,-2,-4,-2,3,9,7,4,5,-4,-9,-6,-3,-8,-20,-22,4.75,4.75,4.75,-5,-5,-5,3.242709,5.595421,4.783546,6.701396,5.334361,7.538603,-0.01822151,-0.01958997,0.993461,0.1408129,-0.06042189,1.0119,0.0553577,0.3050301,1.260153,0.0150414,-0.03575522,0.9906364,0.1361263,-0.03172323,1.01418,0.05135624,-0.08592787,1.286679,0.0507081,-0.3590539,1.263807,-0.1069081,0.07835218,1.27106,-0.02498719,-0.3502845,1.237777,-0.1951245,-0.101163,1.185097,0.2911162,-0.1023138,1.204779,NA,NA,NotTracked,NotTracked,
-0.3579102,-0.9282227,0.4589844,-0.2685547,1.002441,0.4814453,0,2,5,1,2,6,1,0,5,1,2,9,4,-1,-9,2,5.0625,5.0625,5.0625,-4.5625,-4.5625,-4.5625,3.251063,5.583508,4.794699,6.701843,5.344781,7.541169,-0.0204312,-0.0228411,0.9922782,0.1413077,-0.05615413,1.015291,0.05527694,0.3050015,1.260241,0.03459973,-0.03447082,0.9968001,0.09067744,-0.0495044,1.049,0.05130376,-0.08583812,1.286601,0.05054381,-0.3589,1.263464,-0.1069418,0.07831787,1.271043,-0.02506594,-0.3501582,1.23762,-0.1948044,-0.1019697,1.186556,0.290965,-0.1025754,1.204807,NA,NA,NotTracked,NotTracked,
-0.331543,-0.8691406,0.4780273,-0.4272461,0.9599609,0.4306641,-5,-1,0,-2,-5,-2,-9,-9,-15,2,0,-2,0,3,8,6,-1.1875,-1.1875,-1.1875,6.625,6.625,6.625,3.271397,5.557438,4.822458,6.715637,5.417449,7.559066,-0.02021743,-0.02602045,0.9938632,0.1451652,-0.04218858,1.01746,0.05522674,0.304959,1.260264,-0.006753016,-0.046443,0.9822223,0.09381257,-0.02718271,1.031333,0.05117274,-0.08578815,1.286509,0.05034987,-0.3587982,1.263225,-0.1069922,0.07828219,1.271016,-0.02517239,-0.3500796,1.237543,-0.19421,-0.1027774,1.187681,0.2914339,-0.1035618,1.203056,NA,NA,NotTracked,NotTracked,
-0.3481445,-0.8671875,0.4624023,-0.543457,0.8500977,0.3896484,-9,-1,2,-3,-4,-8,5,1,1,1,-2,-1,-3,-6,-5,-18,7.125,7.125,7.125,15.6875,15.6875,15.6875,3.282913,5.537906,4.835773,6.74788,5.550645,7.57875,-0.02164957,-0.026973,0.992639,0.1428255,-0.02706352,1.015702,0.05513216,0.3048847,1.260214,0.0388861,-0.03047893,1.00275,0.1456103,-0.0002638935,1.008214,0.05108969,-0.08576099,1.286483,0.05030439,-0.3587855,1.263131,-0.1070032,0.07827072,1.271011,-0.02520867,-0.3500702,1.237479,-0.1941238,-0.1029405,1.187943,0.2920085,-0.1050338,1.198359,NA,NA,NotTracked,NotTracked,
-0.3481445,-0.8671875,0.4624023,-0.5541992,0.7299805,0.2636719,-2,2,1,-2,-3,-2,-6,-2,-7,-1,6,18,15,2,-23,-8,7.125,7.125,7.125,16.875,16.875,16.875,3.282913,5.537906,4.835773,6.783553,5.692147,7.575699,-0.02103498,-0.02870512,0.9958341,0.1436034,-0.01375069,1.011778,0.05508527,0.3048407,1.260275,0.01612079,-0.04511574,0.9991112,0.1430008,0.0009599177,1.030286,0.05104946,-0.08574972,1.286467,0.05025503,-0.358724,1.263095,-0.1072644,0.07832275,1.271226,-0.0252509,-0.3500349,1.237533,-0.1934181,-0.1032334,1.187843,0.2929157,-0.1062622,1.194109,NA,NA,NotTracked,NotTracked,
-0.362793,-0.8671875,0.4907227,-0.5019531,0.6630859,0.3203125,3,0,2,2,-3,-5,-7,-4,6,8,1,1,2,-2,9,5,7.375,7.375,7.375,30.0625,30.0625,30.0625,3.290659,5.528231,4.830585,6.800776,5.740196,7.544918,-0.02140969,-0.02918265,0.9963862,0.1445341,-0.001511286,1.004462,0.05502209,0.3048201,1.260332,0.01386742,-0.04650898,0.997,0.1241407,0.0004932368,1.04325,0.05101375,-0.08572472,1.286471,0.05020392,-0.3586568,1.263077,-0.1073347,0.07856444,1.271663,-0.02534315,-0.3499497,1.237707,-0.193836,-0.1035786,1.190248,0.2933076,-0.1067292,1.18846,NA,NA,NotTracked,NotTracked,
-0.3696289,-0.8706055,0.4794922,-0.3657227,0.6831055,0.2744141,-1,2,12,4,3,5,5,2,10,10,-1,-7,1,1,0,19,1.4375,1.4375,1.4375,40.875,40.875,40.875,3.295132,5.535933,4.829134,6.819908,5.742603,7.487777,-0.02023656,-0.02771148,0.9984503,0.1420524,0.0153602,0.9746209,0.05496961,0.3046713,1.260458,0.01354998,-0.04538209,0.9988742,0.1247967,0.04034898,0.99,0.05088332,-0.08576198,1.286487,0.05021366,-0.3586742,1.263005,-0.1074242,0.07856208,1.272006,-0.02534962,-0.3501374,1.238181,-0.1932117,-0.1040562,1.190949,0.2896698,-0.1056215,1.16866,NA,NA,NotTracked,NotTracked,
-0.3569336,-0.8813477,0.4711914,-0.2197266,0.6987305,0.4008789,7,2,-1,-2,-1,-2,0,-1,-21,-12,-5,-3,1,8,11,5,0.3125,0.3125,0.3125,18.75,18.75,18.75,3.295078,5.539114,4.829044,6.821962,5.687047,7.434529,-0.02047385,-0.02708395,0.9975818,0.142644,0.01552021,0.957081,0.05490102,0.304594,1.260547,0.00955068,-0.04300462,0.9877859,0.09700273,0.03083174,0.9965,0.05072695,-0.08571252,1.286593,0.05021913,-0.358674,1.263004,-0.1074268,0.07854093,1.272264,-0.02530514,-0.3501874,1.238564,-0.1937236,-0.1043459,1.192597,0.2879131,-0.1044427,1.163343,NA,NA,NotTracked,NotTracked,
-0.3569336,-0.878418,0.472168,-0.1416016,0.6152344,0.2988281,-6,-2,-1,2,9,10,4,-9,8,3,2,-6,-4,-2,-6,-4,1,1,1,35.125,35.125,35.125,3.296688,5.545714,4.831791,6.826832,5.60157,7.377678,-0.0194345,-0.02613275,0.9979239,0.144766,0.008595271,0.9401901,0.05484375,0.304558,1.260747,0.01633677,-0.04145468,0.9919785,0.0968993,0.02467839,0.9683334,0.05064122,-0.08569369,1.28669,0.05025594,-0.358684,1.263017,-0.1077728,0.07753904,1.272253,-0.02520319,-0.350318,1.239109,-0.194433,-0.1054102,1.193271,0.2843053,-0.1026825,1.152028,NA,NA,NotTracked,NotTracked,
-0.3549805,-0.8647461,0.4736328,-0.1416016,0.6152344,0.2988281,3,3,6,-1,-2,-2,2,-1,8,3,2,-6,-4,-2,-6,-4,1.125,1.125,1.125,35.125,35.125,35.125,3.298244,5.548269,4.834697,6.826832,5.60157,7.377678,-0.02097325,-0.02531288,0.9961129,0.1448206,-0.002723949,0.9228772,0.05482826,0.3045394,1.260865,0.01652829,-0.04189088,0.9941064,0.1453526,0.02291977,0.9261818,0.05041714,-0.08571508,1.286794,0.05024837,-0.3587171,1.263013,-0.1077569,0.07758963,1.272375,-0.0252315,-0.3503693,1.239222,-0.1932955,-0.1052793,1.191707,0.2783358,-0.1044736,1.130334,NA,NA,NotTracked,NotTracked,
-0.3212891,-0.8549805,0.4829102,0.1416016,0.7236328,0.4438477,6,0,2,0,1,2,1,4,-7,3,7,26,17,4,8,-10,-0.875,-0.875,-0.875,11.8125,11.8125,11.8125,3.300805,5.550647,4.842498,6.836842,5.37994,7.317037,-0.0204071,-0.02262097,0.9954939,0.1510116,-0.04294388,0.9004207,0.0547082,0.3045503,1.261403,0.02015139,-0.03804898,0.9931085,0.1568186,-0.01734423,0.8863001,0.05022413,-0.08567633,1.286857,0.05021492,-0.3586627,1.263093,-0.1077752,0.07783075,1.272861,-0.0252664,-0.3503423,1.239465,-0.1926516,-0.1051833,1.191741,0.2780768,-0.09819424,1.126,NA,NA,NotTracked,NotTracked,
-0.3452148,-0.8457031,0.4707031,0.6318359,1.106445,0.04541016,1,1,2,0,0,2,2,-1,23,10,-1,0,0,0,-6,0,1.5625,1.5625,1.5625,-0.5625,-0.5625,-0.5625,3.310826,5.559099,4.875755,6.872593,5.017572,7.299714,-0.02310498,-0.02225288,0.9921083,0.152832,-0.09052423,0.8996106,0.05438298,0.3044997,1.261866,0.02175824,-0.03389338,0.9883924,0.1563723,-0.076633,0.8666365,0.05000049,-0.08542433,1.287031,0.05029561,-0.3583768,1.263198,-0.1078753,0.07800677,1.273544,-0.02515033,-0.3500028,1.239905,-0.1924274,-0.1050526,1.192144,0.2744465,-0.07932376,1.149078,NA,NA,Closed,Lasso,
-0.331543,-0.8432617,0.4814453,-0.21875,0.9023438,0.1289063,-3,1,0,-2,-3,2,-18,-8,1,-4,-6,-12,-2,1,7,18,-3.5625,-3.5625,-3.5625,-11.1875,-11.1875,-11.1875,3.314534,5.557923,4.894717,6.875206,4.977413,7.305615,-0.02450044,-0.02279864,0.990182,0.15233,-0.1115156,0.9055766,0.05415415,0.3044437,1.261921,0.004436476,-0.03960769,0.9815555,0.1538773,-0.1424614,0.8860741,0.04998881,-0.08537487,1.286986,0.05022689,-0.3582156,1.26305,-0.1079289,0.07803116,1.273735,-0.02521384,-0.3498892,1.239903,-0.1923907,-0.1051006,1.192418,0.3183941,-0.08460382,1.147631,NA,NA,Closed,Lasso,
-0.3208008,-0.8500977,0.4833984,-0.5288086,0.8876953,0.7973633,-1,-2,0,-2,-1,-3,-5,-4,-2,-1,5,1,7,8,22,6,-3.75,-3.75,-3.75,-45.8125,-45.8125,-45.8125,3.315866,5.554914,4.904289,6.81182,4.937922,7.323341,-0.02527194,-0.02361679,0.9894302,0.1508659,-0.1309905,0.917589,0.05391087,0.3044711,1.262008,0.02280979,-0.03189486,0.9843,0.1560723,-0.1623577,0.8973479,0.04997038,-0.08533058,1.28697,0.05016032,-0.3581298,1.263019,-0.1081218,0.07810734,1.27423,-0.02532159,-0.3497661,1.239986,-0.1923543,-0.1050803,1.192783,0.3200558,-0.08938307,1.151863,NA,NA,Closed,Unknown,
-0.34375,-0.8569336,0.4785156,-0.7167969,0.9130859,0.2773438,-8,-1,0,-3,-4,-6,-1,-4,1,-10,-18,-28,-19,-5,0,-6,1.3125,1.3125,1.3125,-53.625,-53.625,-53.625,3.323126,5.539228,4.929886,6.747399,4.932042,7.349848,-0.02694438,-0.02550207,0.9881881,0.1510298,-0.146258,0.9327227,0.05360006,0.3044486,1.262098,0.02596899,-0.0240621,0.9813333,0.1553679,-0.1795919,0.9177728,0.04987902,-0.08531357,1.286923,0.05002441,-0.3581234,1.262916,-0.1081983,0.07805932,1.274361,-0.02543058,-0.3497407,1.23997,-0.1922796,-0.1053095,1.193214,0.3218879,-0.09376234,1.153769,NA,NA,Closed,Unknown,
-0.3432617,-0.8383789,0.4794922,0.7866211,1.248047,0.9467773,4,1,0,-3,-4,-1,-1,1,12,12,4,0,-2,-1,-7,2,-1.6875,-1.6875,-1.6875,-43.0625,-43.0625,-43.0625,3.326523,5.525376,4.941952,6.711199,4.86678,7.387196,-0.02684526,-0.02816686,0.9860808,0.1483121,-0.1564144,0.9492078,0.05325543,0.3043641,1.261985,0.02106647,-0.03360602,0.9843813,0.1584067,-0.1885577,0.9353635,0.04985518,-0.08527108,1.286844,0.04994493,-0.3580472,1.262848,-0.1082091,0.07798821,1.274476,-0.0255097,-0.3496698,1.240045,-0.1924137,-0.1054024,1.193545,0.3239884,-0.09907282,1.159831,NA,NA,Closed,Lasso,
-0.3544922,-0.8491211,0.4916992,0.7045898,1.28418,0.8276367,-6,-1,-1,3,0,-3,-8,-5,-2,-3,-12,-8,-2,-1,7,-5,-6.4375,-6.4375,-6.4375,-31.375,-31.375,-31.375,3.32457,5.517281,4.94659,6.669796,4.86096,7.428951,-0.02797258,-0.03114583,0.9855656,0.146157,-0.1624303,0.9657237,0.0530631,0.3043385,1.261871,0.02568436,-0.03812503,0.9865394,0.143499,-0.1957148,0.9542353,0.04983454,-0.0852631,1.28677,0.04981928,-0.3580613,1.262686,-0.108214,0.0780386,1.274515,-0.02562117,-0.3496405,1.239944,-0.1920339,-0.1053602,1.193125,0.3306797,-0.1084766,1.169449,NA,NA,Closed,Lasso,
-0.3544922,-0.8491211,0.4916992,0.06201172,1.241699,0.3823242,-3,-2,-4,-2,1,3,-4,-5,-2,-10,6,9,7,2,2,-1,-6.4375,-6.4375,-6.4375,-26.3125,-26.3125,-26.3125,3.32457,5.517281,4.94659,6.664937,4.86583,7.447267,-0.02777816,-0.03747192,0.9843702,0.1409095,-0.1615733,0.9943147,0.05261939,0.3042202,1.261351,0.02364835,-0.04795967,0.9956,0.09336481,-0.1724302,1.0035,0.04980934,-0.08526771,1.286384,0.04967194,-0.3580783,1.262494,-0.1081939,0.07799965,1.27452,-0.02577144,-0.3496086,1.23975,-0.191879,-0.1058012,1.194044,0.3298467,-0.1133817,1.175516,NA,NA,Closed,Lasso,
-0.3081055,-0.8789063,0.4990234,-0.1293945,0.9765625,0.5405273,4,1,-6,-1,-1,-5,-4,1,1,4,3,5,1,-1,-5,9,0,0,0,-27.5,-27.5,-27.5,3.322893,5.47077,4.954566,6.592532,4.967039,7.502037,-0.0278082,-0.04106606,0.9825954,0.1415147,-0.1435808,1.012877,0.05253191,0.3040933,1.260784,0.01665557,-0.05552973,0.98525,0.1307247,-0.1806444,1.013857,0.04980555,-0.08521517,1.286004,0.0495914,-0.3579716,1.262225,-0.108126,0.07754643,1.274376,-0.02585231,-0.3494817,1.239474,-0.1923988,-0.1063921,1.195035,0.3345072,-0.1175924,1.184228,NA,NA,Closed,Lasso,
-0.3334961,-0.9121094,0.5087891,-0.1269531,0.9204102,0.5410156,1,2,0,0,-4,1,1,-1,0,8,9,15,8,8,7,7,1.4375,1.4375,1.4375,-22.8125,-22.8125,-22.8125,3.323383,5.457409,4.951989,6.570967,5.052812,7.508184,-0.02796681,-0.04229866,0.9836225,0.144317,-0.1315738,1.017436,0.05252146,0.3040887,1.260603,0.02637455,-0.05057202,0.99475,0.1169901,-0.1584924,1.012091,0.04979342,-0.08513967,1.285843,0.04958155,-0.3578973,1.262168,-0.1080936,0.07756779,1.274355,-0.02585815,-0.3493832,1.239421,-0.1927218,-0.1065533,1.195984,0.3368289,-0.1193826,1.186194,NA,NA,Closed,NotTracked,
-0.3354492,-0.9052734,0.503418,-0.1479492,0.815918,0.5307617,-6,2,2,2,2,12,17,3,13,-1,10,7,-2,-3,-3,-9,0.625,0.625,0.625,-13.375,-13.375,-13.375,3.322908,5.461068,4.948431,6.554126,5.146912,7.509021,-0.02727574,-0.04255283,0.9844206,0.1424864,-0.1173226,1.018807,0.0525693,0.3040448,1.260434,0.035979,-0.06034364,0.9975,0.1221966,-0.1509646,1.028571,0.04983208,-0.08512984,1.285768,0.04958146,-0.3578756,1.262171,-0.1080732,0.07758436,1.274293,-0.02585428,-0.349341,1.239416,-0.1928451,-0.1066032,1.196298,0.3447348,-0.1247107,1.19545,NA,NA,NotTracked,NotTracked,
-0.3291016,-0.9057617,0.5009766,-0.1743164,0.7749023,0.5375977,3,-1,-2,-4,-2,-5,-9,0,-1,4,-5,-7,-2,-1,-4,-20,-0.125,-0.125,-0.125,1.3125,1.3125,1.3125,3.321754,5.465908,4.945654,6.551528,5.235955,7.508327,-0.02634924,-0.04132916,0.9831911,0.1411912,-0.1015631,1.018386,0.05268421,0.3039518,1.260072,0.0360607,-0.05505067,1.00125,0.1383751,-0.1243994,0.9924999,0.04980972,-0.08515374,1.285624,0.04958907,-0.3578603,1.262158,-0.1079916,0.07773902,1.274191,-0.02583225,-0.3493035,1.239384,-0.1928593,-0.106513,1.196499,0.34444,-0.1283214,1.198892,NA,NA,NotTracked,NotTracked,
-0.3374023,-0.8930664,0.5078125,-0.1738281,0.7548828,0.519043,4,0,3,1,4,6,-5,-5,-36,-12,1,-4,1,1,-10,-16,0.3125,0.3125,0.3125,10.0625,10.0625,10.0625,3.319957,5.481139,4.938729,6.558965,5.307802,7.504266,-0.02669185,-0.0376715,0.9830663,0.1427067,-0.08799628,1.017555,0.05282839,0.303905,1.259762,0.01790241,-0.05103128,0.975625,0.1283306,-0.11773,1.001938,0.04982873,-0.08513805,1.28556,0.04962477,-0.3578089,1.262118,-0.1077505,0.07798249,1.273853,-0.02575593,-0.3491938,1.239277,-0.1927952,-0.1063396,1.196582,0.3451188,-0.1337255,1.203223,NA,NA,NotTracked,NotTracked,
-0.3408203,-0.8955078,0.5043945,-0.1552734,0.7626953,0.5288086,-6,1,0,-2,-4,6,19,3,31,13,0,7,3,2,-2,20,0.25,0.25,0.25,10.75,10.75,10.75,3.318853,5.491462,4.93478,6.570285,5.358037,7.5012,-0.02592762,-0.03037447,0.9847541,0.1442508,-0.06942941,1.014187,0.05295549,0.3038189,1.2595,0.02469018,-0.04242871,0.986933,0.1187478,-0.09539686,1.006,0.04977802,-0.08514314,1.285416,0.04957574,-0.3577979,1.26207,-0.1075473,0.07816642,1.273508,-0.02579641,-0.3491112,1.239153,-0.1914209,-0.1055392,1.192984,0.3431363,-0.143875,1.205084,NA,NA,NotTracked,NotTracked,
-0.3505859,-0.859375,0.4936523,-0.1967773,0.7270508,0.5380859,-3,-2,-2,-1,-3,-6,-10,-7,-3,3,-9,-12,-2,-3,0,-9,-0.1875,-0.1875,-0.1875,4.875,4.875,4.875,3.316659,5.526895,4.924753,6.574628,5.390642,7.504201,-0.02605818,-0.02541099,0.9846091,0.1454879,-0.06332625,1.012434,0.05301602,0.3038058,1.259452,0.01509718,-0.0367924,0.9724,0.1285411,-0.09119984,1.002,0.04974878,-0.0851019,1.285352,0.04953452,-0.3575397,1.261993,-0.107568,0.07836727,1.273384,-0.02580407,-0.3488517,1.239028,-0.1909019,-0.1049066,1.191033,0.2832072,-0.1049194,1.197934,NA,NA,NotTracked,NotTracked,
-0.3349609,-0.8398438,0.4829102,-0.1801758,0.7011719,0.5385742,1,0,-1,-2,-2,-2,8,2,16,-1,0,8,-2,-3,-10,-17,-3.1875,-3.1875,-3.1875,8.125,8.125,8.125,3.313113,5.548341,4.920193,6.577388,5.399659,7.507394,-0.02469142,-0.02171253,0.9854665,0.1439598,-0.06004889,1.011815,0.05309562,0.3037584,1.259371,-0.01454156,-0.04174272,0.9708002,0.1045953,-0.06959175,1.024875,0.04975219,-0.0850602,1.285331,0.04953303,-0.3574338,1.26193,-0.1076147,0.07848012,1.273291,-0.02579456,-0.3487128,1.238883,-0.1907359,-0.1045478,1.190039,0.2832177,-0.1049019,1.197855,NA,NA,NotTracked,NotTracked,
-0.3320313,-0.8330078,0.4760742,-0.1523438,0.7543945,0.5170898,3,0,-2,0,0,-3,-4,2,1,-12,-16,-13,-4,2,5,15,-4,-4,-4,12.875,12.875,12.875,3.310815,5.556945,4.918541,6.589496,5.40141,7.513844,-0.02477348,-0.01911301,0.9859205,0.1433621,-0.05787497,1.009697,0.05314049,0.3037689,1.259368,-0.02495928,-0.04167705,0.9715295,0.1200938,-0.08097229,1.009769,0.04972134,-0.08498222,1.285272,0.04958824,-0.3572482,1.261829,-0.1076343,0.07870005,1.273249,-0.02573615,-0.3485568,1.238756,-0.1906438,-0.1041562,1.189416,0.2834314,-0.1047387,1.197492,NA,NA,NotTracked,NotTracked,
-0.3017578,-0.8212891,0.4604492,-0.1577148,0.7509766,0.5561523,-2,-1,-3,0,0,0,0,-1,5,19,10,2,-5,-4,-13,-5,-0.25,-0.25,-0.25,-5.4375,-5.4375,-5.4375,3.307121,5.567442,4.915966,6.574869,5.383427,7.51526,-0.02486376,-0.01684098,0.984548,0.1414286,-0.05768505,1.008728,0.05322383,0.3037557,1.259371,-0.008935971,-0.03430056,0.9668334,0.1160411,-0.08221059,1.009084,0.04951711,-0.08493398,1.285107,0.04954572,-0.357203,1.261531,-0.1076336,0.07900177,1.273137,-0.02579773,-0.3484615,1.23823,-0.1903086,-0.1036626,1.188414,0.2833447,-0.104597,1.196848,NA,NA,NotTracked,NotTracked,
-0.3115234,-0.8222656,0.4663086,-0.1875,0.8256836,0.5424805,-1,0,-1,0,-4,-10,-1,2,9,10,12,3,-1,0,6,7,-7.25,-7.25,-7.25,-9.125,-9.125,-9.125,3.304024,5.564641,4.925258,6.565266,5.370154,7.5147,-0.02551958,-0.01924577,0.9842972,0.1406954,-0.05984641,1.008493,0.05326271,0.3037445,1.259364,0.01471917,-0.02928556,0.9756073,0.08645584,-0.04407399,1.032667,0.04957592,-0.08484889,1.284865,0.04949591,-0.3570049,1.260974,-0.1075666,0.07920118,1.272974,-0.02581749,-0.3482702,1.237664,-0.1898955,-0.1032524,1.187315,0.2832743,-0.1047089,1.196297,NA,NA,NotTracked,NotTracked,
-0.3608398,-0.8730469,0.4892578,-0.2172852,0.8398438,0.5620117,-6,-5,-6,-3,-1,-1,-23,-9,-21,-1,3,1,2,-6,-27,-36,8.25,8.25,8.25,-2.8125,-2.8125,-2.8125,3.312447,5.547613,4.936921,6.560245,5.358927,7.515736,-0.02427143,-0.02078873,0.9847598,0.1392139,-0.06166093,1.010198,0.05327551,0.3037672,1.259386,0.03196758,-0.02908219,1.0005,0.1102168,-0.08596558,1.013,0.049582,-0.08484559,1.284836,0.04948466,-0.357027,1.260759,-0.1075493,0.07920043,1.272968,-0.02581296,-0.348293,1.23727,-0.1898432,-0.1032103,1.187162,0.2832709,-0.1046088,1.19638,NA,NA,NotTracked,NotTracked,
-0.3847656,-0.8769531,0.4775391,-0.2226563,0.8647461,0.5537109,-6,-4,-6,1,1,3,5,-3,9,12,9,7,6,3,7,-26,-2.25,-2.25,-2.25,-3.3125,-3.3125,-3.3125,3.318418,5.541155,4.949086,6.557896,5.353995,7.514615,-0.02514881,-0.02210623,0.9851984,0.1367389,-0.06180729,1.010141,0.05328823,0.3037604,1.259404,0.021151,-0.03435996,0.9859905,0.1216989,-0.09081473,0.9998948,0.04954484,-0.08483514,1.284719,0.04947146,-0.3570374,1.260515,-0.1075586,0.0791852,1.272962,-0.02581183,-0.348303,1.236954,-0.1898139,-0.1032505,1.187175,0.2831905,-0.1046062,1.196319,NA,NA,NotTracked,NotTracked,
-0.3984375,-0.9072266,0.465332,-0.2216797,0.862793,0.5649414,-9,2,3,8,2,-2,-9,-13,-30,-29,-22,-14,0,-3,-17,-7,-1.4375,-1.4375,-1.4375,-3.625,-3.625,-3.625,3.314793,5.539608,4.951816,6.556689,5.353217,7.515056,-0.0262158,-0.02254251,0.984826,0.1368209,-0.06276839,1.010711,0.05331381,0.3037625,1.2594,0.03450456,-0.03072047,0.9946667,0.1028922,-0.07871126,1.008937,0.04953023,-0.0848122,1.284677,0.04950316,-0.3569305,1.26027,-0.1075389,0.07918985,1.272956,-0.02574922,-0.3482261,1.236665,-0.1895889,-0.1032791,1.187017,0.283146,-0.1046158,1.196308,NA,NA,NotTracked,NotTracked,
-0.394043,-0.8818359,0.4711914,-0.2363281,0.8388672,0.5644531,2,0,-6,-4,1,-4,-4,-3,-23,-9,-4,-4,1,1,1,-1,-1.375,-1.375,-1.375,0.25,0.25,0.25,3.312322,5.543521,4.953432,6.554813,5.357298,7.514388,-0.0265986,-0.02291406,0.9845,0.1367353,-0.06278728,1.010313,0.05332842,0.3037521,1.259398,0.03420487,-0.03074344,0.9961014,0.1176742,-0.08986606,0.9967778,0.04952312,-0.08475248,1.284515,0.04957118,-0.3568041,1.259907,-0.1075094,0.07918283,1.272851,-0.02565091,-0.3481336,1.236251,-0.1896492,-0.1032746,1.186984,0.283149,-0.1046708,1.196453,NA,NA,NotTracked,NotTracked,
-0.3862305,-0.8720703,0.4770508,-0.2138672,0.8237305,0.5537109,-5,-2,-1,-1,0,9,-3,-2,12,0,3,1,4,4,3,1,-2.0625,-2.0625,-2.0625,-1,-1,-1,3.311036,5.545969,4.954285,6.55423,5.364659,7.511984,-0.02636935,-0.02169713,0.9835453,0.1363893,-0.06221602,1.009688,0.05334802,0.3037664,1.259366,0.02828881,-0.0307428,0.9921341,0.112237,-0.08795632,1.006036,0.04948313,-0.08473516,1.284305,0.04957293,-0.3567585,1.259584,-0.1075469,0.0792059,1.272812,-0.02562186,-0.3480779,1.235863,-0.1897282,-0.1032587,1.187009,0.2831872,-0.1045911,1.196523,NA,NA,NotTracked,NotTracked,
-0.362793,-0.8486328,0.4858398,-0.253418,0.8037109,0.5893555,4,0,2,1,-4,-5,-1,2,-14,-5,-5,-1,0,0,-3,-14,-2.1875,-2.1875,-2.1875,1.875,1.875,1.875,3.305427,5.55704,4.957884,6.548134,5.380114,7.501204,-0.027073,-0.01936963,0.9823012,0.1361741,-0.05880358,1.006705,0.05348282,0.3037592,1.259217,0.01939199,-0.03105947,0.9829371,0.1103858,-0.08250159,1.003769,0.04933113,-0.08477505,1.283878,0.04931907,-0.356888,1.258942,-0.1075589,0.07927296,1.272462,-0.02587098,-0.3481718,1.235228,-0.1893983,-0.1030644,1.185953,0.2829759,-0.1044103,1.196475,NA,NA,NotTracked,NotTracked,
-0.3535156,-0.8457031,0.4580078,0.01318359,0.7666016,0.8989258,-2,-2,-1,-2,-2,0,4,1,-5,-12,-6,-3,-3,-3,-3,-16,-6.0625,-6.0625,-6.0625,-3.5,-3.5,-3.5,3.297915,5.559959,4.95892,6.533091,5.387195,7.491929,-0.02654135,-0.01902719,0.981367,0.1366189,-0.05771852,1.005241,0.0534866,0.303814,1.259201,0.0214454,-0.02719826,0.9769535,0.1192649,-0.08494758,0.9923124,0.049339,-0.08472768,1.28378,0.04929602,-0.3568431,1.258843,-0.107558,0.07934775,1.27238,-0.0258932,-0.3481287,1.235107,-0.189357,-0.1029219,1.185657,0.2826448,-0.1043898,1.19626,NA,NA,NotTracked,NotTracked,
-0.3759766,-0.8535156,0.4790039,-0.6401367,0.7744141,0.1870117,-2,0,-1,-1,-2,-5,-3,-1,-7,2,1,2,-6,-3,8,6,-4.9375,-4.9375,-4.9375,2.6875,2.6875,2.6875,3.293544,5.560564,4.962765,6.569868,5.40556,7.489624,-0.02694962,-0.01970952,0.9799271,0.1350729,-0.05610437,1.002739,0.05349206,0.3038673,1.259182,0.007853488,-0.03593956,0.9815,0.1181201,-0.08212586,0.9856364,0.04914944,-0.0846833,1.283517,0.04915983,-0.3568789,1.258527,-0.1076034,0.07937496,1.272182,-0.02601856,-0.3481409,1.234676,-0.1890587,-0.1025361,1.184206,0.281585,-0.1045661,1.195183,NA,NA,NotTracked,NotTracked,
-0.3725586,-0.8549805,0.4648438,-1.023438,0.5546875,0.621582,0,0,-3,0,0,-1,-10,-3,-4,-5,-2,2,-2,-3,0,5,-1.8125,-1.8125,-1.8125,-13.3125,-13.3125,-13.3125,3.293454,5.559969,4.965624,6.543315,5.479434,7.477628,-0.02642541,-0.01962026,0.9782532,0.1345588,-0.05417834,1.001744,0.05347618,0.3039007,1.259104,0.01238645,-0.03110822,0.9653571,0.130755,-0.07769734,0.9723749,0.04910459,-0.08463135,1.283397,0.04911919,-0.3568557,1.258451,-0.1077347,0.07941261,1.271919,-0.02605916,-0.3481196,1.234589,-0.1890448,-0.1024636,1.183699,0.2810248,-0.1046342,1.194687,NA,NA,NotTracked,NotTracked,
-0.375,-0.8427734,0.4921875,-0.4287109,0.7612305,0.5322266,-1,-2,1,-2,-1,-1,2,1,-2,1,-4,-3,2,-1,0,-4,5.125,5.125,5.125,-8.625,-8.625,-8.625,3.302874,5.556805,4.977712,6.524201,5.525671,7.462015,-0.02627526,-0.02016626,0.9774275,0.1330278,-0.05257267,1.000153,0.05346109,0.3040117,1.259005,0.01614509,-0.03179388,0.9742236,0.1350666,-0.05746269,0.9623749,0.04905117,-0.0845434,1.28327,0.04905845,-0.3568088,1.25836,-0.1078499,0.07952864,1.271776,-0.02611502,-0.3480298,1.234387,-0.1890786,-0.1023545,1.183481,0.2799336,-0.105096,1.194115,NA,NA,NotTracked,NotTracked,
-0.371582,-0.8232422,0.4619141,-0.3291016,0.703125,0.4658203,-5,-2,-1,-2,-2,2,-11,-5,9,-1,4,-4,-1,1,-3,6,12.125,12.125,12.125,-19.875,-19.875,-19.875,3.318248,5.554028,4.989204,6.502669,5.528195,7.442935,-0.02669199,-0.02175728,0.9752475,0.1320028,-0.05258552,0.9964927,0.05345691,0.3040629,1.25898,0.02877992,-0.03131501,0.985,0.1359489,-0.0573605,0.960359,0.04897326,-0.08451393,1.283193,0.0490505,-0.3568157,1.258343,-0.1078898,0.07948051,1.271277,-0.02614878,-0.3480566,1.234227,-0.1890117,-0.1025493,1.183213,0.278695,-0.1050049,1.193266,NA,NA,NotTracked,NotTracked,
-0.3769531,-0.7202148,0.4628906,-0.3579102,0.6118164,0.4233398,2,1,-1,-1,-1,-4,-4,-2,8,3,0,-1,18,10,7,9,16.875,16.875,16.875,-25.75,-25.75,-25.75,3.344659,5.544006,5.010755,6.464226,5.507384,7.407811,-0.02707826,-0.02523913,0.9727729,0.1310993,-0.05446457,0.9909168,0.05342,0.3042169,1.258877,0.0004818672,-0.04603898,0.983,0.1265494,-0.08041225,0.9650385,0.04887784,-0.08439572,1.283123,0.04900763,-0.3567743,1.258338,-0.1079568,0.07950449,1.270871,-0.0261926,-0.3480075,1.234189,-0.1891062,-0.1025435,1.182875,0.27662,-0.1054488,1.192623,NA,NA,NotTracked,NotTracked,
-0.3496094,-0.6191406,0.3886719,-0.2954102,0.5644531,0.4365234,0,-1,-2,-1,-2,3,5,1,-4,-5,-6,-4,-8,-5,-7,-8,12.5625,12.5625,12.5625,-8.4375,-8.4375,-8.4375,3.376071,5.508114,5.051726,6.452965,5.475658,7.386342,-0.02688715,-0.03251434,0.9662334,0.1271162,-0.0610606,0.9839945,0.05340577,0.3043116,1.258765,0.03672837,-0.03125452,0.9825,0.1409346,-0.08278274,0.9614708,0.0488598,-0.08432479,1.28305,0.04898638,-0.3567352,1.258303,-0.1079076,0.07953479,1.270535,-0.02620618,-0.3479709,1.23416,-0.1891571,-0.1026065,1.182868,0.3132146,-0.1570881,1.17782,NA,NA,NotTracked,NotTracked,
-0.1855469,-0.6450195,0.3911133,-0.1206055,0.5942383,0.4399414,-11,-1,-2,-2,-2,1,-3,-9,5,3,-1,-3,-5,-4,-7,-10,10.75,10.75,10.75,5.1875,5.1875,5.1875,3.401353,5.422556,5.110633,6.446969,5.372288,7.342014,-0.03457618,-0.06500202,0.9499096,0.1319035,-0.09192156,0.962989,0.05329276,0.3045966,1.258736,0.02267357,-0.07203677,0.955,0.1393888,-0.08974909,0.9284359,0.04863969,-0.08415277,1.282985,0.04882334,-0.3567288,1.258285,-0.1075249,0.07939933,1.269569,-0.02636482,-0.3479392,1.234111,-0.1875381,-0.1048956,1.185887,0.3154635,-0.1541361,1.179091,NA,NA,NotTracked,NotTracked,
-0.01123047,-0.699707,0.5004883,0.3100586,0.5869141,0.5380859,-8,-2,0,0,-6,-6,-5,-5,-7,1,2,-5,-7,-5,3,-2,1.1875,1.1875,1.1875,15.875,15.875,15.875,3.448355,5.139442,5.251822,6.459267,5.055269,7.217398,-0.04555522,-0.1249461,0.9343836,0.1354194,-0.1464967,0.9396046,0.05319276,0.3049228,1.25911,0.007839659,-0.1364138,0.9450001,0.141782,-0.1198559,0.9220001,0.04845323,-0.08416309,1.282908,0.04838168,-0.3571983,1.257996,-0.1074915,0.07634347,1.268988,-0.02709755,-0.3485306,1.233455,-0.2108328,-0.1319187,1.159978,0.3049986,-0.1324474,1.180404,NA,NA,NotTracked,NotTracked,
0.04345703,-0.8857422,0.5473633,0.1567383,0.7299805,0.4887695,1,-1,0,-1,-1,0,10,2,-4,3,11,6,-1,-2,-11,-11,-0.625,-0.625,-0.625,21,21,21,3.449834,4.941406,5.325187,6.478682,4.85651,7.15816,-0.05414286,-0.1623839,0.9293919,0.1411615,-0.1803825,0.9304458,0.05313628,0.305058,1.259278,0.004395538,-0.1722008,0.949,0.146073,-0.1550201,0.9113334,0.04799354,-0.08445483,1.282867,0.04775645,-0.3583688,1.257549,-0.1080193,0.0750019,1.26887,-0.02782147,-0.3496408,1.232768,-0.1992296,-0.1291912,1.195411,0.288583,-0.1307081,1.189514,NA,NA,NotTracked,NotTracked,
0.3388672,-0.8862305,0.5307617,0.699707,0.6699219,0.4458008,7,0,1,0,-2,-7,-9,5,-2,-1,-2,-1,-5,0,4,21,27.9375,27.9375,27.9375,-19.25,-19.25,-19.25,3.459193,4.718097,5.394625,6.519161,4.509744,7.061252,-0.06593638,-0.2013941,0.9339066,0.1471436,-0.2164501,0.9275,0.05309217,0.3052096,1.259434,-0.02227837,-0.2007242,0.9243751,0.1143834,-0.1963793,0.9179445,0.04779694,-0.08452668,1.282761,0.04699985,-0.3589205,1.256649,-0.1085681,0.07434025,1.268598,-0.02850753,-0.3502001,1.231662,-0.1979594,-0.1317396,1.201769,0.2810865,-0.1401955,1.183709,NA,NA,NotTracked,Closed,
0.3867188,-0.8432617,0.5087891,0.5761719,0.6635742,0.4736328,-1,-2,-1,1,0,1,2,4,-12,-5,-4,-1,-2,-3,-3,0,27.125,27.125,27.125,-7.9375,-7.9375,-7.9375,3.467533,4.613213,5.424469,6.522623,4.393632,7.037658,-0.07494342,-0.2405861,0.9420072,0.1555353,-0.2549083,0.9309051,0.05301873,0.3053511,1.259675,-0.04415675,-0.2339005,0.9284643,0.124051,-0.2376659,0.9191875,0.04745938,-0.08498469,1.282295,0.04652167,-0.3603335,1.255318,-0.1094111,0.07334777,1.26831,-0.02921036,-0.3516646,1.230162,-0.1917036,-0.1366018,1.208983,0.27452,-0.157254,1.175326,NA,NA,Unknown,Closed,
0.3017578,-0.8828125,0.5546875,0.6235352,0.6772461,0.4072266,4,1,4,4,0,6,15,7,15,2,-1,-1,-2,-1,1,6,-8.5,-8.5,-8.5,42.25,42.25,42.25,3.446585,4.394755,5.482594,6.589479,4.152696,6.965484,-0.08354956,-0.2788287,0.9552319,0.1645575,-0.2944279,0.9397295,0.05289391,0.3056313,1.259934,-0.04719352,-0.2822425,0.9634546,0.1363036,-0.2777766,0.9256189,0.04753798,-0.08502091,1.282196,0.04721559,-0.360679,1.254871,-0.10983,0.07260888,1.268243,-0.02870662,-0.3522446,1.229547,-0.1869494,-0.1439481,1.21158,0.2699656,-0.1657247,1.175981,NA,NA,Unknown,Closed,
0.6347656,-0.8525391,0.4799805,0.9150391,0.6801758,0.296875,-3,-1,-1,0,-1,-5,-1,-1,5,0,1,-2,-4,-2,-1,3,19.375,19.375,19.375,29.4375,29.4375,29.4375,3.425379,4.164025,5.550723,6.683337,3.910299,6.869295,-0.09399409,-0.3187279,0.9697011,0.1733039,-0.333572,0.9533839,0.05274689,0.3058892,1.260216,-0.05559594,-0.3235853,0.9571818,0.1393482,-0.3531449,0.957,0.04768007,-0.08519208,1.282146,0.04834864,-0.3615828,1.254889,-0.1102806,0.07185567,1.268055,-0.02767279,-0.3535622,1.229414,-0.1818371,-0.1538811,1.212917,0.2669253,-0.1730715,1.177655,NA,NA,Closed,Closed,
0.6245117,-0.7402344,0.4375,1.089355,0.5620117,0.2172852,0,-1,-2,-1,-4,-9,1,7,8,-1,-5,-6,-1,2,7,22,-10.9375,-10.9375,-10.9375,26.9375,26.9375,26.9375,3.385236,3.94789,5.623566,6.793766,3.673128,6.749917,-0.1087641,-0.3498792,0.9972908,0.1869676,-0.3663292,0.9792374,0.05258863,0.3061748,1.2606,-0.07690847,-0.3729993,1.001188,0.1662601,-0.3862234,0.9700834,0.04769579,-0.08551555,1.282231,0.04911251,-0.3630133,1.255174,-0.111182,0.07091804,1.268011,-0.02695928,-0.3552904,1.229465,-0.1635763,-0.1429263,1.229355,0.2412793,-0.1583514,1.212821,NA,NA,Closed,Unknown,
