ALX,ALY,ALZ,ARX,ARY,ARZ,EMG0L,EMG1L,EMG2L,EMG3L,EMG4L,EMG5L,EMG6L,EMG7L,EMG0R,EMG1R,EMG2R,EMG3R,EMG4R,EMG5R,EMG6R,EMG7R,GLX,GLY,GLZ,GRX,GRY,GRZ,ORL,OPL,OYL,ORR,OPR,OYR,LHNX,LHNY,LHNZ,RHNX,RHNY,RHNZ,HX,HY,HZ,LTX,LTY,LTZ,RTX,RTY,RTZ,SpineMidX,SpineMidY,SpineMidZ,SpineBaseX,SpineBaseY,SpineBaseZ,ShoulderLeftX,ShoulderLeftY,ShoulderLeftZ,ShoulderRightX,ShoulderRightY,ShoulderRightZ,ElbowLeftX,ElbowLeftY,ElbowLeftZ,ElbowRightX,ElbowRightY,ElbowRightZ,Myo_Pose_left,Myo_Pose_Right,Kinect_pose_left,Kinect_pose_right
-0.3520508,-0.8959961,0.5742188,-0.2993164,0.6064453,0.7490234,7,8,7,6,1,1,12,4,1,-5,-7,-2,-1,-2,-1,-2,30,30,30,2.9375,2.9375,2.9375,3.418788,5.375853,3.005574,6.108438,5.507224,2.928334,-0.0474445,-0.06073954,1.149948,-0.03367537,-0.06282963,1.145627,0.02136677,0.4275629,1.353048,-0.07300395,-0.03667717,1.134828,-0.04504919,-0.03209436,1.139389,0.02232462,-0.03979726,1.35285,0.02746043,-0.3653045,1.325113,-0.143357,0.1367564,1.336684,-0.05324297,-0.3545873,1.289838,-0.2116889,-0.08627539,1.323994,0.2308102,-0.09513426,1.305772,NA,NA,NotTracked,NotTracked,
-0.4003906,-0.8833008,0.5327148,-0.3115234,0.5854492,0.7490234,4,-5,-7,4,-4,5,0,2,-7,-4,-4,-4,-5,-2,-4,-1,30.375,30.375,30.375,-3.3125,-3.3125,-3.3125,3.445704,5.449309,2.982915,6.104068,5.486906,2.928957,-0.04696721,-0.05200274,1.155697,-0.03984031,-0.05063261,1.150683,0.02128013,0.4275204,1.352899,-0.05876957,-0.01572625,1.166571,-0.05386465,-0.02018838,1.151539,0.02231279,-0.03981374,1.352833,0.02746287,-0.3653114,1.325088,-0.1433766,0.1367208,1.336408,-0.05324199,-0.3545954,1.289835,-0.2120677,-0.08614945,1.325281,0.230623,-0.0959714,1.305462,NA,NA,NotTracked,NotTracked,
-0.4238281,-0.8417969,0.53125,-0.2797852,0.6235352,0.7548828,-6,-9,-12,-7,-6,-3,-16,-5,-1,1,-1,4,0,-2,-2,-2,24.3125,24.3125,24.3125,-0.75,-0.75,-0.75,3.464749,5.536362,2.966547,6.102794,5.467166,2.932541,-0.05053339,-0.04048828,1.158991,-0.0426024,-0.0382525,1.153877,0.02110378,0.4274011,1.352622,-0.05515873,-0.009904287,1.15235,-0.04165722,-0.01185041,1.141526,0.02230237,-0.03983499,1.352819,0.02742953,-0.3653098,1.325095,-0.1444358,0.137692,1.339649,-0.05326879,-0.3545943,1.289864,-0.2119118,-0.08563469,1.325487,0.2309925,-0.09712209,1.305449,NA,NA,NotTracked,NotTracked,
-0.4472656,-0.8193359,0.5195313,-0.2861328,0.6254883,0.7583008,-7,-9,-7,4,-3,3,5,-2,-1,-2,-4,-5,-10,-6,-6,-3,22,22,22,-2.25,-2.25,-2.25,3.483044,5.629169,2.955352,6.102269,5.458103,2.935428,-0.04543136,-0.02828334,1.16153,-0.04467582,-0.02515871,1.157097,0.02088651,0.4273897,1.352473,-0.0794897,-0.01289479,1.147346,-0.03703657,0.001881543,1.148,0.02227625,-0.03990727,1.352766,0.02742554,-0.3654035,1.325043,-0.1443481,0.1373963,1.338716,-0.05327644,-0.3547447,1.289794,-0.2119859,-0.08585814,1.325596,0.231336,-0.09795912,1.306179,NA,NA,NotTracked,NotTracked,
-0.4526367,-0.737793,0.4995117,-0.2641602,0.6196289,0.7617188,0,-7,-2,0,-4,5,-3,1,-9,-2,2,2,2,0,-3,-3,17.9375,17.9375,17.9375,-4.4375,-4.4375,-4.4375,3.500029,5.726061,2.949021,6.09631,5.434518,2.946343,0.02865299,-0.009691931,1.160365,-0.06156278,-0.01881121,1.173178,0.02073245,0.4273633,1.352313,-0.02656343,-0.02079469,1.121593,-0.07230292,0.01736837,1.1895,0.02221949,-0.03994139,1.352786,0.02742304,-0.3654564,1.325058,-0.1443795,0.1372103,1.33814,-0.05328355,-0.3548031,1.289821,-0.2119919,-0.08603539,1.32568,0.2321962,-0.09368019,1.30624,NA,NA,NotTracked,NotTracked,
-0.4790039,-0.7045898,0.4663086,-0.2626953,0.6416016,0.7670898,-1,-13,4,8,3,-1,8,-1,1,-4,-6,1,0,-2,0,-2,-2,-2,-2,-5.875,-5.875,-5.875,3.498892,5.81482,2.942313,6.093591,5.423773,2.954385,0.1283226,0.004689595,1.086764,-0.06548327,-0.008011768,1.17856,0.02064055,0.4273338,1.352321,0.09410952,0.02644087,1.05575,-0.05371121,0.03493046,1.20825,0.02218218,-0.0399727,1.352801,0.02742029,-0.3654765,1.325065,-0.1443668,0.1370211,1.337672,-0.05328461,-0.3548379,1.289815,-0.2096622,-0.08697319,1.323879,0.2318433,-0.09430349,1.30602,NA,NA,NotTracked,NotTracked,
-0.5546875,-0.7602539,0.4545898,-0.2651367,0.6274414,0.7729492,1,11,18,8,1,12,10,0,2,-1,-4,-1,0,0,4,1,-2.6875,-2.6875,-2.6875,-6.625,-6.625,-6.625,3.48781,5.891426,2.937922,6.090827,5.420063,2.958639,0.1258471,0.003463783,1.087257,-0.06988882,-0.001019459,1.178195,0.02043028,0.4272465,1.352234,0.08734355,0.01831789,1.058206,-0.05992649,0.04370116,1.200333,0.02217667,-0.04000039,1.35278,0.02741047,-0.3654817,1.325061,-0.1449131,0.1377389,1.340203,-0.05329074,-0.3548493,1.289808,-0.2069867,-0.08724665,1.321657,0.2315697,-0.09541249,1.305779,NA,NA,NotTracked,NotTracked,
-0.5546875,-0.7602539,0.4545898,-0.2651367,0.6274414,0.7729492,1,11,18,8,1,12,10,0,2,-1,-4,-1,0,0,4,1,-2.6875,-2.6875,-2.6875,-6.625,-6.625,-6.625,3.48781,5.891426,2.937922,6.090827,5.420063,2.958639,0.1220437,0.005823879,1.091821,-0.08024527,0.001864644,1.184561,0.02038299,0.4272137,1.352209,0.08562192,0.01691927,1.058909,-0.06462219,0.05485494,1.2152,0.02212718,-0.04001778,1.35278,0.02738567,-0.3655473,1.325038,-0.1449097,0.1373504,1.338961,-0.05332502,-0.3549138,1.289758,-0.2013005,-0.08913714,1.315893,0.2315762,-0.09575257,1.306124,NA,NA,NotTracked,NotTracked,
-0.543457,-0.6445313,0.4277344,-0.2641602,0.6293945,0.762207,-4,-4,-20,-10,-6,2,-6,-3,-8,1,0,-2,-7,-2,-6,-3,-8.8125,-8.8125,-8.8125,-4.8125,-4.8125,-4.8125,3.482233,5.951323,2.946176,6.08729,5.416083,2.966131,0.1212368,0.005297809,1.092313,-0.08289906,0.005757878,1.183212,0.02033043,0.4272547,1.352218,0.1286813,0.02616132,1.058364,-0.08198243,0.0477195,1.189333,0.02206379,-0.04001898,1.35279,0.0273564,-0.3655644,1.325037,-0.1447442,0.137189,1.337969,-0.05335284,-0.3549376,1.289767,-0.1966562,-0.0903024,1.311177,0.2317652,-0.09604274,1.306934,NA,NA,NotTracked,NotTracked,
-0.5410156,-0.6918945,0.4458008,-0.2739258,0.6401367,0.7583008,-5,-8,-6,1,-2,-2,4,-3,-6,7,10,2,5,3,0,-2,-18.9375,-18.9375,-18.9375,-5.875,-5.875,-5.875,3.468066,5.984726,2.956269,6.084261,5.416545,2.972286,0.1185958,0.008033448,1.096161,-0.0350133,0.03414091,1.153734,0.02030355,0.4272373,1.352213,0.1260611,0.0307443,1.066937,-0.006172628,0.04584084,1.104439,0.02203736,-0.04004633,1.35283,0.0273292,-0.3656174,1.325068,-0.144747,0.1370077,1.337238,-0.0533818,-0.3549704,1.289789,-0.192314,-0.09133301,1.30736,0.2313348,-0.09164198,1.305879,NA,NA,NotTracked,NotTracked,
-0.5444336,-0.706543,0.4042969,-0.2753906,0.6303711,0.7578125,-7,-5,-6,-2,-1,-6,-14,-2,-2,1,2,1,-2,-3,-1,2,-19.75,-19.75,-19.75,-3.5625,-3.5625,-3.5625,3.458653,5.992356,2.962499,6.081192,5.419654,2.976474,0.1172443,0.009994112,1.096807,-0.0418389,0.03412152,1.15133,0.02028425,0.4272278,1.352248,0.08601388,0.08009653,1.121143,-0.007525743,0.04773155,1.096416,0.02201632,-0.04006899,1.352872,0.02734837,-0.3656626,1.325072,-0.1447799,0.1368866,1.336773,-0.05337946,-0.3550169,1.28976,-0.1798145,-0.09010658,1.276899,0.2312589,-0.09180141,1.305985,NA,NA,NotTracked,NotTracked,
-0.4628906,-0.6762695,0.465332,-0.2817383,0.6357422,0.7519531,-9,-2,12,1,2,-5,7,1,1,6,3,-4,0,1,-1,1,-22.625,-22.625,-22.625,-2.8125,-2.8125,-2.8125,3.445428,5.989291,2.981209,6.079989,5.425944,2.977765,0.1157176,0.01152563,1.09572,-0.0453026,0.03403436,1.145484,0.02027376,0.4272273,1.352252,0.1463669,0.02359954,1.0636,-0.03708337,0.04400742,1.099067,0.02197055,-0.04008738,1.352937,0.02729492,-0.3657248,1.325106,-0.1447561,0.136694,1.336089,-0.053428,-0.3550839,1.289774,-0.1797117,-0.08980343,1.273685,0.2308995,-0.09198873,1.306569,NA,NA,NotTracked,NotTracked,
-0.4814453,-0.7348633,0.4780273,-0.2832031,0.6328125,0.7607422,3,-12,-6,-5,0,-8,-6,1,9,1,0,-3,-5,-4,-1,-1,-22.75,-22.75,-22.75,-2.125,-2.125,-2.125,3.430969,5.964297,3.000866,6.079416,5.42982,2.977503,0.1145328,0.01253905,1.095359,-0.04386621,0.03311892,1.137066,0.02026736,0.4272131,1.352247,0.1281212,0.02810426,1.062364,-0.005111957,0.05219992,1.080222,0.02190254,-0.04011634,1.352984,0.02729074,-0.3657419,1.325106,-0.1447252,0.136633,1.335573,-0.05343148,-0.3550922,1.289766,-0.1805116,-0.08879084,1.268874,0.2308934,-0.0923676,1.30712,NA,NA,NotTracked,NotTracked,
-0.4267578,-0.7382813,0.5004883,-0.2817383,0.628418,0.7431641,-13,-11,-15,-6,-7,-9,-13,0,-2,-3,-5,-3,1,-2,-4,2,-16.0625,-16.0625,-16.0625,-1.5,-1.5,-1.5,3.426413,5.92461,3.026495,6.078457,5.43867,2.975124,0.1140444,0.01422563,1.096172,-0.04214009,0.03245182,1.12963,0.02023296,0.4272085,1.352395,0.1151026,0.03411639,1.0642,-0.007387886,0.0557194,1.072135,0.02189638,-0.04016069,1.353047,0.02726687,-0.3657649,1.325136,-0.1446467,0.1365772,1.33515,-0.05344122,-0.3550957,1.289767,-0.1788894,-0.09025658,1.273802,0.2309125,-0.09394848,1.309506,NA,NA,NotTracked,NotTracked,
-0.4086914,-0.730957,0.4716797,-0.2919922,0.6196289,0.7460938,-20,-8,4,3,3,-1,6,-2,9,1,-1,0,1,3,1,1,-16.0625,-16.0625,-16.0625,-0.1875,-0.1875,-0.1875,3.423918,5.873276,3.054847,6.078571,5.448996,2.971048,-0.0133029,0.04565987,1.099696,-0.009281593,0.04408885,1.099691,0.02026208,0.4272067,1.352449,-0.049443,0.04813727,1.091952,0.01376901,0.06990435,1.0708,0.02188435,-0.0401656,1.353053,0.02726872,-0.3657713,1.32513,-0.1445533,0.1364736,1.334615,-0.05343561,-0.3550997,1.28973,-0.1782087,-0.0907699,1.274848,0.2310636,-0.09466789,1.31057,NA,NA,NotTracked,NotTracked,
-0.3452148,-0.7568359,0.4921875,-0.3071289,0.6181641,0.7407227,6,3,-7,-7,0,-7,-3,1,4,0,-4,-2,-4,-1,2,0,-17.5,-17.5,-17.5,0.3125,0.3125,0.3125,3.41887,5.807666,3.08308,6.078449,5.460185,2.965839,0.1100165,0.01867384,1.094814,-0.03981364,0.01243407,1.145573,0.02030537,0.4271922,1.352537,0.1098396,0.03157744,1.061391,-0.0005629809,0.04900869,1.060172,0.02187131,-0.04018034,1.353106,0.02725526,-0.3657769,1.325156,-0.1445293,0.1363999,1.334275,-0.05344296,-0.3551013,1.289727,-0.177279,-0.09114546,1.275341,0.2313168,-0.09495218,1.311497,NA,NA,NotTracked,NotTracked,
-0.3388672,-0.7719727,0.5117188,-0.3110352,0.6166992,0.7412109,-15,-17,-15,-9,3,-6,-1,-2,2,-5,-4,0,0,-2,0,2,-19.625,-19.625,-19.625,0.25,0.25,0.25,3.413982,5.771218,3.095079,6.078948,5.470459,2.960559,-0.01352663,0.03407788,1.087742,0.01422495,0.03627968,1.086429,0.02038277,0.4272589,1.352636,-0.02377185,0.01709183,1.049227,0.07215776,0.04633097,1.062917,0.02186533,-0.04015944,1.353153,0.02725221,-0.3657549,1.32518,-0.1445142,0.1363773,1.333995,-0.05344158,-0.3550908,1.289729,-0.1771552,-0.09133826,1.275867,0.2312359,-0.09531829,1.312024,NA,NA,NotTracked,NotTracked,
-0.340332,-0.7944336,0.5205078,-0.3212891,0.6030273,0.737793,4,-2,-7,-5,2,-9,-11,-5,-4,3,7,0,-4,-2,-1,-5,-13.5625,-13.5625,-13.5625,2.5,2.5,2.5,3.406127,5.692387,3.11452,6.080112,5.481427,2.954763,-0.0176628,0.02424785,1.08676,0.008908701,0.02731908,1.079145,0.02046778,0.4272756,1.352864,-0.02473011,0.001723709,1.046909,0.07049835,0.04379753,1.0465,0.02186096,-0.04014793,1.3532,0.02725952,-0.3657469,1.325205,-0.1444219,0.1362551,1.333656,-0.05343235,-0.355076,1.289726,-0.1771196,-0.09171937,1.276982,0.2311029,-0.09576141,1.312357,NA,NA,NotTracked,NotTracked,
-0.2822266,-0.8193359,0.5239258,-0.3198242,0.6152344,0.7456055,3,6,15,3,-2,-1,4,0,-9,-4,-4,-1,-4,-1,-6,-3,-14.5625,-14.5625,-14.5625,2.1875,2.1875,2.1875,3.396671,5.605581,3.128254,6.082376,5.491484,2.949661,-0.01977267,0.0007635194,1.080354,0.01170429,0.004701175,1.074657,0.02062894,0.4272972,1.353011,-0.03138213,-0.007775328,1.03936,0.06816642,0.02121069,1.053,0.02182831,-0.04010851,1.353274,0.02726238,-0.3656701,1.325254,-0.1440325,0.1360393,1.333002,-0.05340566,-0.3549932,1.289749,-0.1797629,-0.09209968,1.280092,0.2333,-0.09426672,1.30843,NA,NA,NotTracked,NotTracked,
-0.2543945,-0.8398438,0.5405273,-0.3413086,0.5922852,0.7446289,6,1,2,0,0,5,-4,-3,2,-2,-4,-4,-2,0,0,1,-18.25,-18.25,-18.25,2,2,2,3.382258,5.516011,3.137195,6.08197,5.502884,2.944886,-0.02994085,-0.01284782,1.08422,0.1104249,0.01744274,1.091699,0.02067975,0.4273603,1.353105,-0.03350767,-0.03381677,1.042826,0.09465352,0.04098498,1.086286,0.02182643,-0.04010194,1.353285,0.0272622,-0.3656386,1.325269,-0.1439479,0.1359427,1.332799,-0.05339321,-0.3549526,1.289733,-0.1819581,-0.0922607,1.282808,0.2322872,-0.09504561,1.308417,NA,NA,NotTracked,NotTracked,
-0.2426758,-0.9233398,0.5478516,-0.340332,0.5961914,0.7314453,-19,-18,-4,-1,1,5,9,0,7,-1,-1,1,5,0,1,9,-12.8125,-12.8125,-12.8125,3.4375,3.4375,3.4375,3.367837,5.427669,3.14227,6.083036,5.508188,2.94224,-0.03236493,-0.0273165,1.085059,-0.001122742,-0.02349117,1.074004,0.02073909,0.4273674,1.3531,-0.0331559,-0.0108657,1.053844,-0.03896999,-0.001912752,1.07525,0.02184892,-0.04012195,1.353288,0.0272707,-0.3656384,1.325276,-0.143787,0.1358446,1.332544,-0.05337514,-0.3549492,1.289737,-0.1851935,-0.09226959,1.286371,0.2320049,-0.09502374,1.308027,NA,NA,NotTracked,NotTracked,
-0.2236328,-0.9189453,0.5625,-0.3300781,0.6005859,0.7373047,4,13,2,0,-2,-8,-5,-1,-2,-2,-3,-1,0,-2,-1,-3,-10.3125,-10.3125,-10.3125,3,3,3,3.358604,5.348589,3.144493,6.085773,5.516973,2.936389,-0.03449979,-0.04019148,1.088333,0.1178295,0.0197231,1.092414,0.02079475,0.4273932,1.353078,-0.04320905,-0.0080351,1.1075,0.05348153,-0.04192851,1.0485,0.02186736,-0.04011241,1.353284,0.02729889,-0.3656102,1.325272,-0.1436115,0.1357408,1.332313,-0.05333175,-0.3549083,1.289709,-0.1886011,-0.09224004,1.291,0.2318661,-0.09512569,1.307988,NA,NA,NotTracked,NotTracked,
-0.2353516,-0.9555664,0.5581055,-0.3452148,0.5864258,0.7353516,-8,-13,-6,-2,-8,1,-4,-3,1,4,4,2,0,-3,-3,0,-10.75,-10.75,-10.75,1.875,1.875,1.875,3.352858,5.313092,3.146237,6.085692,5.524168,2.931543,-0.0383685,-0.05247485,1.092988,-0.01365182,-0.0557928,1.084471,0.02085319,0.4273621,1.353057,-0.03756025,-0.02842338,1.072269,-0.05354163,-0.0235157,1.0978,0.02185302,-0.04009935,1.353285,0.02727726,-0.3655661,1.325282,-0.1435997,0.1369307,1.335571,-0.05333955,-0.3548546,1.289712,-0.1943562,-0.09030113,1.299795,0.2314837,-0.09570659,1.307797,NA,NA,NotTracked,NotTracked,
-0.1503906,-0.9526367,0.5825195,-0.3540039,0.59375,0.7216797,3,0,4,-5,-4,0,2,0,0,3,1,1,1,1,0,-3,0.0625,0.0625,0.0625,3.4375,3.4375,3.4375,3.34973,5.247447,3.146749,6.087636,5.529403,2.926259,-0.04195574,-0.06314208,1.098739,-0.01423007,-0.06495719,1.089233,0.02098106,0.42731,1.352971,-0.02701342,-0.03397327,1.100333,-0.04992689,-0.03644865,1.094778,0.02186708,-0.04009231,1.353279,0.02732237,-0.3655173,1.325262,-0.1435938,0.1371233,1.337252,-0.05330008,-0.3548057,1.289699,-0.1986084,-0.08929733,1.30458,0.2310775,-0.09671923,1.307438,NA,NA,NotTracked,NotTracked,
-0.237793,-0.9897461,0.5883789,-0.3276367,0.6010742,0.7363281,-4,-9,1,-14,-4,-6,-3,-1,-8,-7,-6,-3,-2,-2,-3,0,2.1875,2.1875,2.1875,3.25,3.25,3.25,3.351768,5.200967,3.146011,6.090526,5.530707,2.921291,-0.04360303,-0.07280968,1.104843,-0.009786562,-0.07525954,1.095704,0.02100308,0.4273241,1.352923,-0.0245884,-0.04464027,1.119333,-0.04422389,-0.04536166,1.097125,0.02187314,-0.04008479,1.353252,0.02734253,-0.3654795,1.325228,-0.1436287,0.1374106,1.338397,-0.05328463,-0.3547675,1.289672,-0.2026811,-0.08822325,1.310684,0.2308293,-0.09476399,1.306165,NA,NA,NotTracked,NotTracked,
-0.159668,-0.9560547,0.5795898,-0.3525391,0.5888672,0.7246094,-15,-7,2,0,-4,0,2,-1,-4,-6,-2,-1,1,-1,-4,-3,12.375,12.375,12.375,2.5625,2.5625,2.5625,3.362797,5.166522,3.141703,6.09163,5.530907,2.917355,-0.04509424,-0.08017408,1.112893,-0.01047337,-0.08227836,1.10392,0.02105133,0.4273398,1.352799,-0.06566796,-0.04534423,1.121917,-0.04097372,-0.05355924,1.097846,0.02189547,-0.04008115,1.353202,0.02740204,-0.3654726,1.325194,-0.1435461,0.1370516,1.337117,-0.05325297,-0.3547651,1.289689,-0.2054292,-0.08796774,1.314902,0.23058,-0.0950752,1.306098,NA,NA,NotTracked,NotTracked,
-0.2573242,-0.9658203,0.5942383,-0.3256836,0.5976563,0.730957,9,8,16,18,1,3,-3,-1,3,3,0,0,0,2,1,-1,18.375,18.375,18.375,2.9375,2.9375,2.9375,3.381895,5.159614,3.133435,6.093989,5.527315,2.913161,-0.049179,-0.08616074,1.130604,-0.01004193,-0.08979804,1.122578,0.02115791,0.427394,1.352369,-0.05128033,-0.06549373,1.104545,-0.03567826,-0.06092085,1.119429,0.02191348,-0.04005493,1.353092,0.02747675,-0.3654372,1.325137,-0.1433389,0.1367989,1.335774,-0.05322125,-0.3547508,1.289734,-0.2094635,-0.0869131,1.323641,0.2302595,-0.09612865,1.30584,NA,NA,NotTracked,NotTracked,
-0.2192383,-0.934082,0.6254883,-0.3325195,0.6005859,0.7265625,2,-1,-10,-3,-6,-4,3,2,-4,6,8,-1,-2,-2,-1,-2,22.875,22.875,22.875,2.4375,2.4375,2.4375,3.404842,5.167436,3.121881,6.094878,5.524416,2.911827,-0.03193384,-0.09163676,1.160774,0.1375067,0.02559354,1.088195,0.02116651,0.4274014,1.352208,-0.06978193,-0.05896099,1.125179,0.089274,0.03257734,1.0942,0.02193866,-0.04005882,1.353037,0.0275211,-0.3654273,1.325092,-0.1432501,0.1367741,1.335316,-0.05320501,-0.354751,1.289728,-0.2107878,-0.08632836,1.327529,0.2301666,-0.09657195,1.305799,NA,NA,Lasso,NotTracked,
-0.2504883,-0.8862305,0.6015625,-0.3256836,0.5874023,0.734375,2,6,0,5,-5,-6,-8,2,-5,-3,-1,-3,-1,1,-3,-2,31.9375,31.9375,31.9375,0.1875,0.1875,0.1875,3.437976,5.194033,3.10478,6.094182,5.516953,2.91093,-0.03307615,-0.09093987,1.167098,0.1411677,0.01997623,1.089479,0.02113179,0.4273636,1.351937,-0.07793374,-0.05437399,1.136414,0.1018979,0.01708638,1.083769,0.02192138,-0.04005828,1.352892,0.02751758,-0.3654282,1.325041,-0.1431962,0.1368375,1.335085,-0.05320828,-0.3547541,1.289731,-0.2116524,-0.08581199,1.330173,0.2302043,-0.09704644,1.305558,NA,NA,Lasso,Unknown,
-0.3066406,-0.8354492,0.5415039,-0.3217773,0.5927734,0.737793,0,-2,-2,-6,0,0,0,-1,-3,-5,-2,-5,0,-1,1,0,24.25,24.25,24.25,2.125,2.125,2.125,3.464473,5.239115,3.087433,6.095307,5.507798,2.912426,-0.03065925,-0.08785982,1.17348,0.140882,0.01881849,1.086891,0.02108346,0.4272249,1.351535,-0.08088653,-0.04916239,1.142522,0.09354238,0.02482929,1.083665,0.02196885,-0.04011047,1.352722,0.02755762,-0.3654377,1.324946,-0.1431099,0.1368021,1.334746,-0.05319053,-0.3547612,1.289696,-0.2120703,-0.08560435,1.331075,0.2300705,-0.09708992,1.305033,NA,NA,Unknown,Unknown,
-0.2709961,-0.8134766,0.5703125,-0.300293,0.612793,0.753418,-6,-8,0,0,-1,-5,2,1,-1,-4,-6,-2,-2,-3,-4,3,12.8125,12.8125,12.8125,-1.3125,-1.3125,-1.3125,3.478417,5.28761,3.077581,6.096453,5.497503,2.916344,-0.02838802,-0.08548365,1.179716,0.140283,0.01707684,1.087248,0.02097887,0.427232,1.351208,-0.08163568,-0.0437066,1.147263,0.09467502,0.0245383,1.088241,0.02197337,-0.04014872,1.352635,0.02757094,-0.3654705,1.324881,-0.1430936,0.1367553,1.334533,-0.05319256,-0.3547898,1.289672,-0.2127652,-0.08526018,1.333003,0.2303208,-0.09777991,1.304958,NA,NA,Unknown,Unknown,
-0.2895508,-0.8398438,0.5551758,-0.3095703,0.5981445,0.7509766,-2,1,-5,3,1,0,-8,-3,-4,-4,-5,-4,-7,-4,-2,0,13.5,13.5,13.5,-3.5625,-3.5625,-3.5625,3.484005,5.311269,3.074708,6.094571,5.492861,2.919022,-0.03270845,-0.07881446,1.182578,0.1397333,0.01543917,1.087243,0.02092859,0.4272107,1.351005,-0.07816208,-0.03657348,1.150867,0.101091,0.01174837,1.0935,0.02197524,-0.04018553,1.352585,0.02758909,-0.3655193,1.324858,-0.1430531,0.1366695,1.334334,-0.05318358,-0.3548556,1.289676,-0.2134295,-0.08492713,1.334996,0.230456,-0.09811905,1.304728,NA,NA,Lasso,Unknown,
-0.2749023,-0.8540039,0.5444336,-0.3007813,0.5996094,0.7446289,-1,1,-2,-2,2,-4,0,-4,4,-1,0,-2,-1,-1,0,1,13.0625,13.0625,13.0625,-1.125,-1.125,-1.125,3.495172,5.360731,3.073308,6.092945,5.483934,2.923575,-0.03363512,-0.07315578,1.182355,0.1391565,0.01366889,1.086108,0.02081214,0.4271314,1.350675,-0.08145088,-0.03192613,1.155905,0.1026868,0.00545497,1.092875,0.02199164,-0.040206,1.352518,0.02762929,-0.365573,1.324798,-0.1430112,0.1366197,1.334166,-0.05315766,-0.3549008,1.289607,-0.2133867,-0.08494614,1.33517,0.2304963,-0.09818546,1.304506,NA,NA,Lasso,Unknown,
-0.2856445,-0.8383789,0.5610352,-0.3071289,0.612793,0.7524414,-8,-14,-3,12,-1,3,5,-1,0,-1,3,0,-2,0,1,-1,11.4375,11.4375,11.4375,-1.25,-1.25,-1.25,3.505915,5.408729,3.071879,6.093094,5.474909,2.927574,-0.03350972,-0.06756204,1.183307,0.1379128,0.01168936,1.086771,0.02068434,0.4270879,1.350454,-0.07922494,-0.02438781,1.159696,0.1044222,0.0004698748,1.086889,0.02199135,-0.0402468,1.352446,0.02760744,-0.3656493,1.32473,-0.1429715,0.1364605,1.33393,-0.05318678,-0.3549844,1.289556,-0.2134529,-0.08502083,1.335454,0.2303743,-0.09880605,1.304387,NA,NA,Unknown,Unknown,
-0.3027344,-0.8706055,0.5498047,-0.2802734,0.6293945,0.7509766,-3,6,5,-6,-2,-7,-16,0,0,-1,-4,0,-2,-2,2,3,9.4375,9.4375,9.4375,-2.1875,-2.1875,-2.1875,3.510093,5.453419,3.066313,6.092883,5.463523,2.930717,-0.03252362,-0.06042331,1.182371,0.1358819,0.009358621,1.087267,0.02063867,0.4270855,1.350284,-0.07644095,-0.01563741,1.166042,0.08856609,0.003632852,1.1015,0.02200062,-0.04025517,1.352429,0.02763403,-0.3657032,1.324704,-0.1429589,0.1363968,1.333802,-0.05314996,-0.3550502,1.289521,-0.2133927,-0.0850628,1.335715,0.2302413,-0.09880369,1.3039,NA,NA,Unknown,Unknown,
-0.2885742,-0.8310547,0.574707,-0.2792969,0.6054688,0.7543945,-2,-10,-9,1,3,0,2,-1,-9,2,2,2,-1,-1,-2,-1,12.4375,12.4375,12.4375,-4.8125,-4.8125,-4.8125,3.518747,5.497926,3.061533,6.088588,5.451423,2.933888,-0.03081204,-0.04392786,1.177313,0.1361758,0.007139962,1.088143,0.02061629,0.4271031,1.350246,-0.03313893,0.01122865,1.229643,0.1008678,-0.006858811,1.1008,0.02201098,-0.04026162,1.352382,0.02762846,-0.3656986,1.324681,-0.1433067,0.1375426,1.336825,-0.05315181,-0.3550453,1.289489,-0.212764,-0.08454353,1.335245,0.2302363,-0.0989861,1.303872,NA,NA,NotTracked,Unknown,
-0.331543,-0.8076172,0.5854492,-0.2729492,0.6162109,0.7446289,-1,-9,1,-2,-2,0,-4,2,5,3,0,-1,-1,0,0,-3,11.5,11.5,11.5,-1.4375,-1.4375,-1.4375,3.523114,5.521233,3.057225,6.087744,5.438985,2.939474,-0.03617106,-0.0274814,1.183311,0.1307327,0.004434159,1.089188,0.02055231,0.4270501,1.350107,-0.05449397,0.03306904,1.229304,0.06993382,0.002634493,1.15475,0.02202892,-0.04035636,1.352271,0.02761417,-0.3658653,1.324586,-0.1432047,0.1371403,1.335474,-0.05318169,-0.3552281,1.289342,-0.2122251,-0.08500402,1.334933,0.2301005,-0.09969977,1.304648,NA,NA,NotTracked,NotTracked,
-0.3583984,-0.7895508,0.5556641,-0.2504883,0.6235352,0.7441406,-2,1,0,2,2,2,9,0,-5,1,-1,2,2,-1,-5,-4,11.75,11.75,11.75,-1.875,-1.875,-1.875,3.530974,5.565464,3.04767,6.088175,5.431428,2.943131,0.03876694,-0.0001600266,1.126041,0.1386347,-0.001445251,1.086867,0.02052503,0.4270197,1.350049,0.04201036,0.00489091,1.14675,0.1045221,-0.007507688,1.081643,0.02201896,-0.04035608,1.352201,0.02759568,-0.3658569,1.324562,-0.143789,0.1376713,1.336997,-0.05320954,-0.3552168,1.289252,-0.2111823,-0.08522868,1.333336,0.2300151,-0.0994675,1.304562,NA,NA,NotTracked,NotTracked,
-0.375,-0.7871094,0.5297852,-0.2675781,0.6201172,0.7617188,0,4,-1,4,6,8,16,0,-5,0,-2,5,1,-3,-1,-1,11.0625,11.0625,11.0625,-2.0625,-2.0625,-2.0625,3.533341,5.586653,3.042494,6.088568,5.418037,2.952492,0.04026126,0.004461441,1.12323,0.1391315,-0.0054141,1.088603,0.02056138,0.4269783,1.349959,0.04198847,0.009085751,1.148124,0.09939788,-0.01242106,1.088875,0.02204473,-0.04036473,1.352105,0.02761084,-0.3658795,1.324501,-0.1437846,0.1373102,1.335978,-0.0531843,-0.3552607,1.289104,-0.2097388,-0.0860949,1.331476,0.2297936,-0.09939685,1.304182,NA,NA,NotTracked,NotTracked,
-0.3828125,-0.7299805,0.5605469,-0.2661133,0.628418,0.7597656,1,-4,-5,-2,-4,2,4,0,6,0,1,1,2,2,2,1,-7.875,-7.875,-7.875,-0.75,-0.75,-0.75,3.526983,5.641798,3.035044,6.090811,5.405404,2.961685,0.1111038,0.004109317,1.089264,0.138476,-0.006553889,1.08907,0.02058899,0.4269471,1.34991,0.1338638,-0.02623522,1.075429,0.1058137,-0.01722329,1.08287,0.0220083,-0.04032185,1.352075,0.02758887,-0.3658231,1.324455,-0.1439008,0.1382306,1.337135,-0.05320459,-0.3551431,1.288887,-0.2075015,-0.08613943,1.328033,0.2300249,-0.0994029,1.304747,NA,NA,NotTracked,NotTracked,
-0.4335938,-0.7700195,0.5449219,-0.2431641,0.6396484,0.7661133,3,1,-7,1,0,-1,3,-1,6,0,-3,-3,-3,1,1,-1,-2.375,-2.375,-2.375,-0.6875,-0.6875,-0.6875,3.518515,5.666266,3.031052,6.09303,5.394033,2.969793,0.03755627,0.0114818,1.120323,0.1430469,-0.01197589,1.093078,0.02059443,0.4269308,1.349903,0.09657747,0.00146302,1.054941,0.1200188,-0.02838742,1.087312,0.02198085,-0.04028955,1.352056,0.02753749,-0.3657511,1.324466,-0.1439361,0.1386049,1.337657,-0.05324892,-0.3550513,1.288862,-0.2061652,-0.0862895,1.325074,0.2300756,-0.09893824,1.305016,NA,NA,NotTracked,NotTracked,
-0.4169922,-0.7094727,0.53125,-0.2626953,0.640625,0.7705078,0,2,5,3,1,-12,-13,0,1,-2,-2,-1,0,3,1,1,-5,-5,-5,-6.25,-6.25,-6.25,3.518461,5.678401,3.038327,6.090493,5.387271,2.978207,-0.00285928,0.008434361,1.147554,0.1256578,-0.002185889,1.093336,0.02061967,0.4269391,1.349934,-0.03116019,0.03073099,1.116189,0.07493768,0.04928606,1.123125,0.02196877,-0.04022691,1.352078,0.02749636,-0.3656595,1.324501,-0.1444069,0.1390403,1.338349,-0.0532771,-0.3549245,1.288791,-0.2043151,-0.08657952,1.321686,0.2303522,-0.09849868,1.305912,NA,NA,NotTracked,NotTracked,
-0.418457,-0.7275391,0.543457,-0.2529297,0.6381836,0.7695313,-2,-6,-3,-3,-2,-7,-2,0,-4,-3,-2,0,1,-2,-1,3,-16.1875,-16.1875,-16.1875,-1.875,-1.875,-1.875,3.50932,5.677134,3.051203,6.08922,5.385612,2.984313,-0.02800693,0.01264216,1.134842,-0.005723121,0.01941471,1.129697,0.02062188,0.4269412,1.349942,-0.02938911,0.03652028,1.109306,-0.04830805,-0.009844947,1.115857,0.02194895,-0.04021171,1.352068,0.02751225,-0.3656373,1.324492,-0.1443066,0.1384829,1.336549,-0.05323336,-0.3548785,1.288702,-0.2015784,-0.08785711,1.317361,0.2300837,-0.09803708,1.305758,NA,NA,NotTracked,NotTracked,
-0.3662109,-0.762207,0.5268555,-0.2558594,0.6318359,0.7597656,0,1,1,0,-7,0,-8,-3,1,4,1,1,3,2,0,0,-14.875,-14.875,-14.875,-5.0625,-5.0625,-5.0625,3.499725,5.663988,3.077113,6.087087,5.387124,2.989824,-0.01585011,0.01082743,1.142698,0.1244798,-0.003849833,1.094145,0.02065169,0.4269774,1.349977,-0.03706351,0.003495873,1.097968,0.08247939,0.0001203027,1.104667,0.02195459,-0.04017796,1.352076,0.02752972,-0.3655969,1.324528,-0.1442924,0.1381735,1.335658,-0.05320166,-0.3548386,1.288677,-0.1990778,-0.08878175,1.313847,0.2306624,-0.09728492,1.307718,NA,NA,NotTracked,NotTracked,
-0.3354492,-0.7470703,0.5234375,-0.2773438,0.6264648,0.7495117,-2,2,15,-2,2,0,3,-1,4,-2,-3,-1,1,1,-1,0,-14.5,-14.5,-14.5,-3.875,-3.875,-3.875,3.496456,5.652586,3.090411,6.084432,5.393575,2.99328,-0.01853669,0.01267795,1.13352,0.1235309,-0.003727022,1.094768,0.02065241,0.426992,1.350059,-0.03668267,0.001779604,1.090673,0.07138649,0.007009057,1.103667,0.0219631,-0.04017646,1.352073,0.02753513,-0.3655923,1.324529,-0.1442427,0.1378591,1.334615,-0.05318464,-0.354829,1.288657,-0.1980175,-0.08930846,1.310818,0.2310116,-0.09670871,1.308972,NA,NA,NotTracked,NotTracked,
-0.296875,-0.7495117,0.6064453,-0.2729492,0.6274414,0.7578125,-4,2,8,4,-4,-7,-13,0,0,-2,-2,-3,-3,-2,0,2,-21.3125,-21.3125,-21.3125,-2.1875,-2.1875,-2.1875,3.486466,5.620485,3.11584,6.083601,5.397229,2.993873,-0.02018101,0.01372012,1.121321,0.1235398,-0.002819148,1.095698,0.02068675,0.4270369,1.350185,-0.02852507,-0.002286683,1.078579,0.08316194,-0.006725173,1.100286,0.02197614,-0.04016403,1.352085,0.02755275,-0.3655849,1.324543,-0.1440243,0.1375508,1.333701,-0.05315245,-0.3548263,1.288641,-0.1972255,-0.08972725,1.308754,0.2310129,-0.0949076,1.308855,NA,NA,NotTracked,NotTracked,
-0.3413086,-0.8344727,0.5361328,-0.2768555,0.6289063,0.7548828,-5,-3,-3,1,1,5,1,-1,-1,-2,-3,-2,-2,0,-2,-4,-13.4375,-13.4375,-13.4375,-2.625,-2.625,-2.625,3.475538,5.584071,3.13589,6.081815,5.40562,2.992658,-0.02323808,0.006597411,1.110283,0.1082375,0.01210701,1.093319,0.02082663,0.4270646,1.350345,-0.03353793,-0.009779629,1.067937,0.06656218,0.01050443,1.0933,0.021974,-0.04008595,1.352135,0.02755214,-0.3654398,1.324604,-0.1439286,0.1381682,1.334497,-0.05312779,-0.3546303,1.288594,-0.2211146,-0.1266345,1.317746,0.2336024,-0.09011137,1.313565,NA,NA,NotTracked,NotTracked,
-0.2324219,-0.777832,0.5932617,-0.2768555,0.6289063,0.7548828,6,2,-5,1,-1,6,14,-4,0,4,6,1,1,-3,-1,-5,-13.25,-13.25,-13.25,-2.625,-2.625,-2.625,3.469135,5.540542,3.154642,6.081815,5.40562,2.992658,-0.0228058,0.003475414,1.101607,0.1092325,0.01225245,1.093197,0.02086926,0.4270694,1.350365,-0.02776414,-0.01994547,1.063567,0.06583805,0.01016592,1.1125,0.02198671,-0.03997262,1.352157,0.02760565,-0.3651456,1.324724,-0.1439176,0.1386117,1.335168,-0.05304194,-0.3543956,1.288688,-0.2211617,-0.1266041,1.317792,0.2334219,-0.0899456,1.314181,NA,NA,NotTracked,NotTracked,
-0.3183594,-0.8457031,0.5507813,-0.284668,0.6176758,0.7402344,4,6,8,1,2,3,3,-5,-4,-1,0,0,-1,0,-1,1,-14.75,-14.75,-14.75,-0.4375,-0.4375,-0.4375,3.457283,5.498021,3.164839,6.079779,5.420634,2.987885,-0.02740994,-0.003416696,1.097902,-0.01941983,-0.00122626,1.088098,0.02098492,0.4270832,1.35045,-0.02861922,-0.02767724,1.06045,-0.04787904,-0.02689902,1.076875,0.0220016,-0.03995555,1.352221,0.02769278,-0.3650692,1.324922,-0.1440891,0.1390179,1.336121,-0.05293456,-0.354311,1.28886,-0.1974875,-0.08783372,1.303445,0.2328481,-0.09041981,1.313663,NA,NA,NotTracked,NotTracked,
-0.2368164,-0.8408203,0.5913086,-0.2880859,0.6069336,0.7480469,1,-5,-9,-3,-2,9,14,1,1,1,1,3,2,1,2,0,-6.0625,-6.0625,-6.0625,0.625,0.625,0.625,3.448188,5.450745,3.17234,6.079429,5.434155,2.980255,-0.04012983,-0.01334229,1.100211,-0.01978424,-0.008680232,1.086242,0.02105501,0.4270998,1.350516,-0.01422151,-0.04129611,1.074143,-0.03856272,-0.03580836,1.068636,0.02199799,-0.0399024,1.352259,0.02770613,-0.3649424,1.325008,-0.1440082,0.1391194,1.336417,-0.05290017,-0.3541993,1.288933,-0.1974778,-0.08769618,1.303472,0.2322187,-0.09013598,1.313086,NA,NA,NotTracked,NotTracked,
-0.2441406,-0.809082,0.5864258,-0.2851563,0.6152344,0.7416992,-1,-3,-8,-2,-2,-1,-10,-3,-3,-2,-1,-2,1,-1,-1,2,-4.1875,-4.1875,-4.1875,1.1875,1.1875,1.1875,3.447862,5.429875,3.174453,6.080212,5.441164,2.974742,-0.04099908,-0.01857946,1.099358,-0.02159274,-0.01633301,1.084633,0.02111824,0.4271,1.350516,-0.01830407,-0.04728229,1.067857,-0.04395194,-0.04055969,1.069875,0.02198759,-0.03987516,1.35223,0.02771601,-0.3649277,1.324993,-0.144013,0.1391665,1.336542,-0.0528803,-0.3541765,1.288886,-0.2328442,-0.1353318,1.313492,0.2310555,-0.09067401,1.31206,NA,NA,NotTracked,NotTracked,
-0.2836914,-0.8447266,0.5380859,-0.2954102,0.5996094,0.7460938,-14,-4,-5,-4,0,-3,-2,-2,2,-2,-4,-1,0,-3,-4,0,-16.5,-16.5,-16.5,2.25,2.25,2.25,3.43331,5.389923,3.178049,6.080842,5.447347,2.968982,-0.03094373,-0.02640152,1.102207,0.1199098,0.0093828,1.096891,0.02116671,0.4271082,1.350549,-0.0419648,-0.04345791,1.062042,0.07481343,0.01711137,1.110333,0.02201191,-0.03985759,1.35228,0.02777569,-0.3648609,1.325119,-0.1436734,0.1386116,1.335294,-0.05280766,-0.3541388,1.288971,-0.1992756,-0.08796813,1.307615,0.2308623,-0.09086893,1.31183,NA,NA,NotTracked,NotTracked,
-0.2158203,-0.8881836,0.5859375,-0.2924805,0.6108398,0.7495117,2,-2,-2,-4,-7,1,-2,2,2,-3,-3,0,-2,0,1,3,-5.5,-5.5,-5.5,2.5625,2.5625,2.5625,3.42124,5.346086,3.180494,6.081669,5.449602,2.966507,0.0999751,0.005565336,1.095423,-0.03363863,-0.03222103,1.095626,0.02131854,0.4271982,1.350545,0.09414203,0.03260397,1.066905,-0.06850667,-0.01262154,1.113875,0.02208062,-0.03976074,1.352359,0.02784791,-0.3647115,1.325204,-0.1435445,0.1388061,1.335935,-0.05271278,-0.354001,1.289049,-0.1999979,-0.08756536,1.308533,0.23057,-0.0912839,1.311439,NA,NA,NotTracked,NotTracked,
-0.2265625,-0.8666992,0.5668945,-0.2944336,0.6020508,0.7529297,-1,-2,4,-4,1,-5,-6,0,1,-3,-5,-4,0,1,0,1,2.1875,2.1875,2.1875,0.375,0.375,0.375,3.423341,5.30808,3.181493,6.081422,5.452615,2.96167,0.1189361,0.007341682,1.096336,-0.03560636,-0.04001557,1.097274,0.02143061,0.4271627,1.350496,0.09710902,0.03255911,1.066274,-0.06818409,-0.01613416,1.118409,0.02210762,-0.03974742,1.352387,0.02789615,-0.3647189,1.325256,-0.1431744,0.1380611,1.334661,-0.05266176,-0.353996,1.289077,-0.2002971,-0.08821189,1.309278,0.2305143,-0.09116929,1.311314,NA,NA,NotTracked,NotTracked,
-0.2265625,-0.8666992,0.5668945,-0.2944336,0.6020508,0.7529297,-1,-2,4,-4,1,-5,-6,0,1,-3,-5,-4,0,1,0,1,2.1875,2.1875,2.1875,0.375,0.375,0.375,3.423341,5.30808,3.181493,6.081422,5.452615,2.96167,0.122287,0.007032273,1.096404,-0.03630422,-0.04612709,1.099369,0.02155914,0.4271857,1.350496,0.08143572,0.02663726,1.091417,-0.06810449,-0.02250984,1.12,0.02209478,-0.03972615,1.352414,0.02791433,-0.3646828,1.325306,-0.1434354,0.1383917,1.336027,-0.05263584,-0.353939,1.289151,-0.1760737,-0.1015689,1.249948,0.2303966,-0.09139499,1.311241,NA,NA,NotTracked,NotTracked,
-0.190918,-0.8730469,0.5581055,-0.2939453,0.6020508,0.7475586,-2,6,6,1,0,0,-2,-3,-4,2,4,0,-4,-4,-3,1,-1.0625,-1.0625,-1.0625,1.0625,1.0625,1.0625,3.422488,5.271451,3.181189,6.081376,5.453933,2.959023,0.02324459,-0.03269393,1.097921,-0.03706183,-0.05209777,1.102771,0.02159336,0.4271658,1.350497,0.02980132,-0.03456889,1.18825,-0.0654171,-0.02474014,1.1256,0.02211464,-0.03972265,1.352433,0.02796315,-0.3646925,1.325342,-0.1432167,0.1379701,1.335097,-0.05259891,-0.3539486,1.28918,-0.2077515,-0.0863027,1.320461,0.2302931,-0.0917984,1.311244,NA,NA,NotTracked,NotTracked,
-0.1694336,-0.8701172,0.5458984,-0.2905273,0.6147461,0.7539063,2,4,3,0,-3,-3,-3,1,-4,-4,-5,-1,2,0,1,3,-5,-5,-5,1.6875,1.6875,1.6875,3.417132,5.238442,3.177504,6.082519,5.456699,2.950952,-0.01922308,-0.06012959,1.100687,-0.01190126,-0.05637399,1.09465,0.02164261,0.4271734,1.350464,0.01334459,-0.07514886,1.110286,-0.01175818,-0.03443984,1.069929,0.02211399,-0.03972108,1.352432,0.02799172,-0.3646941,1.32537,-0.1430445,0.1377215,1.33443,-0.05258051,-0.3539469,1.2892,-0.2077063,-0.08650046,1.320531,0.2309082,-0.0912732,1.312389,NA,NA,NotTracked,NotTracked,
-0.168457,-0.8759766,0.534668,-0.300293,0.6074219,0.7480469,3,3,7,2,3,-5,-5,2,-1,-1,-2,-2,0,1,1,1,-13.0625,-13.0625,-13.0625,-0.75,-0.75,-0.75,3.40872,5.22422,3.175279,6.080876,5.458676,2.945982,-0.03743379,-0.06549779,1.10993,-0.011934,-0.06059336,1.09809,0.02176718,0.4271405,1.350317,-0.03679291,-0.09357269,1.08025,-0.02156293,-0.03847023,1.0803,0.02214451,-0.03972752,1.352421,0.02805031,-0.3647042,1.325385,-0.1430126,0.1374887,1.333913,-0.05253402,-0.3539616,1.289226,-0.2075559,-0.0867497,1.320847,0.2307578,-0.0906146,1.311497,NA,NA,NotTracked,NotTracked,
-0.1650391,-0.902832,0.527832,-0.2905273,0.6020508,0.7436523,4,6,11,3,2,-1,2,2,5,0,5,2,5,0,-1,1,-21.3125,-21.3125,-21.3125,0.5625,0.5625,0.5625,3.382866,5.197606,3.173059,6.079361,5.460133,2.941103,-0.03880972,-0.07130443,1.114889,-0.01198183,-0.06773015,1.100653,0.02181245,0.4271191,1.350243,-0.04308153,-0.09435232,1.080189,-0.01753122,-0.04812018,1.078412,0.02212729,-0.03972769,1.352413,0.02806475,-0.3647058,1.325376,-0.1429502,0.1372944,1.333496,-0.05252815,-0.3539661,1.28923,-0.2078798,-0.08679436,1.321646,0.2300995,-0.09193428,1.310945,NA,NA,NotTracked,NotTracked,
-0.1411133,-0.934082,0.5498047,-0.3007813,0.6137695,0.7412109,1,-1,-5,-6,-2,4,1,-1,6,0,0,-2,-4,-2,-1,-1,-11.4375,-11.4375,-11.4375,1.3125,1.3125,1.3125,3.364819,5.166853,3.169311,6.080381,5.462068,2.936845,-0.04040841,-0.07677795,1.118739,-0.01414485,-0.07354053,1.105372,0.02183993,0.4271237,1.350207,-0.005444824,-0.1058843,1.11225,-0.02164106,-0.0527158,1.085786,0.02215042,-0.03973775,1.35241,0.0280925,-0.3647106,1.325406,-0.1428155,0.1371357,1.333209,-0.05249386,-0.3539931,1.289312,-0.2085105,-0.08665439,1.323254,0.2292467,-0.09376933,1.31042,NA,NA,NotTracked,NotTracked,
-0.1538086,-0.9257813,0.5615234,-0.2944336,0.6074219,0.7382813,-2,0,0,0,2,3,5,-1,-6,0,2,-3,-8,-4,-5,0,-2.4375,-2.4375,-2.4375,1.25,1.25,1.25,3.36058,5.14214,3.166111,6.080883,5.46278,2.935066,-0.0446252,-0.0816318,1.122435,-0.01510134,-0.0797952,1.110075,0.02187812,0.4270746,1.350059,-0.02923609,-0.1177701,1.101727,-0.0267001,-0.05650677,1.094545,0.02216748,-0.03976695,1.352406,0.02811091,-0.364742,1.325432,-0.1427813,0.137098,1.333104,-0.05248128,-0.3540369,1.289378,-0.2098306,-0.08616514,1.325551,0.2289851,-0.09445737,1.309277,NA,NA,NotTracked,NotTracked,
-0.1166992,-0.9077148,0.5727539,-0.2939453,0.6035156,0.7412109,1,14,13,5,-1,-6,-2,-5,0,1,-3,-3,-5,-1,0,-1,1.9375,1.9375,1.9375,1.625,1.625,1.625,3.362553,5.122335,3.165091,6.081597,5.463243,2.933441,-0.04615368,-0.08501853,1.125733,-0.01636179,-0.08520116,1.113623,0.02188715,0.4270509,1.350009,-0.0366232,-0.1211986,1.100818,-0.02287776,-0.06544924,1.088067,0.02216046,-0.03977732,1.352394,0.02811146,-0.36476,1.325431,-0.1427613,0.1370389,1.332962,-0.05249026,-0.354074,1.289413,-0.2105237,-0.08587895,1.32756,0.2296882,-0.09614866,1.310502,NA,NA,NotTracked,NotTracked,
-0.15625,-0.918457,0.5654297,-0.3037109,0.6088867,0.7456055,-1,1,7,6,2,2,-1,2,5,1,0,0,-1,-2,-1,0,3.5,3.5,3.5,1.8125,1.8125,1.8125,3.367032,5.112014,3.161823,6.084094,5.462236,2.928238,-0.04815209,-0.08797012,1.128445,-0.01544877,-0.0894297,1.117021,0.02193914,0.4270438,1.349882,-0.04447886,-0.1191459,1.098833,-0.0253115,-0.06617703,1.095167,0.02221257,-0.03983917,1.352286,0.02811844,-0.3647777,1.325403,-0.1426964,0.1369856,1.33272,-0.05249301,-0.3540877,1.289422,-0.2112953,-0.08553579,1.329296,0.2294689,-0.09635615,1.310087,NA,NA,NotTracked,NotTracked,
-0.1386719,-0.9443359,0.5644531,-0.2944336,0.5981445,0.7431641,-1,0,2,-2,-4,-3,-2,-2,0,0,2,1,1,2,0,-5,3.5625,3.5625,3.5625,0.75,0.75,0.75,3.368649,5.110141,3.161444,6.084038,5.458135,2.924497,-0.04988974,-0.08927594,1.132059,-0.01555267,-0.09075157,1.120261,0.02195222,0.4270901,1.349719,-0.04291977,-0.121812,1.102312,-0.02585327,-0.06928405,1.097,0.02221313,-0.03983992,1.352284,0.02813042,-0.3647846,1.325409,-0.1426331,0.1369676,1.332566,-0.05248252,-0.354112,1.289497,-0.2117208,-0.08518505,1.331875,0.2294322,-0.09686048,1.310312,NA,NA,NotTracked,NotTracked,
-0.1357422,-0.8935547,0.6025391,-0.2880859,0.605957,0.7392578,1,-1,-3,-4,-2,-1,0,1,-3,-1,-3,-2,-2,-2,-1,1,14.0625,14.0625,14.0625,2.25,2.25,2.25,3.382557,5.114977,3.158908,6.084979,5.452726,2.920822,-0.05013943,-0.08965021,1.139822,-0.01846929,-0.09125082,1.129293,0.02199927,0.4270296,1.349489,-0.05220564,-0.1141915,1.106572,-0.02922396,-0.06787039,1.114917,0.02219602,-0.03986637,1.35224,0.02815581,-0.364819,1.3254,-0.1425731,0.1369132,1.332356,-0.05248388,-0.3541691,1.289554,-0.2131487,-0.0844419,1.335029,0.2295487,-0.09856122,1.310683,NA,NA,NotTracked,NotTracked,
-0.1455078,-0.8671875,0.5839844,-0.2944336,0.5957031,0.7436523,-1,3,1,-1,2,1,-1,6,1,1,2,0,1,1,0,-1,15.4375,15.4375,15.4375,0.4375,0.4375,0.4375,3.40221,5.126626,3.150068,6.085181,5.446031,2.91798,-0.04946187,-0.08817361,1.142989,-0.01634651,-0.0898513,1.132038,0.02200049,0.4268779,1.349086,-0.05042149,-0.1142544,1.109062,-0.02039224,-0.06779996,1.105188,0.02220155,-0.03988224,1.352223,0.02817405,-0.3648325,1.325406,-0.1425319,0.1368896,1.33228,-0.05246827,-0.3541993,1.28962,-0.2135232,-0.08426235,1.335591,0.2297294,-0.09842534,1.310792,NA,NA,NotTracked,NotTracked,
-0.1713867,-0.8564453,0.5571289,-0.2910156,0.5917969,0.7485352,1,-2,6,1,-3,2,0,0,-4,-3,-5,-3,-8,-2,-2,-2,9.4375,9.4375,9.4375,0.1875,0.1875,0.1875,3.421205,5.159007,3.139054,6.084513,5.437359,2.916383,-0.04737941,-0.08563851,1.146966,-0.03561506,-0.0911813,1.137868,0.02201089,0.4268402,1.348957,-0.02304739,-0.12092,1.13,-0.02019838,-0.0649012,1.113619,0.02219083,-0.03989257,1.352206,0.02817997,-0.3648625,1.325413,-0.1425101,0.1368584,1.332212,-0.05247538,-0.3542684,1.289694,-0.2140197,-0.08401738,1.336488,0.2298053,-0.09840103,1.310811,NA,NA,NotTracked,NotTracked,
-0.1577148,-0.8598633,0.5668945,-0.2597656,0.6132813,0.7612305,1,1,-5,-3,-3,-3,-5,0,-6,-2,0,0,0,2,-1,0,9.75,9.75,9.75,1,1,1,3.426342,5.170335,3.136567,6.08544,5.426692,2.915946,-0.03449429,-0.09647913,1.168375,0.1367303,0.001664076,1.0892,0.02190761,0.4268087,1.348648,-0.02245327,-0.1533532,1.193187,0.1700223,0.0113863,1.066471,0.02224093,-0.03993178,1.352178,0.02820263,-0.3648908,1.325418,-0.1424496,0.1368525,1.332106,-0.05246042,-0.3543214,1.289754,-0.2142788,-0.08377743,1.337625,0.2296791,-0.09964025,1.310574,NA,NA,NotTracked,Unknown,
-0.1855469,-0.8730469,0.5410156,-0.25,0.621582,0.7685547,2,3,3,4,-2,3,6,0,-6,-1,-2,1,2,-1,-3,2,10.25,10.25,10.25,0.0625,0.0625,0.0625,3.435582,5.192737,3.13159,6.085385,5.421253,2.916167,-0.02557946,-0.09159286,1.176999,0.1357258,-0.001004546,1.088688,0.02184694,0.4267398,1.3485,-0.01830912,-0.1519945,1.192227,0.1688536,0.008228208,1.06463,0.02226636,-0.03997263,1.352138,0.02822092,-0.3649445,1.325399,-0.1424539,0.1368315,1.33202,-0.05245364,-0.3543644,1.289745,-0.2145271,-0.08349012,1.339428,0.2295591,-0.1000976,1.310088,NA,NA,Lasso,Unknown,
-0.1386719,-0.875,0.5224609,-0.2719727,0.6108398,0.7729492,0,0,-7,-1,-2,-1,0,1,-4,-1,-4,-2,-3,-3,-2,0,6.25,6.25,6.25,-1.0625,-1.0625,-1.0625,3.44001,5.212435,3.132908,6.083778,5.41338,2.917314,-0.02506478,-0.08975834,1.176608,0.1331659,-0.002849511,1.088909,0.02184853,0.4266201,1.348106,-0.01848703,-0.1517427,1.192005,0.1686626,0.008294885,1.063906,0.02230483,-0.04002881,1.352045,0.02827147,-0.3650033,1.325344,-0.1424155,0.1367988,1.331932,-0.05243311,-0.3544147,1.289726,-0.2145267,-0.08349074,1.339496,0.2295499,-0.1001368,1.310065,NA,NA,Lasso,Unknown,
-0.1469727,-0.8754883,0.5258789,-0.2548828,0.6264648,0.7680664,-5,-3,-9,-4,-4,-2,-3,-2,-1,-1,-4,0,1,0,-1,1,4.75,4.75,4.75,-1.25,-1.25,-1.25,3.442194,5.228143,3.134769,6.083432,5.406391,2.918235,-0.02739325,-0.08671594,1.174407,0.131537,-0.005263031,1.09093,0.02186923,0.4266098,1.347927,-0.01928586,-0.147329,1.193735,0.1686588,0.01050625,1.065202,0.0222851,-0.04008556,1.351965,0.0282805,-0.3650502,1.325306,-0.1423941,0.1367929,1.33189,-0.05243505,-0.3544526,1.2897,-0.2142757,-0.08355612,1.339603,0.2295049,-0.1003315,1.309948,NA,NA,NotTracked,Unknown,
-0.1450195,-0.8759766,0.5361328,-0.2426758,0.6230469,0.7797852,-2,1,-8,-4,0,-7,-8,0,-2,2,0,-2,-1,0,-1,0,6.625,6.625,6.625,-3.0625,-3.0625,-3.0625,3.445101,5.238126,3.135231,6.080758,5.401414,2.919466,-0.02539704,-0.08188518,1.176384,0.1308297,-0.00616838,1.089943,0.02194463,0.4265442,1.347693,-0.01502443,-0.1406377,1.193588,0.06955072,-0.06589323,1.130286,0.02232992,-0.0401523,1.351941,0.02833369,-0.3651544,1.325329,-0.1423473,0.1367578,1.331794,-0.05239784,-0.3545685,1.289731,-0.2141123,-0.08358844,1.339844,0.2293462,-0.1005759,1.309617,NA,NA,NotTracked,NotTracked,
-0.1430664,-0.8583984,0.5561523,-0.2626953,0.6142578,0.7587891,-12,-5,-5,-2,2,-1,-1,0,-13,-4,-4,-4,-2,-2,-1,-2,0.8125,0.8125,0.8125,-3.25,-3.25,-3.25,3.446193,5.246737,3.135955,6.077517,5.400461,2.920511,-0.02484092,-0.08149836,1.175235,0.1302488,-0.006761848,1.090877,0.02203397,0.4263738,1.3474,-0.01421352,-0.139811,1.193575,0.07076528,-0.06432346,1.132022,0.02231918,-0.04021324,1.351868,0.02835251,-0.3652071,1.325289,-0.1422733,0.136736,1.331713,-0.05239093,-0.3546128,1.289719,-0.2137419,-0.08369691,1.339873,0.2292861,-0.1008143,1.309525,NA,NA,NotTracked,NotTracked,
-0.1533203,-0.8642578,0.5610352,-0.2543945,0.6274414,0.762207,-5,-5,1,-1,-2,-3,-3,-2,1,1,1,-1,1,0,1,1,-0.125,-0.125,-0.125,-2.125,-2.125,-2.125,3.445431,5.25016,3.136023,6.076064,5.40028,2.920147,-0.0251896,-0.07927558,1.174575,0.1306269,-0.005847832,1.090776,0.02209064,0.4263535,1.347323,-0.01512481,-0.1383523,1.19464,0.06955326,-0.06204416,1.129969,0.02234444,-0.04025584,1.35184,0.02837689,-0.3653158,1.325268,-0.1422488,0.1366898,1.331671,-0.05237673,-0.3547155,1.289748,-0.2132098,-0.08389047,1.340008,0.2294157,-0.09743662,1.308445,NA,NA,NotTracked,NotTracked,
-0.1640625,-0.8574219,0.5727539,-0.2578125,0.6245117,0.7583008,-4,0,-2,1,6,4,14,2,1,-2,-1,-4,-9,-3,-3,-4,2.1875,2.1875,2.1875,-2.8125,-2.8125,-2.8125,3.446151,5.253369,3.135014,6.074986,5.400275,2.920043,-0.02698657,-0.07771767,1.173101,0.1302867,-0.006205648,1.091594,0.02218285,0.4263448,1.347268,-0.01638049,-0.1366042,1.196101,0.07046627,-0.06023277,1.130367,0.02236593,-0.04027629,1.351831,0.02839627,-0.3653469,1.32528,-0.1422443,0.1366822,1.331661,-0.05236411,-0.3547446,1.289762,-0.21294,-0.08399908,1.3399,0.2293663,-0.09747364,1.308346,NA,NA,NotTracked,NotTracked,
-0.1586914,-0.8330078,0.5791016,-0.2670898,0.6245117,0.7578125,1,0,7,-1,-3,3,-4,3,14,-4,-7,-2,-3,0,0,5,-2.125,-2.125,-2.125,-0.125,-0.125,-0.125,3.445951,5.254811,3.133847,6.074336,5.401138,2.918454,-0.02747841,-0.07638133,1.172349,0.130304,-0.006622486,1.093038,0.02218757,0.4263397,1.347258,-0.01714769,-0.1349546,1.196968,0.07153983,-0.05934558,1.133317,0.02314808,-0.04026462,1.351408,0.02848635,-0.3654166,1.32528,-0.142227,0.1366718,1.331631,-0.05226971,-0.3548313,1.289792,-0.2128123,-0.08405659,1.339791,0.2292889,-0.09756956,1.308233,NA,NA,NotTracked,NotTracked,
-0.1777344,-0.8608398,0.5742188,-0.2641602,0.6210938,0.7573242,0,11,26,-1,-2,-1,-2,-1,-2,-1,-1,0,-2,-1,1,4,-3.875,-3.875,-3.875,0.25,0.25,0.25,3.441214,5.256405,3.132504,6.075129,5.401849,2.916643,-0.02807504,-0.07534637,1.172042,0.1311899,-0.006655518,1.092483,0.02223524,0.4262922,1.347187,-0.01694864,-0.1349887,1.19662,0.07155286,-0.05949783,1.134033,0.02314636,-0.04030204,1.351389,0.02851872,-0.3654673,1.325278,-0.142221,0.136655,1.331579,-0.05224494,-0.3548784,1.289779,-0.2128662,-0.08405731,1.339709,0.2292908,-0.09758952,1.308235,NA,NA,NotTracked,NotTracked,
-0.1962891,-0.8554688,0.5825195,-0.262207,0.6176758,0.753418,-1,-2,9,1,-3,-2,0,0,0,-1,-3,-3,0,-3,-4,1,1.875,1.875,1.875,0.75,0.75,0.75,3.44234,5.259453,3.134065,6.076255,5.402606,2.914495,-0.02879734,-0.07395819,1.170835,0.131247,-0.006655272,1.093067,0.02234558,0.426233,1.347069,-0.01290904,-0.1269025,1.197,0.06917521,-0.03321438,1.119833,0.02319887,-0.04038819,1.351361,0.0285501,-0.3655148,1.325277,-0.1421527,0.1366277,1.331481,-0.05222297,-0.3549145,1.289769,-0.2129134,-0.08404206,1.339646,0.2293065,-0.09783568,1.308173,NA,NA,NotTracked,NotTracked,
-0.1826172,-0.8432617,0.5834961,-0.2734375,0.6098633,0.7631836,2,-4,-6,-2,1,0,-4,2,-1,1,-1,-1,-2,-1,-4,-2,2.75,2.75,2.75,1.3125,1.3125,1.3125,3.444577,5.26048,3.134938,6.076776,5.403155,2.911851,-0.02704159,-0.07565731,1.172671,0.1323034,-0.005586282,1.092282,0.02242168,0.4261879,1.347003,-0.01541059,-0.1348991,1.195712,0.070149,-0.05612002,1.133125,0.02320679,-0.04044038,1.35132,0.02861429,-0.3655631,1.325232,-0.1421423,0.1365761,1.331396,-0.05217361,-0.3549623,1.289712,-0.2129309,-0.08409505,1.339475,0.2291774,-0.09821931,1.308276,NA,NA,NotTracked,NotTracked,
-0.1879883,-0.8305664,0.5869141,-0.2587891,0.6147461,0.7602539,-1,1,16,3,-3,1,4,2,1,-2,-1,-4,-2,-2,-2,-4,0.5625,0.5625,0.5625,0.9375,0.9375,0.9375,3.447742,5.263568,3.137093,6.077292,5.402769,2.910567,-0.02868717,-0.07319815,1.171119,0.1326012,-0.005136853,1.091604,0.02245237,0.4262002,1.346993,-0.01550616,-0.1292073,1.197846,0.07041422,-0.0546202,1.130837,0.02321103,-0.04045962,1.351329,0.02863473,-0.3655866,1.325234,-0.1421058,0.1365453,1.331319,-0.05215244,-0.3549844,1.289718,-0.2130192,-0.08407882,1.339443,0.2291696,-0.09818374,1.308278,NA,NA,NotTracked,NotTracked,
-0.2060547,-0.8505859,0.5717773,-0.2685547,0.6098633,0.7597656,-17,-8,8,-2,-2,-5,1,0,-2,-1,1,0,-4,-2,-2,0,2.9375,2.9375,2.9375,0.625,0.625,0.625,3.450652,5.268208,3.140567,6.077573,5.402889,2.909755,-0.02815999,-0.07128438,1.169391,0.1331086,-0.005386706,1.091641,0.0225282,0.4261714,1.346865,-0.01630906,-0.126497,1.198167,0.07009025,-0.05346232,1.131921,0.02322146,-0.04048635,1.351298,0.02869352,-0.3656362,1.325194,-0.1420649,0.1365352,1.331248,-0.05210073,-0.3550317,1.289662,-0.2130518,-0.08407261,1.339312,0.2292624,-0.09827202,1.308486,NA,NA,NotTracked,NotTracked,
-0.1860352,-0.8378906,0.5756836,-0.2763672,0.6049805,0.7490234,1,-3,-8,-3,-2,2,-1,0,-4,-2,-1,-3,-5,-2,-2,1,3.625,3.625,3.625,0.4375,0.4375,0.4375,3.455972,5.269864,3.144941,6.077791,5.403297,2.909833,-0.02774365,-0.07104797,1.169997,0.1341293,-0.00466581,1.091594,0.02258257,0.426129,1.346776,-0.01714304,-0.1293507,1.198051,0.06811304,-0.05048301,1.127397,0.0232377,-0.04051084,1.351285,0.02872251,-0.3656454,1.32517,-0.1420099,0.1365376,1.331179,-0.05207685,-0.3550299,1.289623,-0.212968,-0.08411507,1.338969,0.2293602,-0.09904463,1.308782,NA,NA,NotTracked,NotTracked,
-0.1850586,-0.8583984,0.5615234,-0.2553711,0.6108398,0.7543945,0,-1,10,-2,2,-3,-1,0,4,-3,-1,-1,-4,-4,-1,-1,0.3125,0.3125,0.3125,-0.0625,-0.0625,-0.0625,3.456357,5.271926,3.149827,6.078314,5.402412,2.910622,-0.02826156,-0.07074145,1.169167,0.1335247,-0.005017198,1.092037,0.02261945,0.4261213,1.346714,-0.01699938,-0.129327,1.197808,0.0684067,-0.05032073,1.128545,0.02323651,-0.04051399,1.35129,0.02874796,-0.365651,1.325171,-0.1420011,0.1365249,1.331151,-0.05205796,-0.3550345,1.289619,-0.212893,-0.08414525,1.338977,0.2294695,-0.09915052,1.309054,NA,NA,NotTracked,NotTracked,
-0.1875,-0.8652344,0.5625,-0.2719727,0.6030273,0.7607422,4,-4,-1,-1,-5,0,-8,1,5,-1,0,-1,-3,0,2,0,1.0625,1.0625,1.0625,-0.8125,-0.8125,-0.8125,3.456239,5.272659,3.151932,6.077308,5.402172,2.911505,-0.02774747,-0.06994988,1.168629,0.1324051,-0.005998432,1.091917,0.02265513,0.4260948,1.346696,-0.01595527,-0.1282364,1.197699,0.07351796,-0.02026189,1.109778,0.02325403,-0.04055536,1.351265,0.02877,-0.3656872,1.325159,-0.1419532,0.1364928,1.331111,-0.05203846,-0.3550798,1.28958,-0.2127783,-0.08419727,1.338957,0.2295036,-0.09910464,1.308982,NA,NA,NotTracked,NotTracked,
