ALX,ALY,ALZ,ARX,ARY,ARZ,EMG0L,EMG1L,EMG2L,EMG3L,EMG4L,EMG5L,EMG6L,EMG7L,EMG0R,EMG1R,EMG2R,EMG3R,EMG4R,EMG5R,EMG6R,EMG7R,GLX,GLY,GLZ,GRX,GRY,GRZ,ORL,OPL,OYL,ORR,OPR,OYR,LHNX,LHNY,LHNZ,RHNX,RHNY,RHNZ,HX,HY,HZ,LTX,LTY,LTZ,RTX,RTY,RTZ,SpineMidX,SpineMidY,SpineMidZ,SpineBaseX,SpineBaseY,SpineBaseZ,ShoulderLeftX,ShoulderLeftY,ShoulderLeftZ,ShoulderRightX,ShoulderRightY,ShoulderRightZ,ElbowLeftX,ElbowLeftY,ElbowLeftZ,ElbowRightX,ElbowRightY,ElbowRightZ,Myo_Pose_left,Myo_Pose_Right,Kinect_pose_left,Kinect_pose_right
0.9282227,-0.3139648,-0.01953125,0.9282227,0.4462891,0.09423828,0,-1,-1,-2,-2,-1,0,3,-20,-4,-12,-1,-2,-1,-1,-2,7.3125,7.3125,7.3125,15.9375,15.9375,15.9375,2.279888,3.024676,7.973563,7.375072,3.113413,4.458869,-0.1433787,-0.4694417,1.251024,0.2495229,-0.4573264,1.229844,0.07191575,0.3073399,1.308751,-0.09317186,-0.4606164,1.225222,0.287701,-0.4654647,1.210286,0.06867303,-0.1049036,1.334043,0.06870787,-0.3988627,1.314415,-0.1045119,0.05500834,1.307526,-0.00625202,-0.3888951,1.28301,-0.1358785,-0.1979561,1.312559,0.2658222,-0.1907158,1.319105,NA,NA,NotTracked,NotTracked,
0.9160156,-0.3120117,-0.02099609,1.061035,0.5688477,0.2714844,-4,-1,0,0,0,-1,0,-2,-12,-1,9,5,-3,-2,-2,2,1.9375,1.9375,1.9375,37.125,37.125,37.125,2.262834,3.02072,7.9974,7.240108,3.152075,4.650611,-0.1422515,-0.4696129,1.251118,0.2477984,-0.4561573,1.224491,0.07182179,0.3073906,1.308738,-0.09274324,-0.4583479,1.224209,0.2850395,-0.4700657,1.199,0.06862591,-0.1049124,1.334024,0.06861113,-0.3988482,1.314299,-0.1044682,0.05496968,1.307525,-0.006367003,-0.3888668,1.282854,-0.1358953,-0.1980888,1.31274,0.2658845,-0.1906717,1.31913,NA,NA,NotTracked,NotTracked,
0.9106445,-0.3041992,-0.02929688,1.023926,0.7050781,0.3027344,-3,0,1,-1,-2,-1,-1,-13,-14,5,-9,-8,14,2,4,9,-3.0625,-3.0625,-3.0625,48.75,48.75,48.75,2.242159,3.017585,8.018608,7.064446,3.214987,4.898882,-0.1442167,-0.46867,1.251536,0.2392091,-0.4456487,1.194949,0.07166518,0.307435,1.308834,-0.09369861,-0.4584188,1.215386,0.2512262,-0.4239962,1.152107,0.06834133,-0.1049383,1.333901,0.06820339,-0.3986362,1.313991,-0.1076213,0.05521787,1.30802,-0.006763324,-0.3886372,1.282529,-0.1359312,-0.1983498,1.313051,0.2665286,-0.1897465,1.318049,NA,NA,NotTracked,NotTracked,
0.9106445,-0.3178711,-0.02050781,1.145996,0.7666016,0.3955078,3,-1,1,0,-1,0,2,4,-8,3,-12,-12,-9,-2,-1,-11,-3.6875,-3.6875,-3.6875,56.125,56.125,56.125,2.215153,3.014651,8.042786,6.849216,3.350507,5.204258,-0.1431565,-0.4693987,1.253987,0.2307847,-0.4307238,1.158245,0.07163533,0.3074333,1.30889,-0.09315635,-0.4600229,1.224802,0.2093078,-0.419057,1.127118,0.06816601,-0.1048889,1.333942,0.06797475,-0.3984964,1.313967,-0.1073713,0.05514198,1.308316,-0.007035224,-0.3884936,1.282519,-0.1360293,-0.1982451,1.313287,0.2679721,-0.1857184,1.314776,NA,NA,NotTracked,Unknown,
0.9238281,-0.3061523,-0.02490234,1.109863,0.9160156,0.5292969,0,0,-1,0,-3,0,1,1,-23,-8,-4,3,1,7,-1,-11,-3,-3,-3,58.6875,58.6875,58.6875,2.200054,3.011847,8.057271,6.755775,3.447033,5.352797,-0.1428007,-0.4704508,1.255252,0.2061411,-0.4093926,1.115682,0.07161973,0.3074895,1.30921,-0.09303056,-0.4556815,1.224273,0.1846336,-0.4037891,1.149867,0.06756733,-0.1047613,1.334058,0.0658636,-0.3979701,1.313878,-0.1072466,0.0550988,1.308664,-0.00943251,-0.387746,1.282479,-0.1360503,-0.1982716,1.313465,0.2682728,-0.1801979,1.309488,NA,NA,NotTracked,Unknown,
0.9448242,-0.2963867,-0.02392578,1.032227,0.8959961,0.6938477,1,0,-1,-2,0,-1,1,-2,13,6,27,75,69,34,20,5,-12.9375,-12.9375,-12.9375,45.375,45.375,45.375,2.161437,3.005357,8.087717,6.587092,3.708447,5.63754,-0.1429533,-0.4709222,1.255787,0.1746248,-0.3597616,1.087013,0.07175287,0.3074136,1.309506,-0.09615716,-0.486612,1.23275,0.1676406,-0.4001573,1.0752,0.06488666,-0.1050168,1.334301,0.05786125,-0.3983683,1.313438,-0.1068173,0.05510662,1.308829,-0.01834066,-0.3863502,1.282714,-0.1361527,-0.1975828,1.313809,0.2716418,-0.1613526,1.301062,NA,NA,NotTracked,Unknown,
0.9501953,-0.3286133,-0.01220703,0.6376953,0.7070313,0.8139648,-2,-2,-2,-1,-1,-1,1,3,-4,-7,-22,-16,-19,-14,-23,0,-20.125,-20.125,-20.125,32.5,32.5,32.5,2.112827,3.001504,8.117021,6.399687,4.196968,6.021723,-0.1449857,-0.471306,1.257592,0.1471672,-0.2857516,1.101907,0.0720702,0.3074311,1.309882,-0.09799762,-0.4840006,1.234667,0.1076865,-0.3054797,1.159,0.06413854,-0.104842,1.334567,0.0565761,-0.3978265,1.313605,-0.1063528,0.05506265,1.308887,-0.01945581,-0.3857025,1.282794,-0.1361133,-0.197494,1.313831,0.272232,-0.1443621,1.291502,NA,NA,NotTracked,Unknown,
0.9506836,-0.3232422,-0.04296875,0.5273438,0.5649414,0.8144531,1,1,-1,-1,-1,-1,2,0,-32,8,23,12,9,12,0,-19,-13,-13,-13,46,46,46,2.069967,3.000793,8.14592,6.351541,4.546355,6.25895,-0.1461906,-0.4724046,1.260253,0.1027913,-0.2403427,1.067532,0.0725266,0.3074792,1.310479,-0.09478936,-0.4545094,1.2285,0.05826413,-0.2949569,1.109,0.06372107,-0.10448,1.335396,0.05653562,-0.3969947,1.314779,-0.1082632,0.05554549,1.309178,-0.01902388,-0.385401,1.283746,-0.1361365,-0.197419,1.313895,0.2567441,-0.1584832,1.215226,NA,NA,NotTracked,Unknown,
0.949707,-0.2929688,-0.06982422,0.190918,0.5117188,0.6474609,0,-1,0,0,0,-1,0,3,17,-6,9,9,-3,13,1,6,-8.25,-8.25,-8.25,60.1875,60.1875,60.1875,2.037913,3.0024,8.170909,6.368761,4.88207,6.49498,-0.1470335,-0.4709898,1.259911,0.06919476,-0.186191,1.083064,0.07308327,0.3075057,1.310858,-0.0974336,-0.479365,1.237625,0.005637953,-0.1809256,1.124286,0.06370521,-0.1043475,1.335757,0.0567789,-0.3967039,1.315183,-0.1010014,0.05475393,1.307045,-0.01849692,-0.3850751,1.284438,-0.1360649,-0.1973793,1.313872,0.3210941,-0.1398703,1.225618,NA,NA,NotTracked,Unknown,
0.9208984,-0.3037109,-0.07128906,0.1455078,0.4663086,0.6508789,-3,-1,0,-1,-1,-1,-2,6,-8,-19,6,15,-10,-22,-4,19,-11.8125,-11.8125,-11.8125,60.875,60.875,60.875,2.007098,3.009271,8.182268,6.397717,5.035885,6.612488,-0.1465458,-0.470363,1.258615,0.02606928,-0.07249972,1.108214,0.07476398,0.3074339,1.312008,-0.09741399,-0.4578627,1.233462,0.01094383,-0.1187558,1.158263,0.06406521,-0.1038756,1.336532,0.05768444,-0.3953584,1.316134,-0.101488,0.05836488,1.307546,-0.01716873,-0.3839352,1.285069,-0.1356576,-0.1978535,1.312829,0.3039321,-0.1266206,1.188974,NA,NA,NotTracked,Unknown,
0.9282227,-0.3183594,-0.08642578,0.05761719,0.4477539,0.5224609,-2,-3,-1,-2,-1,-2,1,4,3,-25,-15,-13,-8,2,9,-10,-5.9375,-5.9375,-5.9375,61.4375,61.4375,61.4375,2.000289,3.013912,8.186322,6.487082,5.28876,6.846554,-0.1482213,-0.471645,1.258256,0.03327982,-0.03988139,1.118732,0.07619105,0.3072071,1.312568,-0.09615368,-0.4548904,1.231468,0.02478156,-0.07801931,1.175583,0.06428882,-0.1038093,1.336775,0.05837385,-0.3948808,1.316622,-0.1043182,0.05861839,1.306945,-0.01598229,-0.3836495,1.286176,-0.1352846,-0.198318,1.312667,0.2587421,-0.1167638,1.18148,NA,NA,NotTracked,Unknown,
0.9169922,-0.2919922,-0.1137695,0.05761719,0.4477539,0.5224609,-3,-2,-4,1,-1,-1,-1,-3,-28,-10,7,10,14,31,-6,-1,17.5,17.5,17.5,61.4375,61.4375,61.4375,1.99789,3.026571,8.207119,6.487082,5.28876,6.846554,-0.1476263,-0.4709678,1.256212,0.008729312,-0.0092767,1.128602,0.07759911,0.3070666,1.313021,-0.09758816,-0.4586195,1.233426,0.03154467,0.02762629,1.173857,0.06437673,-0.1038028,1.336957,0.05873692,-0.3948433,1.31683,-0.1059229,0.0579339,1.305243,-0.01547955,-0.3838505,1.286566,-0.1348862,-0.1988235,1.312268,0.2538431,-0.1117669,1.172293,NA,NA,NotTracked,Unknown,
0.9145508,-0.2607422,-0.1166992,0.07373047,0.5581055,0.3222656,1,2,0,-1,-1,-3,-5,-12,3,0,-4,-11,-8,-13,-9,-25,18.1875,18.1875,18.1875,44.3125,44.3125,44.3125,1.997547,3.032094,8.228476,6.700631,5.561616,7.237783,-0.147512,-0.4702698,1.255307,0.007672469,0.002236527,1.139227,0.07940082,0.3069599,1.313439,-0.1063413,-0.4645925,1.2154,0.009786123,-0.03644961,1.179292,0.06469654,-0.1038853,1.337309,0.05921377,-0.3949475,1.317145,-0.1062573,0.05758654,1.3032,-0.01492612,-0.3841934,1.287064,-0.1344623,-0.1989353,1.311847,0.2515889,-0.09749731,1.152663,NA,NA,NotTracked,Unknown,
0.925293,-0.2602539,-0.1313477,0.1748047,0.6108398,0.2954102,-3,-3,-1,0,0,1,1,2,65,70,36,26,2,9,13,31,17.1875,17.1875,17.1875,17.8125,17.8125,17.8125,1.994737,3.036293,8.251198,6.764632,5.599514,7.346783,-0.1495309,-0.4708367,1.25567,0.009110481,0.01324663,1.149976,0.08160835,0.3069114,1.314504,-0.1018529,-0.4806619,1.240714,0.0215871,-0.03005908,1.187667,0.06517788,-0.1040664,1.33778,0.06042353,-0.3953087,1.31746,-0.09824967,0.05585971,1.291713,-0.0139014,-0.3847944,1.287186,-0.1342025,-0.1983932,1.310968,0.2508294,-0.0944628,1.149318,NA,NA,NotTracked,Unknown,
0.8979492,-0.2905273,-0.1137695,0.2456055,0.8686523,0.4042969,-1,-1,0,0,-1,-1,-3,-2,3,-9,-18,-15,-23,-9,-17,-26,18.25,18.25,18.25,-7.1875,-7.1875,-7.1875,1.995951,3.038884,8.269027,6.78542,5.595431,7.36115,-0.1498585,-0.4690631,1.254398,0.01271351,0.01973389,1.148934,0.08205429,0.3068555,1.314721,-0.09652819,-0.4481935,1.235067,0.01806758,-0.02491793,1.186304,0.06546249,-0.104124,1.337936,0.06098029,-0.3954356,1.317532,-0.09712722,0.05575373,1.290686,-0.01343242,-0.385008,1.287162,-0.1341034,-0.1982597,1.310793,0.2512383,-0.09623909,1.151617,NA,NA,NotTracked,Unknown,
0.9213867,-0.2817383,-0.1030273,0.1464844,0.8779297,0.3935547,-1,-1,-1,-1,-3,0,-1,0,-4,-64,-38,-48,-31,-14,-6,38,28.75,28.75,28.75,-17.8125,-17.8125,-17.8125,1.998278,3.039068,8.297644,6.765262,5.593255,7.329436,-0.1502273,-0.4700391,1.255232,0.01973574,0.02805593,1.143687,0.08251578,0.3068289,1.314972,-0.1027017,-0.4798511,1.244,0.0210044,-0.01830103,1.186333,0.06575813,-0.1042256,1.337979,0.06140705,-0.395601,1.317445,-0.09647015,0.05567674,1.290329,-0.01307783,-0.3852436,1.286996,-0.1340896,-0.1980446,1.310767,0.2528107,-0.09852006,1.154901,NA,NA,NotTracked,Unknown,
0.9345703,-0.2822266,-0.1030273,0.02294922,0.7978516,0.3847656,3,1,0,0,-2,3,5,6,7,-58,-74,-13,3,8,30,31,30.5,30.5,30.5,-9.0625,-9.0625,-9.0625,1.996885,3.038233,8.316925,6.738826,5.605106,7.269227,-0.151555,-0.4700457,1.255668,0.03581632,0.03463898,1.137896,0.08268163,0.3068219,1.31512,-0.09512272,-0.4554296,1.228286,-0.01831769,0.02460813,1.145733,0.06586833,-0.1042693,1.33807,0.06163057,-0.3957162,1.317341,-0.09586573,0.05567773,1.290206,-0.01287991,-0.3854446,1.286654,-0.1341695,-0.1978264,1.310808,0.2590678,-0.1049679,1.165587,NA,NA,NotTracked,Unknown,
0.9321289,-0.296875,-0.1020508,-0.2768555,0.8110352,0.8608398,0,-1,-1,-1,-1,0,2,0,79,-46,-34,-18,17,15,-2,-1,35.1875,35.1875,35.1875,19,19,19,1.986917,3.036678,8.385429,6.565218,5.717696,6.826395,-0.1524327,-0.469609,1.257084,0.0686992,0.03728128,1.130974,0.08268922,0.3068135,1.315148,-0.09646828,-0.4466797,1.228,0.03895491,0.02639069,1.112905,0.06592493,-0.1043831,1.338038,0.06175682,-0.3960505,1.317177,-0.09589257,0.0557982,1.290786,-0.01283238,-0.3858646,1.286413,-0.1343013,-0.1976297,1.310917,0.2735592,-0.1166006,1.191041,NA,NA,NotTracked,Unknown,
0.9321289,-0.296875,-0.1020508,-0.2768555,0.8110352,0.8608398,0,-1,-1,-1,-1,0,2,0,79,-46,-34,-18,17,15,-2,-1,35.1875,35.1875,35.1875,19,19,19,1.986917,3.036678,8.385429,6.565218,5.717696,6.826395,-0.1553449,-0.4704888,1.259741,0.09181418,0.04862132,1.133832,0.0824403,0.3068455,1.315227,-0.1048316,-0.4613822,1.2208,0.1088676,0.05934846,1.091295,0.06595836,-0.1045274,1.337959,0.06167138,-0.3967593,1.316884,-0.09722245,0.0563794,1.293349,-0.01315215,-0.3866908,1.286542,-0.1345184,-0.1974146,1.311232,0.2786959,-0.1196513,1.199715,NA,NA,NotTracked,Unknown,
0.9423828,-0.2861328,-0.06884766,-0.4272461,0.7333984,1.042969,-6,-4,-1,-3,-3,-5,-3,-3,-6,14,62,58,76,32,14,43,32.625,32.625,32.625,68,68,68,1.969835,3.036858,8.466146,6.455284,5.80064,6.466456,-0.1559179,-0.4711787,1.263029,0.1608489,0.04681044,1.124846,0.08183856,0.3068483,1.315394,-0.09829994,-0.4545377,1.232852,0.1612335,0.06314801,1.088579,0.06591201,-0.1050093,1.337755,0.06146912,-0.3976614,1.316661,-0.09887701,0.05637805,1.295746,-0.01369227,-0.387986,1.287113,-0.1350158,-0.1972241,1.311877,0.2874046,-0.121082,1.208151,NA,NA,NotTracked,Unknown,
0.9228516,-0.3012695,-0.04882813,-0.5742188,0.3061523,1.046387,-3,-3,-1,-1,-3,-5,-3,-5,4,46,59,47,21,-31,-50,-43,31.5,31.5,31.5,132.9375,132.9375,132.9375,1.946947,3.035372,8.529577,6.33559,5.906896,6.008203,-0.159925,-0.4712461,1.265474,0.1723271,0.07468834,1.140027,0.08111376,0.3070278,1.315266,-0.1074921,-0.4656396,1.24675,0.1606629,0.09318361,1.119556,0.06580107,-0.1051946,1.337596,0.06127717,-0.3981648,1.316315,-0.09940913,0.05619957,1.301303,-0.01404406,-0.388485,1.287118,-0.1357608,-0.1970019,1.313124,0.3057776,-0.1224563,1.234907,NA,NA,NotTracked,Unknown,
0.9345703,-0.2949219,-0.05908203,-0.7553711,0.015625,0.6850586,3,-2,1,1,1,3,10,7,-74,-50,15,15,-19,12,22,-51,12.25,12.25,12.25,216.375,216.375,216.375,1.906698,3.031247,8.595125,6.272889,6.09321,5.366674,-0.165662,-0.4727668,1.270455,0.2628644,0.07230768,1.16359,0.08042637,0.3073075,1.314488,-0.1043212,-0.4481196,1.236732,0.2848851,0.05807025,1.123262,0.06579988,-0.1051419,1.336969,0.06099461,-0.3982095,1.31574,-0.09968513,0.0560158,1.305004,-0.01454743,-0.3884337,1.286129,-0.1377355,-0.1961621,1.316362,0.3224534,-0.1184888,1.266821,NA,NA,NotTracked,Unknown,
0.9301758,-0.3349609,-0.003417969,-0.8359375,-0.04833984,0.8032227,0,-1,-2,-1,-3,-4,-5,0,14,-7,39,18,3,14,9,-67,-11.8125,-11.8125,-11.8125,158.5,158.5,158.5,1.851781,3.026505,8.647321,6.279162,6.15047,5.081237,-0.1675642,-0.4725504,1.274507,0.2694008,0.07336728,1.186642,0.08027129,0.3074458,1.314031,-0.1061256,-0.4517654,1.237899,0.3019181,0.07258365,1.140283,0.06591266,-0.105015,1.33662,0.06095866,-0.3980805,1.315485,-0.09956297,0.0562436,1.305635,-0.0146096,-0.3881827,1.285475,-0.1386114,-0.1961358,1.318049,0.3267999,-0.1163876,1.279258,NA,NA,NotTracked,Closed,
0.9155273,-0.3496094,-0.046875,-0.9658203,0.02148438,0.4550781,0,-2,0,0,2,4,0,-4,24,60,93,86,21,21,27,41,-4.9375,-4.9375,-4.9375,79.5625,79.5625,79.5625,1.810596,3.024641,8.686049,6.283355,6.189399,4.944132,-0.1699662,-0.4739239,1.277273,0.2716925,0.07052906,1.196519,0.08017196,0.3074279,1.313501,-0.1067573,-0.4523046,1.237783,0.3076417,0.07492468,1.149959,0.06623134,-0.1048676,1.335925,0.06096634,-0.3978851,1.314936,-0.09952116,0.05625961,1.305928,-0.01461701,-0.3879093,1.284372,-0.1392763,-0.1963314,1.318751,0.328519,-0.115256,1.286166,NA,NA,NotTracked,Closed,
0.9472656,-0.3256836,-0.08886719,-0.8994141,0.1987305,0.4228516,1,0,-2,-1,-2,-1,-4,-5,-54,-7,-17,-8,-2,5,-16,-37,-12.875,-12.875,-12.875,31.6875,31.6875,31.6875,1.782305,3.02371,8.705311,6.2626,6.200246,4.861102,-0.1718924,-0.473349,1.280614,0.2742825,0.06802501,1.199402,0.08022711,0.3075797,1.312503,-0.1138561,-0.466369,1.245032,0.3146293,0.05842089,1.15555,0.06650715,-0.1047999,1.335546,0.06104929,-0.3977585,1.314499,-0.09944189,0.05622128,1.305953,-0.01447922,-0.3876516,1.282998,-0.1399588,-0.1963231,1.319711,0.3290166,-0.1147842,1.293165,NA,NA,NotTracked,Closed,
0.9335938,-0.3310547,-0.1083984,-0.8491211,0.3286133,0.5571289,-1,-2,-3,0,-1,-1,-5,-1,-5,-17,-59,-56,-7,10,-13,-2,-7.75,-7.75,-7.75,-7.625,-7.625,-7.625,1.794661,3.028636,8.681849,6.21262,6.191394,4.804553,-0.173708,-0.4736596,1.281873,0.2749573,0.0679539,1.201795,0.08036601,0.3075636,1.311511,-0.1123171,-0.4463823,1.24386,0.2393238,0.06733572,1.157381,0.06677032,-0.1047586,1.335084,0.06113879,-0.3976964,1.314152,-0.09941172,0.05616816,1.305973,-0.01435206,-0.3875219,1.281932,-0.1403488,-0.1965187,1.320208,0.3291991,-0.1144206,1.295535,NA,NA,NotTracked,Closed,
0.9165039,-0.3129883,-0.1040039,-0.7485352,0.4663086,0.565918,-3,-3,-2,0,-3,-3,1,1,67,-8,-24,-2,-5,-13,-8,30,3.375,3.375,3.375,-27.5625,-27.5625,-27.5625,1.841912,3.034991,8.634169,6.178032,6.184785,4.794988,-0.1738174,-0.4734646,1.28223,0.273303,0.06469338,1.198865,0.0805719,0.3075652,1.310972,-0.1136592,-0.4421371,1.244473,0.3101982,0.06148911,1.152327,0.06702875,-0.1047827,1.334702,0.06133695,-0.3976778,1.313841,-0.09939933,0.05615599,1.306022,-0.01403496,-0.3875134,1.281113,-0.1404726,-0.1964876,1.320255,0.3287023,-0.1147867,1.297489,NA,NA,NotTracked,Unknown,
0.9130859,-0.3056641,-0.1142578,-0.7036133,0.5131836,0.5576172,-2,0,0,-2,-2,-3,1,2,101,61,59,15,-1,-7,-1,64,4.4375,4.4375,4.4375,-34.25,-34.25,-34.25,1.87086,3.038683,8.606239,6.150637,6.170566,4.810514,-0.1735663,-0.4726614,1.276582,0.2718154,0.06216667,1.194368,0.08081302,0.3075125,1.31053,-0.1136462,-0.4466276,1.242428,0.3093364,0.06014588,1.151565,0.0676316,-0.1047449,1.334294,0.0617009,-0.3975989,1.313593,-0.09919962,0.0561535,1.306277,-0.01357825,-0.3874134,1.280438,-0.1409438,-0.1959685,1.320447,0.3276806,-0.115435,1.29814,NA,NA,NotTracked,Unknown,
0.9042969,-0.28125,-0.1020508,-0.6523438,0.5571289,0.5981445,4,-1,-1,-3,-3,-2,-3,2,-68,-69,-22,8,7,0,2,-4,0.0625,0.0625,0.0625,-18.625,-18.625,-18.625,1.936136,3.048508,8.539214,6.144154,6.153812,4.83626,-0.1742761,-0.4732489,1.273484,0.2712748,0.0593892,1.189971,0.0808971,0.3074865,1.31042,-0.1132036,-0.4415712,1.24651,0.3023777,0.04577002,1.145036,0.06773585,-0.104807,1.334111,0.0617474,-0.3976205,1.313485,-0.09914271,0.05618622,1.306388,-0.01354371,-0.3874435,1.280068,-0.1409998,-0.1960028,1.320436,0.3264244,-0.1162721,1.29864,NA,NA,NotTracked,Unknown,
0.9223633,-0.2680664,-0.1269531,-0.6352539,0.5615234,0.6157227,0,1,0,-2,1,0,-3,2,9,1,-25,17,32,14,25,-13,-0.8125,-0.8125,-0.8125,-18.0625,-18.0625,-18.0625,1.958129,3.053893,8.51505,6.142738,6.146921,4.848194,-0.1737763,-0.4723624,1.271382,0.2711927,0.05827472,1.189597,0.08090255,0.3074354,1.31033,-0.1132899,-0.4447278,1.244161,0.3049652,0.04457767,1.146296,0.06784393,-0.1048273,1.333997,0.06180109,-0.3976117,1.31345,-0.09912536,0.0563038,1.3066,-0.01348777,-0.3874352,1.279987,-0.1413518,-0.195749,1.320317,0.3258485,-0.116651,1.298558,NA,NA,NotTracked,Unknown,
0.9272461,-0.2749023,-0.1152344,-0.6220703,0.5185547,0.6230469,-3,-2,-3,1,5,5,5,4,-24,-2,-8,-7,9,6,8,-18,-0.5,-0.5,-0.5,-8.6875,-8.6875,-8.6875,1.973376,3.056737,8.496609,6.133951,6.135937,4.870089,-0.1743257,-0.4719422,1.265328,0.2680754,0.05694193,1.187601,0.08076466,0.3074501,1.309916,-0.1136099,-0.446107,1.240993,0.3071988,0.03883633,1.1474,0.0679144,-0.1048665,1.333912,0.06185365,-0.3976433,1.313389,-0.09913471,0.05627377,1.306787,-0.01344086,-0.3874842,1.279862,-0.1417256,-0.1952881,1.319758,0.3242101,-0.1176732,1.298629,NA,NA,NotTracked,Unknown,
0.9228516,-0.2895508,-0.1035156,-0.6313477,0.4443359,0.5966797,2,0,-1,0,-1,-1,-2,-4,-1,-15,-25,-25,-14,1,-16,-9,5.25,5.25,5.25,-10.125,-10.125,-10.125,1.992607,3.05698,8.480293,6.135396,6.135299,4.889057,-0.1737856,-0.4733636,1.264632,0.2685964,0.05810749,1.185955,0.08065824,0.3074254,1.309768,-0.1137954,-0.4469108,1.243006,0.3027747,0.0413381,1.144794,0.06790112,-0.1048702,1.333899,0.06179874,-0.3976399,1.313328,-0.09924927,0.05627018,1.307071,-0.01352797,-0.3874961,1.279777,-0.1419211,-0.1953353,1.319571,0.3233193,-0.1181917,1.298685,NA,NA,NotTracked,Unknown,
0.9291992,-0.2797852,-0.09716797,-0.6342773,0.46875,0.6323242,-5,-2,-2,-2,0,-1,-5,-1,23,6,13,14,-1,2,6,16,7,7,7,-11.875,-11.875,-11.875,2.00691,3.053494,8.473186,6.130297,6.118941,4.908236,-0.1733203,-0.4729674,1.263008,0.2656378,0.05773159,1.184109,0.08046558,0.3073445,1.309186,-0.1162279,-0.456407,1.242296,0.2834964,0.0376173,1.130739,0.0678281,-0.1048887,1.333744,0.06175482,-0.3976426,1.313198,-0.09924468,0.05627177,1.30711,-0.01358038,-0.3875159,1.279706,-0.1420389,-0.1952962,1.319323,0.322427,-0.1187189,1.298584,NA,NA,NotTracked,Unknown,
0.9233398,-0.2792969,-0.0859375,-0.6323242,0.425293,0.6523438,2,0,-2,0,-1,-2,0,-4,12,4,1,6,29,16,8,-10,4.125,4.125,4.125,-17.875,-17.875,-17.875,2.011641,3.050741,8.470645,6.1293,6.115355,4.939372,-0.1732985,-0.4734114,1.262613,0.2643597,0.05413447,1.186732,0.0802673,0.3072348,1.308924,-0.1137454,-0.4486994,1.242131,0.2926676,0.04300466,1.1349,0.06777579,-0.1049343,1.333649,0.06167681,-0.3976552,1.313143,-0.09930155,0.05627448,1.30723,-0.01366527,-0.3875394,1.279703,-0.1421974,-0.1953898,1.31918,0.3343542,-0.1893517,1.272024,NA,NA,NotTracked,Unknown,
0.9262695,-0.3081055,-0.08007813,-0.6552734,0.449707,0.5620117,-3,-1,-1,-3,-1,1,2,-2,-26,-41,-64,-61,-42,9,1,14,-3.4375,-3.4375,-3.4375,-45.625,-45.625,-45.625,2.017111,3.044881,8.463355,6.122267,6.105196,5.00177,-0.1714568,-0.4724047,1.263242,0.264531,0.05426971,1.187257,0.07997058,0.3071577,1.30881,-0.1158172,-0.4415106,1.239744,0.2930583,0.04078225,1.135976,0.06773519,-0.1049529,1.333551,0.06155653,-0.3975999,1.313047,-0.09940533,0.05624465,1.307357,-0.01377819,-0.3875033,1.279653,-0.1422372,-0.1954533,1.319083,0.3294362,-0.1894284,1.290455,NA,NA,NotTracked,Unknown,
0.9311523,-0.3291016,-0.06542969,-0.5498047,0.487793,0.6611328,-1,-1,-1,-2,0,0,0,-2,-15,-13,-22,4,-12,-24,-32,-2,-3.5,-3.5,-3.5,-44.75,-44.75,-44.75,2.022743,3.039909,8.45321,6.100755,6.073393,5.049205,-0.1702153,-0.4729983,1.263285,0.2625185,0.05192708,1.188135,0.07957647,0.3069792,1.308535,-0.1165416,-0.4593523,1.238643,0.288094,0.03780317,1.127595,0.06767641,-0.1049556,1.333441,0.06138748,-0.3975109,1.312912,-0.09949279,0.05626914,1.307468,-0.01392025,-0.3874548,1.279607,-0.1422684,-0.1954422,1.319007,0.3247285,-0.1904805,1.295737,NA,NA,NotTracked,Unknown,
0.9267578,-0.3242188,-0.06542969,-0.5566406,0.4311523,0.5693359,-1,-2,-1,-2,-1,0,0,-2,-16,-32,-25,-16,-21,-5,15,-1,-5.125,-5.125,-5.125,-50.75,-50.75,-50.75,2.028346,3.0349,8.442969,6.072962,6.03636,5.09866,-0.1695344,-0.4728973,1.264056,0.2624914,0.04954748,1.179401,0.07896906,0.3068094,1.307961,-0.1146792,-0.4507322,1.240382,0.278852,0.03035693,1.121088,0.06747942,-0.1049594,1.333272,0.06116657,-0.3974979,1.312814,-0.09966046,0.0561859,1.3076,-0.0141403,-0.3874735,1.279581,-0.1422904,-0.1955377,1.31897,0.3121955,-0.1924054,1.326645,NA,NA,NotTracked,Closed,
0.9130859,-0.3217773,-0.06835938,-0.5029297,0.4072266,0.5024414,-2,-1,1,1,3,3,0,1,-7,20,4,12,16,2,-3,-4,-12,-12,-12,-47.375,-47.375,-47.375,2.02973,3.029965,8.430422,6.029437,5.92993,5.114359,-0.1668449,-0.4713427,1.265057,0.2651503,0.03125432,1.147783,0.07808927,0.306869,1.307559,-0.1137872,-0.4410784,1.236748,0.2771263,0.00864598,1.108,0.06708421,-0.1048802,1.332894,0.06088691,-0.3974031,1.312558,-0.09979381,0.05613263,1.307685,-0.01439599,-0.3874353,1.279491,-0.1422691,-0.1955928,1.318929,0.307474,-0.1960774,1.321218,NA,NA,NotTracked,Closed,
0.918457,-0.3193359,-0.06689453,-0.4868164,0.3349609,0.5522461,0,-1,0,-1,-2,0,-1,-1,10,6,6,8,5,8,15,18,-22.875,-22.875,-22.875,-9.9375,-9.9375,-9.9375,2.032672,3.026673,8.394096,6.01,5.755068,5.111811,-0.1657784,-0.4703307,1.264724,0.2673089,0.01374133,1.125352,0.07790566,0.3068898,1.307461,-0.1144307,-0.4531381,1.235171,0.2730167,-0.01018241,1.093625,0.06662501,-0.1048656,1.332542,0.06067234,-0.3973552,1.312304,-0.09993076,0.05608597,1.307674,-0.01458922,-0.3874406,1.279408,-0.1422774,-0.1958854,1.318871,0.2990937,-0.2103693,1.317381,NA,NA,NotTracked,Closed,
0.9306641,-0.3232422,-0.05615234,-0.4506836,0.3969727,0.4121094,-4,0,-2,-1,0,-1,0,-1,-17,-2,0,-7,-6,-9,-18,-53,-29.5625,-29.5625,-29.5625,19.5625,19.5625,19.5625,2.036077,3.02581,8.358487,6.021484,5.555858,5.115461,-0.1646676,-0.4718102,1.264413,0.2688744,-0.01476056,1.113778,0.07748234,0.3070117,1.307416,-0.1139525,-0.4497957,1.232169,0.2763962,-0.05018737,1.098417,0.06624515,-0.1048313,1.332438,0.06052306,-0.3973064,1.31223,-0.1001651,0.05599695,1.307591,-0.01473276,-0.3874017,1.279425,-0.142303,-0.1961537,1.318821,0.2486977,-0.1351002,1.368197,NA,NA,NotTracked,Closed,
0.9282227,-0.3344727,-0.05712891,-0.09863281,0.4326172,0.6049805,-3,-2,-1,0,-2,-2,-1,-1,-11,-11,-11,-11,-15,-14,2,-24,-25.9375,-25.9375,-25.9375,45.8125,45.8125,45.8125,2.042583,3.027761,8.32038,6.070007,5.324939,5.101678,-0.1641272,-0.4685093,1.263791,0.270615,-0.04800015,1.099781,0.07703952,0.3070064,1.307184,-0.1121419,-0.4447793,1.235599,0.2608408,-0.07851581,1.076292,0.06585759,-0.1047476,1.33214,0.060353,-0.3971891,1.312077,-0.1005331,0.05583647,1.307581,-0.01486653,-0.3873348,1.279393,-0.1423422,-0.1961971,1.318677,0.2692359,-0.1390505,1.317388,NA,NA,NotTracked,Closed,
0.9130859,-0.3173828,-0.05664063,-0.08935547,0.4848633,0.4550781,-5,0,0,0,-1,0,-1,-8,14,4,-9,-11,-17,-11,-3,-2,-17.0625,-17.0625,-17.0625,23.9375,23.9375,23.9375,2.055254,3.029516,8.285286,6.105212,5.048258,5.109429,-0.1628086,-0.4686826,1.262944,0.2728204,-0.08992039,1.084038,0.07663364,0.3071064,1.307078,-0.1121144,-0.4486672,1.236274,0.267056,-0.1280138,1.061375,0.06536514,-0.1046516,1.331787,0.06010517,-0.3970728,1.311819,-0.1009891,0.05567525,1.307374,-0.01505521,-0.3872912,1.279357,-0.1424027,-0.1960821,1.318417,0.2643481,-0.1958,1.326755,NA,NA,NotTracked,Closed,
0.940918,-0.3085938,-0.06542969,0.5913086,0.3828125,0.4868164,-4,-1,-2,-1,0,1,-1,-4,29,-4,0,6,28,-5,-47,9,-15.875,-15.875,-15.875,94.0625,94.0625,94.0625,2.069784,3.033589,8.241256,6.245979,4.421234,5.057493,-0.1607282,-0.4660214,1.258461,0.2805873,-0.2450441,1.077621,0.07480534,0.3073692,1.306957,-0.1099189,-0.435088,1.231847,0.2551795,-0.2641009,1.070375,0.06405059,-0.10454,1.331294,0.05929705,-0.396928,1.311456,-0.102042,0.05531026,1.306756,-0.01587238,-0.3872254,1.279401,-0.1425667,-0.1967479,1.317518,0.267863,-0.165384,1.359561,NA,NA,NotTracked,Closed,
0.9316406,-0.2939453,-0.07763672,0.5136719,0.8808594,0.6904297,0,-1,0,-1,0,1,0,1,19,3,3,0,-25,-30,-22,-15,-9.875,-9.875,-9.875,122.1875,122.1875,122.1875,2.083977,3.037058,8.213546,6.412324,4.136582,4.980084,-0.1602626,-0.4658359,1.256746,0.2782501,-0.2970135,1.086564,0.0740956,0.3072699,1.307077,-0.1080684,-0.4442953,1.231535,0.2526941,-0.326467,1.11375,0.06378382,-0.1045282,1.33119,0.05919386,-0.3969311,1.311387,-0.1023392,0.05513611,1.306563,-0.01597686,-0.3872365,1.279372,-0.1426151,-0.1971204,1.317061,0.2665121,-0.1647722,1.353431,NA,NA,NotTracked,Unknown,
0.9487305,-0.2895508,-0.06640625,0.7861328,0.5073242,0.4272461,-2,-2,-3,0,-2,0,-1,-1,-13,-11,-15,-13,-14,-8,-8,4,-12.4375,-12.4375,-12.4375,65.9375,65.9375,65.9375,2.093457,3.039337,8.190398,6.467926,3.989727,4.945455,-0.1606602,-0.4688777,1.254163,0.2771589,-0.3471077,1.114623,0.07347228,0.3072612,1.30707,-0.1080294,-0.4394915,1.233718,0.2465331,-0.3787957,1.149,0.06349224,-0.1045966,1.331067,0.05909479,-0.3969972,1.311284,-0.1028168,0.05503249,1.306461,-0.01608617,-0.3873058,1.279311,-0.1428086,-0.1974151,1.316337,0.2666243,-0.168721,1.3479,NA,NA,NotTracked,Unknown,
0.9155273,-0.2807617,-0.08251953,0.9970703,0.6542969,0.5024414,0,0,-3,-1,-1,-3,-2,-1,-35,-26,-9,-5,-8,-5,18,-40,-13.8125,-13.8125,-13.8125,112.1875,112.1875,112.1875,2.098711,3.039881,8.169488,6.620306,3.720744,4.875108,-0.1589222,-0.4678024,1.252744,0.2783895,-0.3751371,1.174231,0.07302669,0.3073169,1.306972,-0.1109498,-0.4466041,1.232917,0.2544897,-0.3995928,1.207462,0.06337544,-0.1046491,1.331022,0.05911637,-0.3970766,1.311256,-0.1030671,0.05485941,1.306083,-0.01606227,-0.3873691,1.279271,-0.142989,-0.1974321,1.315811,0.2663229,-0.1739897,1.342765,NA,NA,NotTracked,Unknown,
0.9116211,-0.2841797,-0.05029297,0.9077148,0.7573242,0.309082,3,2,1,1,-3,-2,0,0,-6,-21,-11,-4,-8,-3,-1,45,-23.125,-23.125,-23.125,141.1875,141.1875,141.1875,2.089664,3.038794,8.154889,6.869231,3.479003,4.75466,-0.1591386,-0.4699943,1.251541,0.2740515,-0.4099672,1.179246,0.0727434,0.307359,1.306862,-0.1091108,-0.4549197,1.23183,0.2509701,-0.4320222,1.199158,0.06319306,-0.104708,1.330988,0.05915424,-0.3972375,1.311194,-0.1034843,0.05464096,1.305933,-0.01601277,-0.3875155,1.279247,-0.1430909,-0.1978139,1.315307,0.2660247,-0.1804668,1.336848,NA,NA,NotTracked,Unknown,
0.9287109,-0.3066406,-0.06396484,1.346191,0.5634766,0.009277344,3,2,-3,-2,-2,-1,-4,0,6,-10,-8,-9,0,-3,2,2,-18.5625,-18.5625,-18.5625,142.375,142.375,142.375,2.075794,3.039467,8.145722,7.258064,3.279792,4.481928,-0.157833,-0.4692532,1.250703,0.2642153,-0.4456789,1.221776,0.07207587,0.3073704,1.307043,-0.107732,-0.4598913,1.231901,0.2175818,-0.4343037,1.221917,0.06304508,-0.1048573,1.330903,0.05945085,-0.3978986,1.310875,-0.1041955,0.05438406,1.305026,-0.01569219,-0.3880656,1.278878,-0.1432704,-0.1983648,1.314115,0.263161,-0.1883967,1.32498,NA,NA,NotTracked,NotTracked,
0.96875,-0.2885742,-0.07275391,1.195313,0.4091797,-0.1240234,-4,-1,-5,-1,-1,0,-1,-6,-16,-7,1,6,8,3,13,13,-9.75,-9.75,-9.75,117.875,117.875,117.875,2.075864,3.037871,8.133474,7.684301,3.146223,4.156749,-0.157532,-0.4696562,1.250544,0.263413,-0.4534588,1.23728,0.07189263,0.3073824,1.307069,-0.1050453,-0.440953,1.226348,0.2191936,-0.4565096,1.2272,0.06297401,-0.1049978,1.330852,0.05962701,-0.3982612,1.310626,-0.104353,0.05430888,1.305055,-0.01550881,-0.388371,1.278602,-0.1434207,-0.198469,1.313793,0.2615707,-0.1911985,1.321607,NA,NA,NotTracked,NotTracked,
0.9731445,-0.2548828,-0.09472656,1.332031,0.5224609,-0.3486328,-2,-3,-4,-3,-1,-1,-2,-4,0,11,1,2,-4,-7,-7,-14,-5.8125,-5.8125,-5.8125,79.1875,79.1875,79.1875,2.082729,3.036834,8.122554,8.047204,3.113382,3.873453,-0.156789,-0.4691428,1.250309,0.2614641,-0.4596213,1.247198,0.07168957,0.307378,1.307095,-0.1068363,-0.4577972,1.228723,0.2097784,-0.443431,1.215154,0.06293559,-0.1050988,1.330797,0.05987776,-0.39864,1.310322,-0.1045646,0.05415306,1.305162,-0.01526926,-0.3887205,1.278327,-0.1435957,-0.1987042,1.313156,0.2605301,-0.1926421,1.320173,NA,NA,NotTracked,NotTracked,
0.8549805,-0.2529297,-0.09863281,1.062012,0.5600586,-0.1987305,4,-2,-2,-3,-1,0,2,-1,13,-1,1,3,6,1,15,11,-23.25,-23.25,-23.25,-21.375,-21.375,-21.375,2.096318,3.033428,8.087414,8.116025,3.089455,3.803982,-0.1569571,-0.4693154,1.251212,0.2617785,-0.4613885,1.255775,0.07151152,0.3074202,1.307118,-0.104117,-0.4419973,1.227055,0.215769,-0.4697575,1.22,0.06292947,-0.1051711,1.330753,0.05990771,-0.3987867,1.310225,-0.1047811,0.05421317,1.304749,-0.01524671,-0.3888065,1.278281,-0.1436225,-0.1988702,1.31304,0.260098,-0.1930678,1.320343,NA,NA,NotTracked,NotTracked,
0.887207,-0.3208008,-0.05078125,0.8676758,0.5166016,-0.008300781,-6,-1,-2,-1,-1,-3,-2,0,5,11,15,6,3,4,-5,6,-33.5625,-33.5625,-33.5625,-45.5,-45.5,-45.5,2.075818,3.03176,8.070095,8.023955,3.068256,3.84602,-0.1564129,-0.4685162,1.251553,0.2611232,-0.4603438,1.260401,0.07134789,0.3074819,1.30711,-0.1089692,-0.5015064,1.245,0.2143344,-0.4498138,1.220671,0.06297214,-0.1052224,1.330699,0.06005537,-0.3989348,1.310073,-0.1048449,0.05399781,1.304873,-0.01513419,-0.3889063,1.278221,-0.1436929,-0.1989713,1.312945,0.2600647,-0.1935476,1.321224,NA,NA,NotTracked,NotTracked,
0.9487305,-0.3505859,-0.0234375,0.7949219,0.3452148,0.04638672,-6,-1,0,1,-1,-1,-2,0,-9,-11,-6,-2,-4,-1,-3,-9,6.25,6.25,6.25,18.25,18.25,18.25,2.054655,3.01991,8.081973,7.987896,3.058761,3.872609,-0.1568305,-0.4692785,1.255266,0.2619042,-0.4610542,1.2665,0.07116242,0.3075608,1.307057,-0.1067081,-0.454971,1.225442,0.2166404,-0.461113,1.225838,0.06297766,-0.1052686,1.330638,0.06012431,-0.3989859,1.310008,-0.1052691,0.05390218,1.30461,-0.01506024,-0.3889499,1.278193,-0.1439714,-0.1990162,1.313088,0.2601627,-0.1932359,1.325152,NA,NA,NotTracked,NotTracked,
0.9335938,-0.3017578,-0.05224609,0.8803711,0.4702148,-0.04541016,3,-1,-1,0,0,-3,-3,-2,9,10,2,0,-8,-2,7,22,2.4375,2.4375,2.4375,6.375,6.375,6.375,2.040359,3.009418,8.103991,8.032439,3.080293,3.838113,-0.1555688,-0.4694967,1.256697,0.2639184,-0.4630667,1.266369,0.07104974,0.3076135,1.307029,-0.1074088,-0.4591464,1.227936,0.2154264,-0.4683058,1.226399,0.06297627,-0.1053191,1.330567,0.06013172,-0.3990166,1.30998,-0.1053936,0.05380426,1.304662,-0.01505614,-0.3889602,1.278185,-0.1440159,-0.198796,1.313102,0.2602317,-0.1938404,1.326341,NA,NA,NotTracked,NotTracked,
0.9316406,-0.3149414,-0.03564453,0.9814453,0.3012695,-0.06103516,-10,-4,-1,0,-1,-1,1,0,-7,-14,-6,-5,-6,-3,-7,-4,1.375,1.375,1.375,-36.6875,-36.6875,-36.6875,2.040144,3.003255,8.105129,8.03497,3.091747,3.781278,-0.1554127,-0.468367,1.260928,0.2664114,-0.4616089,1.267643,0.07060158,0.3076861,1.306928,-0.107191,-0.45678,1.228322,0.217415,-0.467369,1.22613,0.06292067,-0.1053864,1.330505,0.06012103,-0.399086,1.310012,-0.105656,0.05346191,1.30477,-0.01505428,-0.3890338,1.278262,-0.1441712,-0.198534,1.313379,0.2603198,-0.1941755,1.327721,NA,NA,NotTracked,NotTracked,
0.9326172,-0.2871094,-0.04492188,0.9145508,0.3046875,-0.09619141,0,0,-3,-4,-1,-2,0,1,-2,-6,-3,-8,-6,4,12,-5,4.0625,4.0625,4.0625,-19.875,-19.875,-19.875,2.057797,3.00081,8.092062,8.036345,3.097444,3.750886,-0.1543904,-0.4691398,1.259356,0.2674069,-0.4607903,1.265148,0.0704856,0.3076823,1.306857,-0.1077325,-0.460629,1.229812,0.2177083,-0.4742864,1.229,0.06284659,-0.1054394,1.33046,0.06008901,-0.3991149,1.309985,-0.1058666,0.05349725,1.304345,-0.01507389,-0.3890435,1.278252,-0.1441765,-0.1983819,1.313429,0.2601977,-0.1942597,1.328031,NA,NA,NotTracked,NotTracked,
0.9301758,-0.2768555,-0.05322266,0.9614258,0.4082031,-0.08154297,3,-3,-1,-2,-1,0,0,3,-9,-4,-5,-3,-3,-5,0,-9,-10.25,-10.25,-10.25,-74.1875,-74.1875,-74.1875,2.063735,2.995493,8.079548,8.002624,3.11327,3.714559,-0.1521375,-0.4682118,1.25924,0.267794,-0.4608729,1.264644,0.0702791,0.3076312,1.306691,-0.103002,-0.4435586,1.224263,0.2188442,-0.4407399,1.228517,0.0628268,-0.1055066,1.330431,0.06010022,-0.3991855,1.310008,-0.1059588,0.05335184,1.304357,-0.01504969,-0.3891118,1.278291,-0.1441473,-0.1981657,1.313558,0.260109,-0.1944369,1.328129,NA,NA,NotTracked,NotTracked,
0.9345703,-0.3027344,-0.06884766,0.9179688,0.2353516,-0.1083984,-1,0,-1,0,0,-1,-2,-3,0,-1,-1,0,2,-1,-9,-7,-17.625,-17.625,-17.625,-79.5,-79.5,-79.5,2.060817,2.994244,8.063395,7.972792,3.109621,3.699645,-0.1506051,-0.468677,1.25862,0.2679373,-0.4610841,1.263366,0.07012559,0.3075785,1.306682,-0.1032677,-0.4546243,1.223777,0.2179378,-0.4504821,1.227933,0.06277525,-0.1055852,1.33042,0.06012985,-0.3992681,1.310031,-0.1060342,0.05319925,1.304368,-0.01500687,-0.3892165,1.278312,-0.1440858,-0.1980654,1.313649,0.259888,-0.1945665,1.328231,NA,NA,NotTracked,NotTracked,
0.9335938,-0.2963867,-0.07470703,0.9345703,0.1972656,-0.1445313,0,-1,-1,-2,-1,-2,-2,-5,0,-1,-1,2,6,4,7,5,-11.9375,-11.9375,-11.9375,-7.5,-7.5,-7.5,2.06342,2.994429,8.045066,7.970042,3.10034,3.669308,-0.1509306,-0.4690306,1.258787,0.2677788,-0.4613377,1.262936,0.07001614,0.3075488,1.306652,-0.1076532,-0.4924392,1.23075,0.2182011,-0.4742101,1.231741,0.06273223,-0.1056703,1.330431,0.06012342,-0.3993645,1.310056,-0.1061224,0.05307477,1.304433,-0.01499956,-0.3892886,1.27831,-0.144048,-0.1979674,1.313678,0.259698,-0.1947045,1.328185,NA,NA,NotTracked,NotTracked,
0.9331055,-0.3022461,-0.07080078,0.9389648,0.3808594,-0.1108398,-7,-3,0,-2,2,-1,-2,-3,1,-3,0,2,-5,0,5,-5,-5.5625,-5.5625,-5.5625,18.25,18.25,18.25,2.069145,2.998228,8.030174,7.986775,3.10038,3.673655,-0.1497968,-0.4689009,1.258497,0.267267,-0.4611937,1.26237,0.06990503,0.3075328,1.306646,-0.1059328,-0.4840258,1.23201,0.2183169,-0.4737375,1.232179,0.06262535,-0.1057646,1.330432,0.06007474,-0.3994553,1.310058,-0.106293,0.05319142,1.304063,-0.01503402,-0.3893473,1.278308,-0.1439423,-0.1980504,1.313709,0.2594684,-0.1948628,1.328139,NA,NA,NotTracked,NotTracked,
0.9228516,-0.2998047,-0.06640625,0.9052734,0.3178711,-0.1367188,0,0,-1,-2,0,-1,-2,-1,1,2,-1,-2,3,0,-3,1,4.5625,4.5625,4.5625,3,3,3,2.078183,3.003785,8.023809,8.006449,3.095988,3.658498,-0.1481305,-0.4680581,1.255895,0.2666981,-0.4617158,1.26185,0.069784,0.307383,1.306415,-0.1009114,-0.4818121,1.229,0.218897,-0.4660218,1.22751,0.06244391,-0.1058783,1.330426,0.0600154,-0.3995287,1.310104,-0.1064377,0.05301026,1.304167,-0.01506457,-0.389387,1.2783,-0.1437531,-0.197831,1.31371,0.2585625,-0.1950331,1.32774,NA,NA,NotTracked,NotTracked,
0.9291992,-0.2949219,-0.07324219,0.9458008,0.324707,-0.1425781,-2,-1,-2,-1,-1,-1,-1,-4,-1,-2,-4,-2,-3,-2,-2,-6,7.375,7.375,7.375,11.0625,11.0625,11.0625,2.08168,3.006201,8.024506,8.031101,3.089338,3.643631,-0.1475372,-0.4681285,1.256774,0.266159,-0.4619084,1.262614,0.06977053,0.3072967,1.306323,-0.09981675,-0.4702857,1.223645,0.2188203,-0.4389143,1.224746,0.06241665,-0.1059521,1.330447,0.06006984,-0.399586,1.310149,-0.1065133,0.05296795,1.304228,-0.01499181,-0.3894584,1.278325,-0.1436928,-0.197753,1.313692,0.2583334,-0.1951544,1.327575,NA,NA,NotTracked,NotTracked,
0.9233398,-0.2905273,-0.04833984,0.9360352,0.3427734,-0.1103516,-1,-2,-3,0,0,0,-2,0,-4,-1,-1,0,-6,1,-1,-3,8.0625,8.0625,8.0625,12.8125,12.8125,12.8125,2.092627,3.01189,8.028343,8.04057,3.084498,3.649008,-0.1486803,-0.4678033,1.257041,0.2654586,-0.4622894,1.263363,0.06974295,0.3072271,1.30627,-0.1000712,-0.4475394,1.22245,0.2185456,-0.4479155,1.226347,0.06241475,-0.1059839,1.330467,0.06009698,-0.3996166,1.310204,-0.1066366,0.05284144,1.304482,-0.01496464,-0.3894815,1.278339,-0.1435632,-0.1974245,1.313741,0.2581039,-0.195285,1.327423,NA,NA,NotTracked,NotTracked,
0.9248047,-0.2832031,-0.04833984,0.9287109,0.3354492,-0.1083984,-5,0,-1,0,0,0,1,1,1,-3,-1,2,6,2,0,1,3.75,3.75,3.75,10,10,10,2.096493,3.013623,8.030762,8.038052,3.081049,3.663784,-0.1481813,-0.4681962,1.256093,0.2642811,-0.4622183,1.262392,0.06974646,0.307166,1.306224,-0.09940073,-0.4429789,1.220789,0.2181933,-0.4468111,1.225074,0.06241436,-0.106053,1.330495,0.06016875,-0.3996432,1.31027,-0.1067378,0.05283713,1.304682,-0.01488909,-0.3895037,1.27836,-0.1435245,-0.1974342,1.313797,0.2579483,-0.1952596,1.327377,NA,NA,NotTracked,NotTracked,
0.9331055,-0.2866211,-0.04101563,0.9316406,0.3305664,-0.09667969,3,0,0,0,0,-1,1,0,-1,-1,-1,-2,-11,-7,-3,-4,0.875,0.875,0.875,9.3125,9.3125,9.3125,2.098983,3.014966,8.030781,8.037194,3.078831,3.675788,-0.1482253,-0.4684706,1.256346,0.2638662,-0.4633884,1.262097,0.06969234,0.3070911,1.306217,-0.09948277,-0.4489992,1.222138,0.2185516,-0.4737957,1.232576,0.06239306,-0.1061272,1.330559,0.06018392,-0.3997051,1.310357,-0.1068206,0.0527722,1.304861,-0.01486551,-0.3895527,1.27842,-0.1435243,-0.1974275,1.313803,0.2578457,-0.1952749,1.32734,NA,NA,NotTracked,NotTracked,
0.9331055,-0.2866211,-0.04101563,0.9306641,0.3251953,-0.09814453,3,0,0,0,0,-1,1,0,-1,-1,-1,-2,-11,-7,-3,-4,0.875,0.875,0.875,10.25,10.25,10.25,2.098983,3.014966,8.030781,8.0368,3.077329,3.682029,-0.1486666,-0.4692239,1.256186,0.2630699,-0.4637835,1.262246,0.06965464,0.3070584,1.306211,-0.1033739,-0.4874648,1.230143,0.2180584,-0.4526975,1.223385,0.06241121,-0.1061886,1.330611,0.06020191,-0.3997648,1.310429,-0.1067771,0.05266948,1.305025,-0.01485739,-0.3895977,1.278447,-0.1435173,-0.1974592,1.313925,0.2577312,-0.1952658,1.327304,NA,NA,NotTracked,NotTracked,
0.9335938,-0.2895508,-0.03320313,0.9467773,0.3242188,-0.1040039,-4,-1,-1,0,1,1,-1,-3,-2,-2,-2,1,0,0,1,-2,0.3125,0.3125,0.3125,13.1875,13.1875,13.1875,2.105823,3.015887,8.025215,8.035658,3.075795,3.690995,-0.1490603,-0.4687651,1.255974,0.2625628,-0.4633255,1.261924,0.06966262,0.307053,1.306216,-0.09989074,-0.4602504,1.222143,0.2172232,-0.4475684,1.225312,0.06243027,-0.1062135,1.330744,0.06029854,-0.39977,1.310551,-0.1067888,0.05269232,1.305148,-0.01475179,-0.3896248,1.278549,-0.1436013,-0.1971867,1.313951,0.2576492,-0.1953204,1.327218,NA,NA,NotTracked,NotTracked,
0.9331055,-0.2871094,-0.04003906,0.9389648,0.3496094,-0.1054688,-1,0,-1,-1,-1,0,-2,-1,0,0,-2,-1,-8,-3,-3,-1,-1.4375,-1.4375,-1.4375,13.4375,13.4375,13.4375,2.1172,3.015176,8.013112,8.016938,3.074828,3.73823,-0.1489436,-0.4686088,1.256244,0.2618271,-0.4636526,1.261551,0.06964342,0.3069875,1.306228,-0.100037,-0.4454766,1.223217,0.2151109,-0.4233795,1.228216,0.062419,-0.1062721,1.330813,0.06029518,-0.3998156,1.310609,-0.1068317,0.05260335,1.305384,-0.01475875,-0.3896751,1.278622,-0.1435808,-0.1972636,1.314008,0.2575252,-0.1953863,1.327126,NA,NA,NotTracked,NotTracked,
0.9331055,-0.2958984,-0.03613281,0.9506836,0.3212891,-0.09619141,0,-3,-2,0,0,-2,0,0,-2,-1,-3,-1,-1,0,-1,-2,-0.5,-0.5,-0.5,12.1875,12.1875,12.1875,2.136775,3.015545,7.992032,7.99512,3.072735,3.775594,-0.14825,-0.4686565,1.255921,0.2604149,-0.4631751,1.260399,0.06963912,0.3069797,1.306232,-0.1011203,-0.4667373,1.228854,0.2143206,-0.446917,1.223643,0.0623933,-0.1063248,1.33093,0.06027827,-0.3998437,1.310636,-0.1068771,0.05270719,1.305226,-0.0147747,-0.3896911,1.278625,-0.1436046,-0.1973568,1.314131,0.2574686,-0.1954214,1.327106,NA,NA,NotTracked,NotTracked,
0.9233398,-0.2944336,-0.04443359,0.9311523,0.3286133,-0.09179688,0,1,-1,0,0,0,0,-1,-1,-4,-3,-2,-5,-2,-1,-4,-0.1875,-0.1875,-0.1875,13.125,13.125,13.125,2.155472,3.012651,7.973162,7.982039,3.072241,3.797147,-0.1485256,-0.4682447,1.255316,0.2595132,-0.4633213,1.258564,0.06963414,0.3069511,1.306252,-0.09856281,-0.4453824,1.220187,0.2142774,-0.4534589,1.222786,0.06239968,-0.1063651,1.331031,0.06025377,-0.3998976,1.310669,-0.1068164,0.0526248,1.305354,-0.01479278,-0.3897172,1.278628,-0.1436084,-0.196744,1.314257,0.2574235,-0.1954591,1.327045,NA,NA,NotTracked,NotTracked,
0.9213867,-0.2919922,-0.03710938,0.9238281,0.3295898,-0.09765625,-2,-1,0,0,-1,-2,-2,0,0,-2,-1,-1,-1,-2,0,-2,-1.125,-1.125,-1.125,17.0625,17.0625,17.0625,2.165374,3.011621,7.962429,7.964579,3.07115,3.83415,-0.146866,-0.4690237,1.25426,0.2590418,-0.4626186,1.257307,0.06960228,0.3069283,1.306293,-0.09985127,-0.4715722,1.220667,0.2137592,-0.4543645,1.220953,0.0624005,-0.1063653,1.331071,0.06027296,-0.3998876,1.31068,-0.1068379,0.05276109,1.305082,-0.01477333,-0.3897001,1.278624,-0.143581,-0.1967529,1.314285,0.2572951,-0.195317,1.326874,NA,NA,NotTracked,NotTracked,
0.9277344,-0.3061523,-0.03515625,0.9267578,0.3417969,-0.09326172,-1,0,0,1,0,0,0,-1,0,0,1,-1,-1,-3,0,0,-3.625,-3.625,-3.625,14.3125,14.3125,14.3125,2.181069,3.007946,7.943212,7.954473,3.073341,3.863172,-0.1472023,-0.4689716,1.254442,0.2586806,-0.4624112,1.256401,0.06950843,0.3068409,1.30652,-0.09909896,-0.4737935,1.224143,0.2128977,-0.4674345,1.224235,0.06242913,-0.1064138,1.33117,0.06036675,-0.399951,1.310728,-0.1067961,0.05262348,1.305236,-0.01465123,-0.3897924,1.278696,-0.1435493,-0.1967399,1.314314,0.2572091,-0.1953659,1.326814,NA,NA,NotTracked,NotTracked,
0.9604492,-0.2939453,-0.04980469,0.9282227,0.3339844,-0.1201172,-3,1,-3,0,-1,-1,0,-1,-2,-1,-3,-2,-1,-1,-1,-3,-0.125,-0.125,-0.125,20,20,20,2.197699,3.004255,7.92336,7.966377,3.073627,3.883166,-0.1455622,-0.4699236,1.253993,0.2586531,-0.4596701,1.256019,0.06939726,0.3066785,1.307214,-0.09881745,-0.4491926,1.222075,0.213155,-0.4379889,1.224182,0.06245758,-0.106439,1.331424,0.06044778,-0.3999676,1.310843,-0.1068678,0.0525475,1.305917,-0.0145339,-0.3898145,1.278827,-0.1433576,-0.1967919,1.314518,0.2570373,-0.1954125,1.326407,NA,NA,NotTracked,NotTracked,
0.9614258,-0.284668,-0.04443359,0.925293,0.3466797,-0.1210938,-1,2,0,-2,-2,0,-3,-1,-1,-1,-1,-1,-1,-1,-3,-2,-4.4375,-4.4375,-4.4375,10.375,10.375,10.375,2.215824,2.998772,7.901588,7.976026,3.077231,3.889147,-0.1436911,-0.4695213,1.253855,0.257603,-0.4612426,1.25493,0.06933399,0.306566,1.307586,-0.0967937,-0.462709,1.22159,0.2128374,-0.4774679,1.226445,0.06251331,-0.1064176,1.331557,0.06050451,-0.3999714,1.310893,-0.106837,0.05251394,1.306167,-0.01447525,-0.3898347,1.278868,-0.1432223,-0.1966721,1.314629,0.2568984,-0.1953234,1.326095,NA,NA,NotTracked,NotTracked,
0.9370117,-0.2949219,-0.03857422,0.9326172,0.3295898,-0.1162109,-2,-3,-2,0,-2,-2,-2,-1,1,-2,-2,-1,0,-1,-2,-1,-8.3125,-8.3125,-8.3125,0.875,0.875,0.875,2.239238,2.995793,7.867582,7.978034,3.078068,3.889916,-0.1427304,-0.4689036,1.253773,0.2575141,-0.4604012,1.254566,0.06936189,0.3065769,1.308432,-0.09663711,-0.4605182,1.222857,0.2111673,-0.4282889,1.221,0.0626433,-0.1064453,1.332054,0.0610356,-0.4001355,1.31144,-0.1068488,0.05248024,1.306305,-0.01389622,-0.3900929,1.279392,-0.1430331,-0.197036,1.314832,0.2569293,-0.1952166,1.325644,NA,NA,NotTracked,NotTracked,
