ALX,ALY,ALZ,ARX,ARY,ARZ,EMG0L,EMG1L,EMG2L,EMG3L,EMG4L,EMG5L,EMG6L,EMG7L,EMG0R,EMG1R,EMG2R,EMG3R,EMG4R,EMG5R,EMG6R,EMG7R,GLX,GLY,GLZ,GRX,GRY,GRZ,ORL,OPL,OYL,ORR,OPR,OYR,LHNX,LHNY,LHNZ,RHNX,RHNY,RHNZ,HX,HY,HZ,LTX,LTY,LTZ,RTX,RTY,RTZ,SpineMidX,SpineMidY,SpineMidZ,SpineBaseX,SpineBaseY,SpineBaseZ,ShoulderLeftX,ShoulderLeftY,ShoulderLeftZ,ShoulderRightX,ShoulderRightY,ShoulderRightZ,ElbowLeftX,ElbowLeftY,ElbowLeftZ,ElbowRightX,ElbowRightY,ElbowRightZ,Myo_Pose_left,Myo_Pose_Right,Kinect_pose_left,Kinect_pose_right
0.9311523,-0.2949219,0.006347656,0.9467773,0.2529297,-0.09472656,2,0,0,-1,-2,-1,-1,-1,0,-1,-2,0,-4,-2,1,-1,2.1875,2.1875,2.1875,-2.375,-2.375,-2.375,2.401924,2.992008,7.523407,8.075066,2.927491,9.36311,-0.1675659,-0.4629259,1.229658,0.2024101,-0.4611697,1.236089,0.03101647,0.3062504,1.290634,-0.2055875,-0.4547883,1.220702,0.1610876,-0.4325724,1.208468,0.02557685,-0.1175749,1.326135,0.0225649,-0.4189367,1.316647,-0.1396371,0.04817348,1.285438,-0.048097,-0.4084855,1.284455,-0.174761,-0.2037214,1.294655,0.2175088,-0.1991359,1.297194,NA,NA,NotTracked,NotTracked,
0.9321289,-0.2954102,0.006835938,0.9516602,0.2475586,-0.09521484,2,0,0,0,-3,0,-1,2,0,0,0,-1,0,-1,-3,-1,1.6875,1.6875,1.6875,-1.5,-1.5,-1.5,2.401721,2.992256,7.525,8.074542,2.926716,9.361756,-0.1679405,-0.4633988,1.229896,0.2028179,-0.4612991,1.236445,0.03101236,0.3062552,1.290628,-0.2086776,-0.458539,1.225122,0.1617647,-0.4243414,1.209913,0.025564,-0.1175823,1.326136,0.02256872,-0.4189516,1.316647,-0.1398176,0.04810012,1.285662,-0.04809652,-0.4085034,1.284461,-0.1746776,-0.203997,1.294809,0.2175402,-0.1991149,1.297201,NA,NA,NotTracked,NotTracked,
0.9331055,-0.2993164,0.001953125,0.9589844,0.2573242,-0.08935547,-6,-2,-1,0,-2,-2,-1,-3,-3,-1,-2,-1,-3,1,1,-5,3.25,3.25,3.25,-2.5625,-2.5625,-2.5625,2.400394,2.993541,7.530911,8.069263,2.927883,9.364775,-0.1672701,-0.4627177,1.230297,0.2027427,-0.4618366,1.236586,0.03097947,0.3062611,1.290658,-0.2070314,-0.4486094,1.225608,0.1610424,-0.4201698,1.209474,0.02554968,-0.1175823,1.326141,0.02257729,-0.4189501,1.316695,-0.1398469,0.04807735,1.285813,-0.04809233,-0.4084996,1.284497,-0.1746384,-0.2038805,1.294909,0.2175984,-0.1991346,1.297247,NA,NA,NotTracked,NotTracked,
0.9365234,-0.2988281,0.01074219,0.9536133,0.2456055,-0.08349609,2,-1,-1,0,-1,0,-1,2,0,-1,-2,-1,-2,-2,-3,-1,-1,-1,-1,-1.9375,-1.9375,-1.9375,2.399449,2.993317,7.534918,8.058856,2.928776,9.371194,-0.1675213,-0.4628411,1.229861,0.2026729,-0.4616205,1.236179,0.03093438,0.3062667,1.290652,-0.2071479,-0.468382,1.223067,0.1614098,-0.4273216,1.209088,0.02554476,-0.1176005,1.326159,0.02258574,-0.418973,1.316705,-0.1398836,0.04796188,1.285979,-0.04808514,-0.4085305,1.284521,-0.1745162,-0.2041505,1.294884,0.2175435,-0.1991629,1.29726,NA,NA,NotTracked,NotTracked,
0.9355469,-0.3041992,0.01074219,0.9633789,0.2460938,-0.07910156,0,-1,-1,-2,-1,-1,-2,-2,0,1,0,1,-1,-1,1,0,0.3125,0.3125,0.3125,1.5,1.5,1.5,2.398435,2.994284,7.536347,8.05527,2.929277,9.375175,-0.1678962,-0.4624769,1.230447,0.2028321,-0.4617091,1.236303,0.03090664,0.3062683,1.290679,-0.2088826,-0.4590189,1.227747,0.160469,-0.4403644,1.207476,0.02548903,-0.1176525,1.3262,0.02256567,-0.4190354,1.316741,-0.1400039,0.04791275,1.286232,-0.04810901,-0.4086094,1.284605,-0.174501,-0.2041326,1.294946,0.2175545,-0.1992607,1.297314,NA,NA,NotTracked,NotTracked,
0.9326172,-0.2929688,0.001953125,0.956543,0.2490234,-0.09960938,-4,-1,-2,0,0,-1,-3,-4,-3,-1,-1,-1,1,-3,-1,-7,2.3125,2.3125,2.3125,1.125,1.125,1.125,2.400187,2.994557,7.537792,8.055235,2.929769,9.377095,-0.167768,-0.4631436,1.231315,0.2033434,-0.4622416,1.236038,0.03090249,0.3062691,1.290684,-0.2106467,-0.4492688,1.23775,0.1609076,-0.4443435,1.208577,0.025463,-0.1176731,1.326251,0.02257156,-0.4190615,1.316766,-0.1400251,0.04788397,1.286329,-0.0481075,-0.4086274,1.28462,-0.1743377,-0.2044436,1.295185,0.2175708,-0.1992063,1.297412,NA,NA,NotTracked,NotTracked,
0.934082,-0.2944336,0.0078125,0.9521484,0.2480469,-0.09375,3,1,-1,-2,-2,-3,-2,1,-1,-2,-1,-2,-1,0,2,1,-0.5,-0.5,-0.5,-0.75,-0.75,-0.75,2.401682,2.994095,7.537273,8.059272,2.93026,9.372211,-0.1676193,-0.4633891,1.230236,0.2034655,-0.4625829,1.23552,0.03083087,0.3063312,1.290848,-0.2086852,-0.4577705,1.228241,0.161371,-0.427747,1.208579,0.0254426,-0.1176749,1.326278,0.02256617,-0.419059,1.316779,-0.140253,0.04785194,1.286754,-0.04811532,-0.4086253,1.284636,-0.1742725,-0.204455,1.295244,0.2176016,-0.1992428,1.297412,NA,NA,NotTracked,NotTracked,
0.9335938,-0.2958984,0.01123047,0.9560547,0.2446289,-0.09326172,2,0,0,-2,1,0,-2,1,-1,-1,0,-2,3,1,-3,-1,-0.875,-0.875,-0.875,-0.125,-0.125,-0.125,2.403387,2.993849,7.535151,8.059272,2.93026,9.372211,-0.1674598,-0.463444,1.229986,0.2034736,-0.4623999,1.235531,0.03080563,0.3063737,1.290893,-0.2087273,-0.4546171,1.230602,0.1612061,-0.4259619,1.208391,0.02544613,-0.1176727,1.326288,0.02256583,-0.4190698,1.316786,-0.1402624,0.04778901,1.286823,-0.04811593,-0.4086287,1.284638,-0.1741807,-0.2045853,1.295323,0.2175609,-0.1994051,1.297355,NA,NA,NotTracked,NotTracked,
0.934082,-0.2958984,0.0009765625,0.9570313,0.2529297,-0.08642578,4,2,0,0,-1,-1,1,3,0,0,0,-1,0,-1,-6,0,-1.5,-1.5,-1.5,-1.5625,-1.5625,-1.5625,2.401304,2.993453,7.53626,8.059443,2.930634,9.37073,-0.1673747,-0.4627578,1.229374,0.20339,-0.4624613,1.234919,0.03078703,0.3064255,1.290938,-0.2077886,-0.4555592,1.226264,0.1611774,-0.4284558,1.208253,0.02544612,-0.1176714,1.326286,0.02257672,-0.4190689,1.316777,-0.1403221,0.04768556,1.286851,-0.04810303,-0.4086345,1.284652,-0.174187,-0.204594,1.295327,0.2175341,-0.19943,1.297277,NA,NA,NotTracked,NotTracked,
0.9360352,-0.2993164,0.006835938,0.9550781,0.2475586,-0.08789063,-1,-3,-1,-1,1,-1,-2,-1,-3,-3,-1,-1,-2,-3,-2,-4,-0.4375,-0.4375,-0.4375,-1.375,-1.375,-1.375,2.402043,2.99343,7.535243,8.061717,2.93057,9.366076,-0.1675094,-0.4624839,1.229512,0.2034543,-0.4625018,1.235328,0.03075418,0.3064529,1.290977,-0.2080918,-0.4567351,1.228226,0.1611542,-0.4286147,1.208353,0.02544026,-0.1176712,1.326291,0.02258447,-0.4190708,1.316777,-0.1404477,0.04755349,1.287134,-0.0480953,-0.4086343,1.284649,-0.1741447,-0.2045528,1.295376,0.2175507,-0.1994288,1.297258,NA,NA,NotTracked,NotTracked,
0.9277344,-0.2988281,0.0004882813,0.9589844,0.2529297,-0.08398438,-1,0,-1,-2,-2,-2,-2,-2,0,-1,0,-1,-4,-3,-3,1,1.1875,1.1875,1.1875,1,1,1,2.402824,2.993516,7.535851,8.062406,2.93073,9.365903,-0.167529,-0.46322,1.230299,0.2035324,-0.4628041,1.235512,0.03073255,0.306459,1.290992,-0.2095488,-0.4556672,1.232528,0.1606371,-0.4404396,1.207195,0.02545858,-0.1176719,1.326334,0.02262443,-0.4190652,1.316807,-0.1404769,0.04745748,1.287146,-0.04805317,-0.4086294,1.284671,-0.1741029,-0.2046018,1.295424,0.2175654,-0.1994547,1.297262,NA,NA,NotTracked,NotTracked,
0.9277344,-0.2988281,0.0004882813,0.9589844,0.2529297,-0.08398438,-1,0,-1,-2,-2,-2,-2,-2,0,-1,0,-1,-4,-3,-3,1,1.1875,1.1875,1.1875,1,1,1,2.402824,2.993516,7.535851,8.062406,2.93073,9.365903,-0.1672273,-0.4628943,1.230007,0.204197,-0.4629979,1.236302,0.03066497,0.3064839,1.291098,-0.2044277,-0.458628,1.219897,0.1608265,-0.4506549,1.208364,0.02545435,-0.1176778,1.326359,0.02264382,-0.4190891,1.316817,-0.1404591,0.04744985,1.28718,-0.04802167,-0.4086696,1.284711,-0.1740929,-0.2043033,1.295516,0.2175956,-0.1995849,1.29727,NA,NA,NotTracked,NotTracked,
0.9326172,-0.3007813,0.002441406,0.9560547,0.2524414,-0.08789063,1,1,-2,-1,0,0,0,0,1,0,-1,-2,-1,0,-4,-1,0.8125,0.8125,0.8125,-0.0625,-0.0625,-0.0625,2.401061,2.993137,7.540677,8.061765,2.931018,9.365894,-0.1672248,-0.4624745,1.229717,0.2040397,-0.4645201,1.235001,0.03065453,0.3065083,1.291125,-0.2079332,-0.4589888,1.227131,0.1608579,-0.4422442,1.207528,0.02544571,-0.1176904,1.326365,0.02263821,-0.4191064,1.316816,-0.1406588,0.04742477,1.287561,-0.04802848,-0.4086925,1.284726,-0.1740476,-0.2043995,1.29552,0.2176131,-0.1995832,1.297273,NA,NA,NotTracked,NotTracked,
0.9350586,-0.2993164,0.0009765625,0.9550781,0.2539063,-0.0859375,0,-2,-1,1,0,-2,0,0,-1,0,-2,0,-3,-4,-2,-1,1.0625,1.0625,1.0625,-0.4375,-0.4375,-0.4375,2.40063,2.993192,7.541941,8.060884,2.931074,9.366848,-0.1677882,-0.4631864,1.230085,0.2042212,-0.4650653,1.235744,0.03065482,0.3065188,1.291125,-0.2091007,-0.4573473,1.228848,0.1627701,-0.4322473,1.20886,0.02545398,-0.1176775,1.326384,0.02265739,-0.4191048,1.316815,-0.1406319,0.04740686,1.287557,-0.04800709,-0.4086966,1.284721,-0.1740443,-0.2044034,1.295521,0.2176227,-0.1995429,1.29731,NA,NA,NotTracked,NotTracked,
0.9414063,-0.2973633,0.0078125,0.9477539,0.2543945,-0.09228516,0,-1,-1,0,0,0,-2,-2,0,1,0,-1,-1,-2,-3,-2,-0.125,-0.125,-0.125,0,0,0,2.398539,2.992749,7.545009,8.061525,2.930786,9.366857,-0.1675594,-0.4631162,1.230119,0.2040418,-0.4641667,1.235483,0.030649,0.3065339,1.291125,-0.2112968,-0.4673399,1.235,0.1624244,-0.4236827,1.209206,0.02545242,-0.1176756,1.326387,0.02267522,-0.4191092,1.316815,-0.140747,0.04752922,1.287754,-0.04799109,-0.4087039,1.284715,-0.1740426,-0.2044345,1.295523,0.2176316,-0.1995926,1.297314,NA,NA,NotTracked,NotTracked,
0.9316406,-0.296875,0.002441406,0.9550781,0.2514648,-0.08398438,-1,-1,1,-2,-3,-1,-1,0,-1,-1,0,0,0,0,2,1,-0.8125,-0.8125,-0.8125,0.5,0.5,0.5,2.396838,2.993072,7.546706,8.060003,2.931129,9.367802,-0.1677396,-0.4631689,1.229965,0.2037573,-0.4647625,1.235291,0.03060883,0.306548,1.291157,-0.2094774,-0.4413292,1.234133,0.1612637,-0.4297531,1.20782,0.02544492,-0.1176846,1.326392,0.02266107,-0.4191283,1.316814,-0.1407485,0.04753602,1.287764,-0.04800389,-0.4087202,1.284709,-0.1740293,-0.2044321,1.295525,0.2176313,-0.1995923,1.297314,NA,NA,NotTracked,NotTracked,
0.9331055,-0.3007813,0.003417969,0.9521484,0.2509766,-0.08984375,0,-2,-1,-2,-1,0,0,-1,0,-1,-3,-2,-3,-3,0,-1,-2.8125,-2.8125,-2.8125,-0.3125,-0.3125,-0.3125,2.392842,2.993179,7.548617,8.060003,2.931129,9.367802,-0.1675388,-0.4632122,1.230422,0.2040695,-0.4645147,1.235628,0.03060591,0.3065659,1.291156,-0.2094634,-0.4520212,1.231734,0.1618374,-0.4404447,1.207687,0.02544611,-0.1176849,1.326394,0.02266125,-0.4191311,1.316813,-0.1407645,0.04752847,1.287816,-0.04800423,-0.4087218,1.28471,-0.1740283,-0.204439,1.295507,0.2175551,-0.1998095,1.297388,NA,NA,NotTracked,NotTracked,
0.9365234,-0.2944336,0.0004882813,0.9624023,0.2587891,-0.08007813,1,0,0,1,0,-1,0,1,0,0,0,0,3,2,4,-1,-1.4375,-1.4375,-1.4375,0.375,0.375,0.375,2.391005,2.993907,7.549201,8.059124,2.931185,9.368754,-0.1668164,-0.4632181,1.229771,0.2038222,-0.464489,1.235075,0.03056125,0.3066105,1.291191,-0.2075272,-0.4723576,1.2253,0.1612259,-0.4473563,1.208214,0.02541755,-0.1177182,1.326419,0.02264808,-0.419228,1.31685,-0.1407655,0.04752816,1.287822,-0.04801324,-0.4088041,1.284734,-0.1740262,-0.2044379,1.295508,0.2175512,-0.1997996,1.297389,NA,NA,NotTracked,NotTracked,
0.9311523,-0.2939453,0.002441406,0.9467773,0.2524414,-0.09082031,-2,-3,-1,0,0,0,0,-4,0,-1,1,0,-1,1,1,-3,-2.5625,-2.5625,-2.5625,-0.3125,-0.3125,-0.3125,2.389719,2.994514,7.548537,8.059124,2.931185,9.368754,-0.1676062,-0.4626543,1.229247,0.2040872,-0.4627876,1.235196,0.03056871,0.3067107,1.291075,-0.2075236,-0.4485814,1.221136,0.161486,-0.4397245,1.208046,0.02541376,-0.1177143,1.326426,0.02270111,-0.4192495,1.316809,-0.1407396,0.04743784,1.287879,-0.04795658,-0.4088436,1.284689,-0.1740537,-0.2045133,1.29548,0.2175717,-0.1998783,1.29739,NA,NA,NotTracked,NotTracked,
0.9350586,-0.2978516,0.002441406,0.9511719,0.2543945,-0.08935547,0,-2,1,0,0,-1,0,1,1,2,-1,1,1,2,3,2,-1.8125,-1.8125,-1.8125,1.25,1.25,1.25,2.389385,2.995265,7.5472,8.056293,2.93129,9.372335,-0.1675886,-0.4627513,1.228875,0.2037707,-0.4640749,1.234114,0.03056333,0.3067383,1.291076,-0.207889,-0.4587349,1.225932,0.1617294,-0.4368752,1.207932,0.02541405,-0.1177144,1.326422,0.02271599,-0.4192714,1.316759,-0.1407545,0.04742773,1.28787,-0.04794312,-0.4088675,1.284623,-0.1740007,-0.2045969,1.295485,0.2175482,-0.1998522,1.297362,NA,NA,NotTracked,NotTracked,
0.9370117,-0.2983398,0.0009765625,0.9702148,0.2714844,-0.08398438,-1,0,0,1,-1,-1,1,-3,1,0,-1,-3,-1,-3,-1,-1,-0.25,-0.25,-0.25,2.125,2.125,2.125,2.387219,2.995908,7.548946,8.043583,2.932719,9.38914,-0.1679529,-0.4625776,1.229187,0.2038485,-0.464288,1.234146,0.03055631,0.3067737,1.291107,-0.2072256,-0.4545105,1.22366,0.1606059,-0.4477574,1.206826,0.02541197,-0.1177241,1.326427,0.02270442,-0.4193012,1.316731,-0.1407555,0.04742815,1.287875,-0.04795451,-0.4088921,1.284588,-0.1739914,-0.2046537,1.295489,0.2175108,-0.2000202,1.297365,NA,NA,NotTracked,NotTracked,
0.9370117,-0.2983398,0.0009765625,0.9702148,0.2714844,-0.08398438,-1,0,0,1,-1,-1,1,-3,1,0,-1,-3,-1,-3,-1,-1,-0.25,-0.25,-0.25,2.125,2.125,2.125,2.387219,2.995908,7.548946,8.043583,2.932719,9.38914,-0.1676033,-0.4624015,1.229246,0.2035553,-0.4639126,1.233606,0.03055145,0.3067809,1.291129,-0.2088685,-0.4566563,1.231324,0.1620509,-0.4296307,1.207469,0.02539361,-0.1177463,1.326416,0.0227016,-0.4193719,1.316669,-0.1407442,0.04739229,1.287861,-0.04796173,-0.408945,1.284544,-0.173991,-0.2046848,1.295492,0.2175317,-0.2001503,1.297316,NA,NA,NotTracked,NotTracked,
0.9267578,-0.2944336,0.0009765625,0.9863281,0.3432617,-0.1108398,0,-1,-1,-2,0,0,1,0,-2,-4,-1,-2,-2,-4,-3,-1,0,0,0,0.625,0.625,0.625,2.387083,2.995105,7.54992,8.031929,2.935056,9.401583,-0.1678727,-0.4628662,1.228486,0.2026461,-0.4631426,1.231688,0.03056216,0.3067923,1.29112,-0.2103763,-0.4556278,1.231723,0.1615355,-0.4374855,1.207851,0.02540164,-0.1177421,1.326421,0.02272324,-0.4193746,1.31665,-0.1407937,0.04737007,1.28792,-0.04793553,-0.4089491,1.284517,-0.1740153,-0.2046694,1.29542,0.2175952,-0.2000346,1.297322,NA,NA,NotTracked,NotTracked,
0.9238281,-0.2910156,-0.001464844,1.059082,0.4536133,-0.06298828,-1,-1,-3,-1,1,0,0,2,-4,2,3,11,2,-1,-2,-3,-3.25,-3.25,-3.25,-24.875,-24.875,-24.875,2.386166,2.991744,7.549041,7.78372,2.966741,9.620845,-0.1677522,-0.4630775,1.229395,0.2006386,-0.4606848,1.228123,0.03056784,0.3068003,1.29112,-0.2102345,-0.4541009,1.231926,0.1601407,-0.4336044,1.206727,0.02539209,-0.1177501,1.326422,0.0227369,-0.4193953,1.316643,-0.1408482,0.04733746,1.287979,-0.04792337,-0.40896,1.284505,-0.1740146,-0.2046652,1.295406,0.2176868,-0.200022,1.297282,NA,NA,NotTracked,NotTracked,
0.9228516,-0.2890625,0.002441406,1.228027,0.5458984,0.03173828,-2,-1,-2,-1,-3,-1,0,-4,49,24,51,63,33,18,5,12,-9.125,-9.125,-9.125,-24.5625,-24.5625,-24.5625,2.376548,2.988388,7.550602,7.408721,3.046556,9.983474,-0.168328,-0.4626956,1.228412,0.195485,-0.4591344,1.215848,0.0305976,0.306818,1.291091,-0.2093756,-0.4433535,1.227111,0.1567473,-0.4566552,1.205465,0.02535474,-0.1177457,1.326404,0.02266098,-0.4194014,1.316561,-0.1408447,0.0473331,1.287971,-0.04799245,-0.4089364,1.284409,-0.1739961,-0.204761,1.295371,0.2182236,-0.1995947,1.297412,NA,NA,NotTracked,NotTracked,
0.9296875,-0.2866211,0.01416016,1.226074,0.7382813,0.1811523,-2,0,0,-1,-1,-1,-1,-2,-25,-10,-1,16,11,2,-4,-8,-14.5,-14.5,-14.5,-9.3125,-9.3125,-9.3125,2.360746,2.981837,7.552944,7.209211,3.118067,0.1913207,-0.1678225,-0.4608342,1.229837,0.1859497,-0.4523417,1.195667,0.03062426,0.3068197,1.291067,-0.208877,-0.4528405,1.228182,0.1511045,-0.4297904,1.189,0.02532131,-0.1177368,1.326401,0.02256681,-0.4194004,1.316531,-0.1395953,0.04771343,1.287,-0.04812935,-0.408884,1.284303,-0.1739673,-0.2047576,1.295307,0.2194509,-0.1986232,1.297758,NA,NA,NotTracked,NotTracked,
0.9404297,-0.2885742,0.02246094,1.085938,0.9125977,0.5405273,0,-1,-1,1,0,-1,0,-1,-35,-34,-55,-48,-5,-20,-29,-32,-18.75,-18.75,-18.75,-11.5,-11.5,-11.5,2.347821,2.978136,7.556155,6.754473,3.476372,0.6939533,-0.1674298,-0.4606934,1.230047,0.1673206,-0.4421554,1.161808,0.03070686,0.3068801,1.290998,-0.2085826,-0.4530677,1.227427,0.1440339,-0.4705946,1.175633,0.02505694,-0.1177446,1.326374,0.02155852,-0.419447,1.316504,-0.1386046,0.04791592,1.28601,-0.04917052,-0.4086442,1.284122,-0.1739306,-0.2047734,1.295287,0.2217746,-0.1959591,1.29767,NA,NA,NotTracked,Closed,
0.9370117,-0.3022461,0.01416016,1.085938,0.9125977,0.5405273,0,-1,-1,1,0,-1,0,-1,-35,-34,-55,-48,-5,-20,-29,-32,-22.9375,-22.9375,-22.9375,-11.5,-11.5,-11.5,2.330424,2.974248,7.561621,6.754473,3.476372,0.6939533,-0.1680653,-0.4634016,1.230976,0.1454448,-0.4047582,1.135951,0.03076606,0.3068977,1.291019,-0.2102853,-0.4516516,1.232124,0.1686247,-0.4386729,1.15425,0.02360878,-0.1177831,1.326484,0.0163242,-0.4194942,1.316782,-0.1386473,0.04787676,1.285991,-0.05465029,-0.4075325,1.284405,-0.1739941,-0.2046733,1.295199,0.2256247,-0.1882839,1.297979,NA,NA,NotTracked,Closed,
0.9389648,-0.3027344,0.009277344,0.7832031,0.6948242,0.7885742,3,-2,-1,-1,-2,-1,-1,1,-15,-13,-15,-13,-11,-9,3,-8,-16.5,-16.5,-16.5,-33.6875,-33.6875,-33.6875,2.286003,2.96745,7.574523,6.457966,3.999254,1.022654,-0.1686536,-0.4635036,1.230871,0.08214976,-0.2895774,1.101582,0.03111192,0.3070082,1.291029,-0.209836,-0.4578031,1.228947,0.04611802,-0.2791286,1.144,0.0229052,-0.1176449,1.326711,0.01505689,-0.4192499,1.316933,-0.1373876,0.04806326,1.284722,-0.05551088,-0.4070729,1.284296,-0.1738956,-0.2045176,1.294985,0.2307438,-0.1657888,1.287552,NA,NA,NotTracked,Unknown,
0.9453125,-0.2871094,-0.01171875,0.5556641,0.6088867,0.7387695,0,0,0,0,1,0,-1,-1,-11,-9,-22,-28,-8,2,5,1,-10.625,-10.625,-10.625,-20.3125,-20.3125,-20.3125,2.267335,2.966019,7.581667,6.39659,4.200143,1.113118,-0.1682668,-0.4609282,1.231597,0.07878052,-0.2269804,1.082229,0.03149985,0.3069401,1.290996,-0.2099745,-0.4593815,1.232259,0.06119166,-0.2667174,1.098,0.0227172,-0.1175317,1.326918,0.01499123,-0.4190673,1.317198,-0.1371713,0.04781231,1.284293,-0.05546327,-0.4070185,1.284413,-0.1737659,-0.2044284,1.294197,0.2343652,-0.1536717,1.274066,NA,NA,NotTracked,Unknown,
0.9492188,-0.2661133,-0.03320313,0.1879883,0.5507813,0.6777344,-2,-1,-1,-2,-2,-1,0,1,12,7,-29,-26,-9,-10,1,-6,-4.75,-4.75,-4.75,26.4375,26.4375,26.4375,2.249506,2.966579,7.589899,6.346308,4.814126,1.360292,-0.1681598,-0.4633145,1.229979,0.0249008,-0.1603515,1.071699,0.03201631,0.3069195,1.291009,-0.2093288,-0.4555103,1.229141,0.01019973,-0.1530941,1.108333,0.02258792,-0.1173335,1.327072,0.01482343,-0.4186053,1.317326,-0.1368382,0.04772703,1.284044,-0.05548954,-0.4066184,1.28457,-0.1736672,-0.2043743,1.293598,0.23113,-0.1473416,1.244208,NA,NA,NotTracked,Unknown,
0.9423828,-0.2700195,-0.03564453,0.05419922,0.5288086,0.5708008,-1,-1,-1,-1,-2,0,0,-2,1,-1,-5,-3,-5,-1,-2,-10,-6.125,-6.125,-6.125,27.0625,27.0625,27.0625,2.238387,2.968878,7.594738,6.408931,5.340219,1.635548,-0.1676201,-0.4630142,1.227624,0.003138599,-0.04757219,1.093918,0.03348557,0.3071425,1.291444,-0.2062669,-0.4454341,1.222209,0.01112789,0.003557551,1.126,0.02257676,-0.1173271,1.327272,0.01486303,-0.4183618,1.317495,-0.1337737,0.04809321,1.281585,-0.05511793,-0.4061827,1.285801,-0.1730641,-0.2048735,1.291746,0.2398405,-0.1576803,1.18611,NA,NA,NotTracked,Unknown,
0.949707,-0.25,-0.05029297,-0.06396484,0.5429688,0.5288086,-2,-1,-2,1,0,-1,-2,-2,-10,-9,5,-1,-9,2,3,-1,-3.75,-3.75,-3.75,21.25,21.25,21.25,2.225903,2.971019,7.603032,6.447864,5.478164,1.744352,-0.1668793,-0.4625735,1.226627,-0.009420031,-0.009368827,1.110207,0.03440861,0.3071844,1.29203,-0.2049177,-0.4563509,1.218395,-0.03748302,-0.04915632,1.15,0.02251395,-0.1173899,1.327429,0.01488686,-0.4183787,1.317562,-0.1318502,0.04793632,1.279663,-0.05499526,-0.4062449,1.286284,-0.172935,-0.2050049,1.291026,0.2260053,-0.137507,1.188192,NA,NA,NotTracked,Unknown,
0.934082,-0.2626953,-0.04589844,-0.07861328,0.4570313,0.5244141,-1,1,-1,0,0,-1,0,0,-9,-24,-18,-5,-14,-6,2,-2,-3.25,-3.25,-3.25,47.0625,47.0625,47.0625,2.210727,2.973431,7.614156,6.647516,5.756251,2.088787,-0.1668574,-0.4624579,1.226722,-0.01201422,0.002160383,1.13554,0.03571303,0.3071088,1.292884,-0.2067907,-0.4552582,1.222362,-0.03352624,-0.01826611,1.112594,0.02259785,-0.1175271,1.32764,0.01514178,-0.4186573,1.317698,-0.1234187,0.0442551,1.270212,-0.05473242,-0.4065342,1.286406,-0.1725213,-0.204842,1.290379,0.2299115,-0.1373707,1.175813,NA,NA,NotTracked,Unknown,
0.9389648,-0.2617188,-0.05322266,-0.09814453,0.6171875,0.4047852,2,1,-2,-1,0,-1,0,0,12,-3,-15,-8,-8,-3,-12,-15,9.125,9.125,9.125,8.6875,8.6875,8.6875,2.205888,2.97559,7.625789,6.779552,5.822529,2.320784,-0.1665742,-0.4619196,1.225881,0.01942696,-0.01888173,1.150573,0.03672113,0.3069792,1.293417,-0.2079701,-0.4556725,1.226616,-0.001957549,-0.06012502,1.174476,0.02266196,-0.1176425,1.327735,0.01538738,-0.4189141,1.317649,-0.1225304,0.04445991,1.269756,-0.05449984,-0.4067898,1.286304,-0.1719962,-0.204942,1.289636,0.2246639,-0.1320945,1.176052,NA,NA,NotTracked,Unknown,
0.9267578,-0.2753906,-0.05273438,-0.121582,0.5883789,0.4458008,0,0,-2,-2,-3,0,0,1,10,21,64,54,27,9,-6,20,14.1875,14.1875,14.1875,-7.75,-7.75,-7.75,2.20583,2.976875,7.63419,6.830493,5.832633,2.434887,-0.1664438,-0.4622848,1.225513,0.01881522,-0.01820173,1.159537,0.03779703,0.3068241,1.293958,-0.2096878,-0.4451183,1.233222,-0.002224182,-0.060389,1.174187,0.0227291,-0.1176588,1.327862,0.01546409,-0.4189287,1.31765,-0.1222073,0.04467062,1.269683,-0.05439038,-0.4068268,1.286195,-0.1717097,-0.204699,1.289089,0.219873,-0.1251049,1.173633,NA,NA,NotTracked,Unknown,
0.9335938,-0.284668,-0.03955078,-0.2773438,0.5117188,0.3139648,1,-1,-2,0,-1,-1,0,-1,-45,57,3,-21,-11,-6,-11,-26,25.625,25.625,25.625,-5.625,-5.625,-5.625,2.212808,2.978654,7.653629,6.879466,5.825455,2.54115,-0.1660509,-0.4648841,1.224663,0.023363,-0.02348277,1.16598,0.03830376,0.3068156,1.294282,-0.2045764,-0.4578233,1.218948,-0.002158987,-0.06043255,1.17433,0.0227991,-0.1176815,1.327915,0.01554648,-0.4189557,1.31761,-0.1221861,0.04476455,1.269801,-0.05428622,-0.4068702,1.286121,-0.1715895,-0.204653,1.28895,0.2153711,-0.1231885,1.169028,NA,NA,NotTracked,Unknown,
0.9072266,-0.2353516,-0.07177734,-0.4970703,1.254395,-0.1704102,-2,-1,-1,0,-1,-1,-1,-1,33,4,23,26,-5,-6,8,12,34.625,34.625,34.625,-51.6875,-51.6875,-51.6875,2.235337,2.97711,7.668779,6.966251,5.730621,2.750899,-0.166996,-0.4643352,1.22532,0.02537752,-0.02561884,1.169055,0.03906076,0.3068906,1.294841,-0.2076759,-0.4533816,1.225716,-0.0003771987,-0.06328005,1.174364,0.02286925,-0.1177042,1.327952,0.0156598,-0.4189847,1.317464,-0.1222735,0.04495249,1.270163,-0.05417795,-0.4069227,1.286012,-0.1713887,-0.2045653,1.288698,0.2118577,-0.121778,1.164764,NA,NA,NotTracked,Unknown,
1.000977,-0.2578125,0.01074219,-0.4453125,0.8623047,0.3149414,-3,0,0,-1,-2,-4,-7,-3,7,-8,-11,-13,-7,1,26,14,4.375,4.375,4.375,10.5,10.5,10.5,2.218454,2.975838,7.701101,6.961266,5.73943,2.727045,-0.167441,-0.4650243,1.22666,0.02035783,-0.02188433,1.163569,0.03978071,0.3068541,1.295458,-0.2074079,-0.4570877,1.22398,-0.004134889,-0.06295866,1.17345,0.023061,-0.1178024,1.328,0.01579055,-0.4191176,1.317184,-0.1223332,0.04510222,1.270571,-0.05403282,-0.4070686,1.285757,-0.1711729,-0.2047946,1.288565,0.2084183,-0.1202266,1.161005,NA,NA,NotTracked,Unknown,
0.9262695,-0.3500977,-0.01953125,-0.340332,0.9658203,0.4013672,1,-1,-1,-1,0,0,-1,-3,-16,-19,-13,-6,-13,-12,-24,-13,14.75,14.75,14.75,56.75,56.75,56.75,2.202024,2.976425,7.727812,6.972904,5.75788,2.677662,-0.168135,-0.466193,1.228413,0.01963491,-0.02098024,1.161962,0.04017476,0.306831,1.296134,-0.2093265,-0.4582522,1.228721,-0.003857341,-0.06231292,1.173878,0.02318151,-0.1178464,1.32803,0.01582733,-0.4191473,1.317126,-0.1222494,0.0451434,1.270583,-0.0539526,-0.4071445,1.285502,-0.1711344,-0.2048501,1.288573,0.2073418,-0.1198204,1.160164,NA,NA,NotTracked,Unknown,
0.9135742,-0.2451172,-0.03662109,-0.5234375,0.7529297,0.3266602,-2,0,-1,-2,0,0,-1,-2,28,-22,-15,-7,-2,5,16,1,-2.0625,-2.0625,-2.0625,-16.5,-16.5,-16.5,2.184835,2.967023,7.75253,6.944885,5.786875,2.637439,-0.1685679,-0.4660349,1.23035,-0.02472123,0.02238333,1.167562,0.04038753,0.3068795,1.296544,-0.2079009,-0.4572494,1.225058,-0.05659673,-0.02119355,1.172582,0.02334008,-0.1178974,1.328091,0.01587,-0.4191919,1.317066,-0.1218485,0.04525609,1.270429,-0.0538869,-0.407227,1.285333,-0.1710771,-0.2048793,1.28868,0.2065833,-0.1191574,1.158814,NA,NA,NotTracked,Unknown,
0.9223633,-0.3271484,0.001464844,-0.5234375,0.7529297,0.3266602,-3,0,-2,0,0,1,0,-2,-8,-13,-2,-6,-4,1,17,36,-14.3125,-14.3125,-14.3125,-16.5,-16.5,-16.5,2.161568,2.964944,7.762468,6.944885,5.786875,2.637439,-0.1692781,-0.4664623,1.231653,-0.02454032,0.005768497,1.159503,0.04071043,0.3068986,1.296926,-0.2088484,-0.4565417,1.225412,-0.03308151,-0.04552728,1.166647,0.0235109,-0.1178867,1.328136,0.01603315,-0.4192049,1.316952,-0.1214716,0.04537412,1.270194,-0.05363017,-0.4072539,1.284963,-0.1710782,-0.2049108,1.288712,0.2054631,-0.1188203,1.158234,NA,NA,NotTracked,Unknown,
0.9438477,-0.296875,-0.03613281,-0.421875,0.9453125,0.3745117,0,-1,-1,-2,-1,-2,-1,0,-13,-1,0,-4,-6,-3,-1,-2,11.4375,11.4375,11.4375,8.125,8.125,8.125,2.155133,2.968275,7.778477,6.959946,5.783541,2.585284,-0.1696462,-0.4671935,1.233781,-0.02429077,0.01147066,1.153166,0.04122923,0.3069626,1.297722,-0.2081634,-0.4463024,1.227,-0.02812911,-0.03439746,1.167629,0.02366748,-0.1179706,1.328154,0.01613494,-0.4193935,1.316771,-0.1209547,0.04551526,1.269764,-0.05349332,-0.4075837,1.284406,-0.1710878,-0.2050896,1.2888,0.2044314,-0.1183113,1.157089,NA,NA,NotTracked,Unknown,
0.9443359,-0.277832,-0.04003906,-0.3911133,0.7421875,0.4785156,1,0,-2,-1,-1,-1,-2,1,-15,-15,-17,14,8,11,-22,6,0.25,0.25,0.25,-8.6875,-8.6875,-8.6875,2.158315,2.969177,7.780572,6.939626,5.76905,2.589741,-0.1705988,-0.4666919,1.233713,-0.03123243,0.02223423,1.164793,0.04141638,0.3071551,1.297939,-0.2088164,-0.4543071,1.22621,-0.06049693,-0.03185765,1.166071,0.02376152,-0.1179919,1.328195,0.0161501,-0.4194087,1.31674,-0.1207561,0.0455588,1.269598,-0.05346471,-0.4075942,1.284311,-0.1710937,-0.2051565,1.288836,0.2036783,-0.1170211,1.154845,NA,NA,NotTracked,Unknown,
0.9199219,-0.2783203,-0.01416016,-0.421875,0.8378906,0.4453125,-1,-1,-1,0,-1,0,0,-1,7,-11,-29,-12,9,-8,-11,-4,-14.375,-14.375,-14.375,-6.8125,-6.8125,-6.8125,2.160364,2.968749,7.767137,6.943487,5.750791,2.635491,-0.1703432,-0.4669028,1.232963,-0.0285013,0.01774708,1.17085,0.04152519,0.307128,1.298197,-0.2090576,-0.4562153,1.225863,-0.03814365,0.01289262,1.130647,0.02384883,-0.1180355,1.32818,0.01619038,-0.4195231,1.316574,-0.1193355,0.04480099,1.26852,-0.05344265,-0.407688,1.28423,-0.1710459,-0.2052625,1.288941,0.2035939,-0.1170837,1.15468,NA,NA,NotTracked,Unknown,
0.9077148,-0.2617188,-0.03662109,-0.4663086,0.7236328,0.2885742,-3,-2,-1,0,-2,0,0,-3,-9,-13,20,5,-5,1,5,11,-20.8125,-20.8125,-20.8125,-11.8125,-11.8125,-11.8125,2.159701,2.967203,7.744464,6.964179,5.731997,2.720589,-0.1701768,-0.4666691,1.231816,0.02230081,-0.02771411,1.165018,0.04165998,0.3071787,1.298296,-0.2086182,-0.4562367,1.225261,-0.03435382,-0.06179392,1.16675,0.02389855,-0.1180392,1.328133,0.01616489,-0.4194869,1.316452,-0.1197616,0.04489423,1.269007,-0.053449,-0.407673,1.284205,-0.1709372,-0.2055241,1.288853,0.2034214,-0.1170672,1.154546,NA,NA,NotTracked,Unknown,
0.9980469,-0.253418,-0.004394531,-0.5078125,1.25293,-0.04101563,3,0,0,-2,-1,-3,-1,-1,3,-20,-1,5,1,-3,0,5,-31.9375,-31.9375,-31.9375,-19.3125,-19.3125,-19.3125,2.145223,2.971324,7.725704,6.989824,5.697522,2.76154,-0.1704466,-0.4666719,1.229708,0.02075919,-0.02560901,1.164385,0.04183813,0.3071995,1.298395,-0.2091434,-0.4545893,1.223989,-0.03803358,-0.05826896,1.165333,0.02394339,-0.118066,1.328122,0.0162133,-0.4195253,1.316231,-0.1205435,0.04515317,1.269831,-0.0534175,-0.4076944,1.284157,-0.1709487,-0.2055737,1.288764,0.2031538,-0.117492,1.154373,NA,NA,NotTracked,Unknown,
0.9438477,-0.3544922,-0.04980469,-0.5107422,0.956543,0.2749023,-3,-2,0,0,-1,-1,-1,-4,-37,-46,-22,-7,-6,-1,1,-53,-17.25,-17.25,-17.25,51.875,51.875,51.875,2.136672,2.979986,7.706806,7.008411,5.75633,2.67108,-0.1704023,-0.4667875,1.229241,-0.03107412,-1.897362E-05,1.170578,0.04194456,0.3072557,1.298474,-0.210457,-0.4551351,1.225703,-0.04674068,-0.0538571,1.165621,0.02399759,-0.1181051,1.328104,0.01629143,-0.4196468,1.316066,-0.1194978,0.04435174,1.268781,-0.0533402,-0.4078283,1.284004,-0.1710238,-0.2055442,1.288451,0.2030891,-0.1174658,1.154357,NA,NA,NotTracked,Unknown,
0.918457,-0.2412109,-0.06298828,-0.5029297,0.9121094,0.2626953,-1,-1,0,0,0,0,0,-2,-21,-12,-9,-1,-4,-4,0,-1,-4,-4,-4,14.8125,14.8125,14.8125,2.155945,2.981717,7.681539,7.002173,5.770651,2.637762,-0.1697093,-0.4659639,1.22677,-0.0306759,0.00211748,1.164603,0.04208793,0.3072004,1.298558,-0.2093151,-0.4561325,1.224814,-0.04365715,-0.05403568,1.164974,0.02405239,-0.1181358,1.328034,0.01634652,-0.4197046,1.315897,-0.1194345,0.04438882,1.268696,-0.05326974,-0.4079208,1.283584,-0.1709099,-0.2056597,1.288158,0.2029043,-0.1172587,1.154098,NA,NA,NotTracked,Unknown,
0.9160156,-0.2734375,-0.04833984,-0.3554688,0.7402344,0.2285156,-2,0,-1,0,-3,1,-1,0,9,-1,6,6,3,-1,-19,2,-2.25,-2.25,-2.25,-3.125,-3.125,-3.125,2.183427,2.985761,7.648448,6.960315,5.782382,2.543015,-0.1684266,-0.4655482,1.224245,-0.02440004,0.01354057,1.138972,0.04220983,0.3071904,1.298592,-0.2089957,-0.4584689,1.22289,-0.03204611,-0.03521279,1.165737,0.0240943,-0.1182283,1.327948,0.01647776,-0.4199615,1.315424,-0.1192237,0.0445314,1.268132,-0.0531659,-0.4081781,1.282917,-0.1709143,-0.2057927,1.287594,0.2026911,-0.1171573,1.154059,NA,NA,NotTracked,Unknown,
0.9296875,-0.2773438,-0.05029297,-0.3027344,0.7250977,0.2675781,0,0,-3,0,1,1,0,2,4,1,-4,-12,-1,7,-1,29,9.1875,9.1875,9.1875,22,22,22,2.212476,2.99157,7.625342,6.90718,5.795491,2.397848,-0.1677471,-0.4648219,1.223274,-0.02309855,0.02275972,1.111425,0.04225728,0.3072022,1.298669,-0.2053213,-0.4636755,1.211161,-0.03628064,-0.002035738,1.127417,0.02411245,-0.1182509,1.327937,0.01654142,-0.4200158,1.315322,-0.1192495,0.0445807,1.268063,-0.05311024,-0.408234,1.282791,-0.1709576,-0.2055442,1.287255,0.2026635,-0.1169854,1.154418,NA,NA,NotTracked,Unknown,
0.9072266,-0.2636719,-0.04101563,-0.3071289,0.7421875,0.3276367,-4,-3,2,0,-2,-2,0,-1,0,7,6,14,7,5,11,0,5.375,5.375,5.375,3.375,3.375,3.375,2.239092,2.991642,7.606388,6.80155,5.760609,2.122201,-0.1673414,-0.4644161,1.221633,-0.04664098,0.03725648,1.099142,0.04227606,0.3072329,1.298774,-0.2090418,-0.4504938,1.226929,-0.02173923,0.07002288,1.120778,0.02408905,-0.1182575,1.327893,0.01653432,-0.4200091,1.31516,-0.1222868,0.04554192,1.270309,-0.05311634,-0.4082338,1.28276,-0.1709284,-0.205662,1.28686,0.2028045,-0.1171199,1.154885,NA,NA,NotTracked,Unknown,
0.9238281,-0.2646484,-0.01611328,-0.2915039,0.5820313,0.4121094,3,0,-1,-2,-2,-1,-2,-2,-1,0,1,-1,2,2,13,1,-10.5625,-10.5625,-10.5625,-6.5625,-6.5625,-6.5625,2.25257,2.988661,7.585267,6.697246,5.684525,1.903504,-0.1667662,-0.4665171,1.220973,-0.02046895,0.008427831,1.073686,0.04221845,0.3072569,1.298877,-0.2041772,-0.4525643,1.210768,-0.007951419,-0.01963526,1.144333,0.02402266,-0.1182619,1.327881,0.01646808,-0.4199724,1.315085,-0.1251504,0.04650314,1.27291,-0.05320304,-0.4081804,1.282921,-0.1708636,-0.2057961,1.286736,0.203765,-0.1181001,1.156692,NA,NA,NotTracked,Unknown,
0.9511719,-0.2856445,-0.02929688,-0.230957,0.5507813,0.418457,-4,-2,-3,0,-1,1,0,-1,-3,6,8,13,13,5,11,-4,-8.875,-8.875,-8.875,3.5,3.5,3.5,2.252381,2.986962,7.574063,6.653562,5.629034,1.791486,-0.166743,-0.4671842,1.221361,-0.01115964,-0.01307777,1.047776,0.04197036,0.307332,1.29903,-0.2071114,-0.4687499,1.217,-0.004062973,0.01984861,1.047095,0.02396508,-0.1182629,1.327887,0.01640028,-0.419916,1.315016,-0.1264858,0.04681045,1.274462,-0.0532954,-0.4080819,1.283254,-0.170865,-0.2063265,1.286537,0.2235265,-0.140929,1.155182,NA,NA,NotTracked,Unknown,
0.9555664,-0.3032227,-0.02050781,-0.1079102,0.659668,0.5195313,-6,-2,-1,-3,0,-3,0,-7,0,-4,-3,2,10,4,-8,2,7.6875,7.6875,7.6875,-2.5625,-2.5625,-2.5625,2.26555,2.986695,7.564088,6.583987,5.467218,1.591006,-0.1670754,-0.4670887,1.221125,0.003095441,-0.04123942,1.025689,0.04109684,0.307578,1.299742,-0.2092797,-0.4407727,1.226063,-0.00668668,0.01398731,1.055,0.02390536,-0.1182576,1.327894,0.01615128,-0.4197724,1.314829,-0.1291172,0.04659188,1.276854,-0.05353257,-0.4078958,1.283658,-0.1709104,-0.2064161,1.286451,0.2268032,-0.145102,1.157917,NA,NA,NotTracked,Closed,
0.9614258,-0.3095703,-0.03076172,-0.1396484,0.5429688,0.4799805,0,-2,1,1,-1,-1,2,0,1,-2,-1,12,14,2,13,32,17.625,17.625,17.625,-12.8125,-12.8125,-12.8125,2.277508,2.986801,7.56202,6.514621,5.285951,1.381136,-0.167351,-0.4667124,1.220862,0.0152413,-0.07427561,1.004059,0.04004234,0.3078703,1.300205,-0.2050989,-0.4556878,1.19925,-0.0008236302,-0.02529517,1.0232,0.02375871,-0.1181524,1.32785,0.01590931,-0.4194423,1.314525,-0.1303,0.04608409,1.278104,-0.05364143,-0.4076965,1.283686,-0.1707897,-0.2064894,1.28617,0.2283988,-0.150995,1.161026,NA,NA,NotTracked,Closed,
0.9277344,-0.2993164,-0.02734375,0.1147461,0.6586914,0.5922852,3,-1,-1,-2,-2,-2,-1,0,-4,-3,-3,-5,-6,7,-6,-8,27.375,27.375,27.375,10.1875,10.1875,10.1875,2.311891,2.987457,7.555883,6.502576,5.043671,1.2082,-0.1665395,-0.466992,1.220413,0.04106387,-0.1185873,0.9946631,0.03909581,0.3081924,1.300296,-0.2069027,-0.4625099,1.21965,0.01398651,-0.075804,0.9831539,0.02328173,-0.1180308,1.327681,0.0156903,-0.4191963,1.314213,-0.1312906,0.04558473,1.279229,-0.05379652,-0.4074632,1.283479,-0.1710092,-0.2068148,1.285954,0.2575295,-0.1695907,1.201557,NA,NA,NotTracked,Unknown,
0.9155273,-0.2832031,0.001464844,0.06640625,0.6743164,0.5791016,1,1,-1,-1,-2,-2,-2,2,-3,-21,-11,-13,-15,-25,-45,-16,25.5,25.5,25.5,-16.3125,-16.3125,-16.3125,2.350702,2.986995,7.547254,6.498938,4.783235,1.027758,-0.1669137,-0.4674573,1.22146,0.05782481,-0.163088,0.985094,0.0378988,0.3085045,1.300692,-0.2111229,-0.4521146,1.230818,0.03057036,-0.1224657,0.9843334,0.02258103,-0.1178004,1.327523,0.0152361,-0.4188434,1.313866,-0.1313175,0.04563404,1.279349,-0.0541952,-0.4071856,1.283192,-0.1710203,-0.2068169,1.285952,0.2569892,-0.1691816,1.202333,NA,NA,NotTracked,Unknown,
0.9155273,-0.2832031,0.001464844,0.06640625,0.6743164,0.5791016,1,1,-1,-1,-2,-2,-2,2,-3,-21,-11,-13,-15,-25,-45,-16,25.5,25.5,25.5,-16.3125,-16.3125,-16.3125,2.350702,2.986995,7.547254,6.498938,4.783235,1.027758,-0.1669675,-0.4671678,1.220909,0.07624944,-0.2132277,0.9811022,0.03661831,0.3089016,1.30072,-0.2081721,-0.45596,1.220038,0.08097258,-0.1958551,0.9426472,0.02179603,-0.1177005,1.327412,0.014686,-0.4188434,1.313365,-0.1314091,0.04570263,1.279442,-0.05467816,-0.4072139,1.282678,-0.1711163,-0.206693,1.285946,0.2620236,-0.1635424,1.219306,NA,NA,NotTracked,Unknown,
0.9003906,-0.2709961,0.01708984,0.2963867,0.5839844,0.5795898,0,-1,-2,0,-2,0,0,0,22,-17,-19,2,3,-1,-5,13,5.375,5.375,5.375,46.6875,46.6875,46.6875,2.367337,2.982579,7.544127,6.557631,4.489033,0.8721972,-0.1676697,-0.4670138,1.222594,0.09844459,-0.2643071,0.9891893,0.03477781,0.309273,1.301312,-0.2095506,-0.4664175,1.231375,0.09899022,-0.2444518,0.9538422,0.02020445,-0.1177534,1.326999,0.01267535,-0.4192598,1.312117,-0.1343511,0.04449699,1.281624,-0.05645454,-0.4073659,1.28142,-0.1711698,-0.2067406,1.286032,0.2598802,-0.1647651,1.219146,NA,NA,NotTracked,Unknown,
0.9501953,-0.2675781,0.02880859,0.5410156,0.9194336,0.8032227,-4,-3,-3,-2,-1,0,-1,-1,-16,-24,-8,-10,-10,-1,2,1,-29.8125,-29.8125,-29.8125,43.5625,43.5625,43.5625,2.348781,2.979499,7.540729,6.679626,4.198122,0.7220542,-0.1680137,-0.4684262,1.2228,0.1172888,-0.3131415,1.001289,0.03356556,0.3094783,1.301247,-0.2076601,-0.4524209,1.222176,0.07882681,-0.2940472,0.9755456,0.01824898,-0.1178452,1.326616,0.009813461,-0.4198715,1.310968,-0.1343837,0.04457734,1.281663,-0.05947059,-0.4073834,1.280407,-0.1712817,-0.206688,1.286212,0.254347,-0.168413,1.223229,NA,NA,NotTracked,Closed,
0.9863281,-0.3266602,0.002441406,0.6655273,0.9169922,0.2114258,-3,-1,-2,-1,-2,-2,-3,0,-5,-11,4,8,3,-7,-14,-8,-32.3125,-32.3125,-32.3125,13.9375,13.9375,13.9375,2.311265,2.98145,7.540267,6.733666,4.048701,0.6373175,-0.1682677,-0.4683918,1.223615,0.144754,-0.3557337,1.026959,0.03222296,0.3097214,1.301423,-0.2061807,-0.4515626,1.215286,0.1056862,-0.3448438,1.015278,0.01693491,-0.118143,1.326264,0.008320873,-0.4206433,1.310265,-0.1365293,0.0437031,1.282718,-0.06126443,-0.4078147,1.279863,-0.1715041,-0.2066804,1.286251,0.213974,-0.1727336,1.254512,NA,NA,NotTracked,Closed,
0.9614258,-0.3134766,-0.01416016,0.722168,0.6855469,0.4438477,-3,-2,-1,0,-1,0,0,0,13,-40,-27,-13,-7,-6,2,-6,-22.5625,-22.5625,-22.5625,-10.5625,-10.5625,-10.5625,2.301607,2.983749,7.537523,6.789723,3.903053,0.5327631,-0.1689034,-0.4685889,1.223641,0.1621005,-0.3898833,1.051035,0.03103866,0.3098544,1.301488,-0.2096581,-0.4544259,1.224874,0.1180818,-0.3920478,1.051286,0.0165537,-0.118337,1.326063,0.008287261,-0.4210859,1.309872,-0.138162,0.04298563,1.28364,-0.06142269,-0.4083357,1.279355,-0.1717755,-0.2068227,1.286373,0.213298,-0.175442,1.254046,NA,NA,NotTracked,Closed,
0.9526367,-0.3012695,-0.03027344,1.124023,0.7148438,0.2685547,-5,-1,-1,-1,-2,-2,-3,-3,-21,2,1,1,0,10,35,10,-2.4375,-2.4375,-2.4375,46.6875,46.6875,46.6875,2.299248,2.992675,7.531736,7.103281,3.532894,0.1986469,-0.1689031,-0.4682645,1.223678,0.1823639,-0.4126698,1.081768,0.02977044,0.3099919,1.301546,-0.2083442,-0.4573925,1.221562,0.1511719,-0.4103063,1.0908,0.0165043,-0.1183886,1.326038,0.008954983,-0.4214219,1.309777,-0.1402139,0.04260214,1.285133,-0.06076895,-0.4089224,1.279325,-0.1719431,-0.2069838,1.286401,0.2131208,-0.1801047,1.254169,NA,NA,NotTracked,Closed,
0.940918,-0.3027344,-0.01708984,1.128418,0.644043,0.09521484,2,0,0,-2,-2,-1,0,1,-9,-5,-7,-5,-5,-5,2,16,15.8125,15.8125,15.8125,60.5,60.5,60.5,2.327679,3.004303,7.515614,7.387139,3.365843,9.931145,-0.1693304,-0.4700799,1.221494,0.1957442,-0.4328618,1.105554,0.02863231,0.3100229,1.301737,-0.2125164,-0.4828719,1.2234,0.1574836,-0.4407094,1.095333,0.01652308,-0.1184532,1.325981,0.01015106,-0.4218273,1.30959,-0.1417038,0.04247151,1.285888,-0.05962612,-0.4096255,1.278974,-0.1720935,-0.2072831,1.286515,0.2125957,-0.1859834,1.254591,NA,NA,NotTracked,Closed,
0.9262695,-0.2958984,-0.01318359,1.091797,0.6503906,0.01660156,-4,0,-2,0,0,-1,-1,-3,3,10,2,-2,-7,-10,-12,-36,24.25,24.25,24.25,19.5,19.5,19.5,2.365841,3.014817,7.502309,7.634403,3.262551,9.687878,-0.1682154,-0.4705353,1.221069,0.2071945,-0.4483933,1.128691,0.02776622,0.310238,1.301625,-0.2115097,-0.4604876,1.2292,0.1781055,-0.4477403,1.143529,0.01657681,-0.118538,1.325941,0.01168434,-0.4225373,1.309552,-0.1421479,0.04214966,1.286045,-0.05811463,-0.4106549,1.278964,-0.1722839,-0.2077004,1.286738,0.2127245,-0.189713,1.255344,NA,NA,NotTracked,Closed,
0.9262695,-0.3046875,-0.005859375,0.9775391,0.5151367,-0.01513672,-2,-1,-2,0,-2,1,0,0,-10,-6,-1,-4,-3,-4,4,25,23.25,23.25,23.25,-3.9375,-3.9375,-3.9375,2.396672,3.021509,7.498183,7.771016,3.210174,9.531758,-0.1680933,-0.4700969,1.221012,0.2233498,-0.4606658,1.167784,0.02629535,0.3104157,1.301337,-0.2078449,-0.4618201,1.216519,0.1893125,-0.4663531,1.176724,0.01684813,-0.1186582,1.325833,0.01437669,-0.4230498,1.309715,-0.1410851,0.04288097,1.285407,-0.05548558,-0.4115064,1.279164,-0.1729766,-0.2078977,1.287327,0.2145232,-0.1968277,1.261796,NA,NA,NotTracked,Closed,
0.9350586,-0.315918,0.02441406,0.9633789,0.394043,0.02001953,-1,-1,-2,0,-2,-1,-2,1,-7,0,-4,-4,-5,-7,-13,-7,16.875,16.875,16.875,4.625,4.625,4.625,2.424405,3.02405,7.491889,7.851011,3.165684,9.436903,-0.1682333,-0.4671389,1.220659,0.2264409,-0.4647367,1.179245,0.02572594,0.3105084,1.301238,-0.2069449,-0.4490138,1.213282,0.191764,-0.4838934,1.14955,0.01698809,-0.1186968,1.325736,0.01519498,-0.4232095,1.309684,-0.1407522,0.04320593,1.285269,-0.05475826,-0.4117505,1.279031,-0.1733159,-0.2079012,1.287653,0.2159571,-0.2007169,1.266882,NA,NA,NotTracked,Closed,
0.9111328,-0.3164063,0.02880859,0.9379883,0.4174805,0.03808594,1,0,-1,0,-1,1,0,2,-12,-6,-2,-1,-3,1,9,-9,7.5,7.5,7.5,30,30,30,2.438911,3.02191,7.489511,7.921269,3.13188,9.384938,-0.1681919,-0.4672431,1.221567,0.2286168,-0.4668163,1.190908,0.02539062,0.3105568,1.301039,-0.2084099,-0.4596718,1.218642,0.1959575,-0.4877939,1.157913,0.01707475,-0.1187482,1.325687,0.01548689,-0.4233531,1.309751,-0.1421102,0.04300208,1.28617,-0.05445354,-0.4119625,1.279037,-0.1738067,-0.2080518,1.288125,0.2171555,-0.2026119,1.270726,NA,NA,NotTracked,Closed,
0.9165039,-0.3256836,0.03271484,0.8916016,0.4589844,0.0004882813,0,-2,0,-1,-1,0,0,-1,7,6,-4,-1,-4,1,16,4,-0.3125,-0.3125,-0.3125,22.5,22.5,22.5,2.436299,3.019867,7.494917,7.98503,3.107875,9.345146,-0.1687544,-0.4668557,1.222401,0.2295769,-0.4682136,1.200297,0.0251494,0.3106185,1.300835,-0.2100685,-0.4671817,1.224625,0.1789817,-0.4813346,1.171333,0.01715866,-0.1187658,1.325675,0.01578405,-0.4233949,1.309848,-0.142931,0.04291546,1.28675,-0.05415465,-0.4120674,1.279119,-0.1743743,-0.2080522,1.288542,0.2180457,-0.2049004,1.275156,NA,NA,NotTracked,NotTracked,
0.9365234,-0.3286133,0.01806641,0.9135742,0.4165039,-0.007324219,-2,-1,-1,-1,-2,-1,-1,-1,5,7,5,1,1,-1,-12,-11,1.125,1.125,1.125,16.875,16.875,16.875,2.427681,3.02071,7.505202,8.009216,3.09542,9.327026,-0.1690467,-0.4675535,1.223507,0.2299481,-0.4677158,1.209951,0.02496997,0.3106477,1.300711,-0.2090194,-0.4590359,1.218558,0.1839861,-0.4124548,1.2148,0.01730366,-0.1188079,1.325633,0.01616325,-0.4234541,1.309949,-0.143886,0.04299389,1.287436,-0.05379391,-0.4122041,1.2792,-0.1749981,-0.2079771,1.289435,0.2188818,-0.206205,1.27903,NA,NA,NotTracked,NotTracked,
0.934082,-0.3227539,0.015625,0.9472656,0.3515625,-0.05957031,0,1,0,0,0,-1,-3,0,1,11,9,2,-1,-1,0,-2,-0.4375,-0.4375,-0.4375,11.75,11.75,11.75,2.421722,3.022644,7.512547,8.045369,3.070257,9.29997,-0.1690601,-0.4676456,1.223423,0.2290402,-0.4660994,1.216535,0.02488159,0.3106306,1.300653,-0.2095775,-0.4655309,1.220853,0.1742603,-0.4094108,1.214,0.01743648,-0.1188713,1.325631,0.01655188,-0.4236096,1.31008,-0.1442653,0.04281653,1.287721,-0.05347027,-0.4124205,1.279268,-0.1754465,-0.2080377,1.289774,0.2193139,-0.2069681,1.282256,NA,NA,NotTracked,NotTracked,
0.9243164,-0.3105469,0.005371094,0.9316406,0.3447266,-0.07763672,1,-2,1,0,2,0,1,-1,6,0,0,-1,-2,-2,-4,-5,-4.3125,-4.3125,-4.3125,9.5,9.5,9.5,2.419664,3.023788,7.511675,8.058763,3.047582,9.295675,-0.1690608,-0.4676429,1.223812,0.2273998,-0.4668816,1.221346,0.02481988,0.3105882,1.300602,-0.2129564,-0.4534814,1.232778,0.1772045,-0.4120854,1.216322,0.01749789,-0.118943,1.325639,0.01672702,-0.423719,1.3102,-0.1429434,0.04351817,1.286959,-0.05333799,-0.4125364,1.279312,-0.1757806,-0.208247,1.290054,0.2191072,-0.2075572,1.28484,NA,NA,NotTracked,NotTracked,
0.9189453,-0.3144531,0.01806641,0.9379883,0.3837891,-0.09228516,-1,-3,-1,0,-2,-1,-2,0,-4,-7,-5,-3,-1,0,3,3,-9.1875,-9.1875,-9.1875,-3.125,-3.125,-3.125,2.419767,3.024469,7.503491,8.052326,3.032559,9.303611,-0.1697032,-0.4676605,1.22378,0.2217021,-0.4673091,1.229818,0.02480677,0.3105555,1.30053,-0.2123618,-0.4561038,1.225021,0.1768279,-0.4129142,1.216859,0.01779214,-0.119003,1.325734,0.01719616,-0.423745,1.310582,-0.1426609,0.04405893,1.28709,-0.05300235,-0.4126263,1.279469,-0.1761914,-0.2084204,1.290448,0.2190325,-0.2078493,1.288592,NA,NA,NotTracked,NotTracked,
0.9223633,-0.3232422,0.02685547,0.9169922,0.3330078,-0.1005859,-3,-2,0,-2,1,-2,-1,-2,-6,-6,-2,-1,0,0,1,0,-10.8125,-10.8125,-10.8125,-7.8125,-7.8125,-7.8125,2.418826,3.024658,7.498721,8.031295,3.019918,9.31577,-0.169996,-0.467401,1.223891,0.2180253,-0.465648,1.233419,0.0248037,0.3105391,1.300518,-0.2148434,-0.4753008,1.2235,0.1718629,-0.4147567,1.215212,0.01796672,-0.1190128,1.325812,0.01748161,-0.4236382,1.310824,-0.1433207,0.04416947,1.288013,-0.05277798,-0.41261,1.27966,-0.1764115,-0.2084308,1.29071,0.2188831,-0.2076335,1.290516,NA,NA,NotTracked,NotTracked,
0.9282227,-0.3271484,0.01855469,0.934082,0.3452148,-0.1147461,0,-1,0,-1,-2,1,-2,0,3,-9,-6,-5,-6,-4,-5,0,-7.875,-7.875,-7.875,-0.1875,-0.1875,-0.1875,2.415387,3.026268,7.492956,8.007242,3.011004,9.339877,-0.1696027,-0.4672313,1.222212,0.2149099,-0.4657704,1.234385,0.02486143,0.3105392,1.300453,-0.21227,-0.456579,1.22214,0.1934321,-0.4462556,1.251057,0.01802352,-0.1190404,1.325812,0.01750196,-0.4236467,1.310851,-0.1435467,0.04409925,1.288187,-0.05276329,-0.4126406,1.279685,-0.1767754,-0.2079529,1.290816,0.2185845,-0.2077133,1.291265,NA,NA,NotTracked,NotTracked,
0.9272461,-0.3139648,0.0009765625,0.9379883,0.347168,-0.1245117,-2,-1,-1,1,-1,0,0,-4,-1,2,-1,0,2,1,-8,6,-1.5,-1.5,-1.5,-2,-2,-2,2.41233,3.028689,7.491123,7.996239,3.011947,9.350269,-0.1700339,-0.4675331,1.223032,0.2138581,-0.466551,1.234775,0.02493668,0.3105058,1.30041,-0.213838,-0.4510112,1.22416,0.1934547,-0.4459016,1.251442,0.01813045,-0.1190352,1.325859,0.0176357,-0.4235721,1.310979,-0.1438195,0.0440605,1.288456,-0.0526742,-0.4126186,1.279749,-0.1768841,-0.207915,1.290858,0.2184981,-0.2072369,1.292362,NA,NA,NotTracked,NotTracked,
0.9238281,-0.3095703,0,0.934082,0.3027344,-0.1225586,0,0,-1,0,-2,0,1,-1,1,-4,-3,0,0,-1,8,0,-0.375,-0.375,-0.375,-0.0625,-0.0625,-0.0625,2.416048,3.031063,7.486975,7.981966,3.012887,9.363811,-0.1697095,-0.467369,1.221892,0.2125583,-0.4663718,1.234575,0.02505167,0.3104815,1.300362,-0.2120536,-0.462348,1.222136,0.1955228,-0.4421193,1.254348,0.01830817,-0.119031,1.325871,0.01778829,-0.4234829,1.311067,-0.1440459,0.04407359,1.28868,-0.05255388,-0.4125839,1.279767,-0.1769911,-0.207868,1.29085,0.2181642,-0.2069766,1.29341,NA,NA,NotTracked,NotTracked,
0.9238281,-0.3129883,0.0009765625,0.9394531,0.2993164,-0.1162109,-1,-2,-1,-2,-2,-1,0,0,-2,1,-2,0,-3,-10,-21,0,-0.0625,-0.0625,-0.0625,2.6875,2.6875,2.6875,2.417921,3.032579,7.485094,7.980141,3.014012,9.367572,-0.1698671,-0.4673333,1.222383,0.2116006,-0.4648405,1.234987,0.0251726,0.3103754,1.300365,-0.2115425,-0.4568483,1.220682,0.1678578,-0.4411912,1.214714,0.018405,-0.1190575,1.325951,0.01789616,-0.4234731,1.311192,-0.1440674,0.04406107,1.288737,-0.05248946,-0.4125983,1.279815,-0.1770691,-0.2078151,1.290887,0.218191,-0.2066527,1.293975,NA,NA,NotTracked,NotTracked,
