ALX,ALY,ALZ,ARX,ARY,ARZ,EMG0L,EMG1L,EMG2L,EMG3L,EMG4L,EMG5L,EMG6L,EMG7L,EMG0R,EMG1R,EMG2R,EMG3R,EMG4R,EMG5R,EMG6R,EMG7R,GLX,GLY,GLZ,GRX,GRY,GRZ,ORL,OPL,OYL,ORR,OPR,OYR,LHNX,LHNY,LHNZ,RHNX,RHNY,RHNZ,HX,HY,HZ,LTX,LTY,LTZ,RTX,RTY,RTZ,SpineMidX,SpineMidY,SpineMidZ,SpineBaseX,SpineBaseY,SpineBaseZ,ShoulderLeftX,ShoulderLeftY,ShoulderLeftZ,ShoulderRightX,ShoulderRightY,ShoulderRightZ,ElbowLeftX,ElbowLeftY,ElbowLeftZ,ElbowRightX,ElbowRightY,ElbowRightZ,Myo_Pose_left,Myo_Pose_Right,Kinect_pose_left,Kinect_pose_right
0.9345703,-0.3168945,-0.0009765625,0.8803711,0.4321289,0.1513672,-1,0,0,0,-1,0,-1,-2,-3,1,7,2,0,0,-3,-3,3.3125,3.3125,3.3125,2.8125,2.8125,2.8125,2.395259,3.004192,8.566898,6.964155,3.273697,2.579096,-0.1886346,-0.4764426,1.283488,0.1733108,-0.4593655,1.241627,0.007603201,0.3075509,1.336986,-0.1396711,-0.4577413,1.255066,0.2173095,-0.4662866,1.238485,0.001517293,-0.1062855,1.367495,0.004220913,-0.3965419,1.352062,-0.1605295,0.05416895,1.341149,-0.06841946,-0.3874511,1.320328,-0.1937886,-0.1860733,1.351798,0.2032975,-0.174115,1.356878,NA,NA,NotTracked,NotTracked,
0.9326172,-0.3154297,-0.0004882813,0.9047852,0.4609375,0.1425781,-3,-2,-1,-1,-2,1,0,0,2,-1,-4,-4,-2,-2,-2,0,4.375,4.375,4.375,4.75,4.75,4.75,2.396665,3.00473,8.570787,6.961444,3.279682,2.58845,-0.1893159,-0.4761659,1.284122,0.1727626,-0.4585583,1.241289,0.007228964,0.3075739,1.337618,-0.1393767,-0.4536255,1.255485,0.2174097,-0.4683688,1.240933,0.001205938,-0.1063121,1.367803,0.003802614,-0.396572,1.352412,-0.1608788,0.05389899,1.341579,-0.06882942,-0.3874712,1.320661,-0.1938625,-0.1863802,1.352206,0.203222,-0.1741286,1.357046,NA,NA,NotTracked,NotTracked,
0.9301758,-0.3081055,0.009277344,0.9023438,0.4521484,0.1611328,-1,-1,-1,-2,1,-1,-1,-2,-4,1,-2,0,-1,-1,-2,-2,4.125,4.125,4.125,0.5625,0.5625,0.5625,2.400561,3.005967,8.572397,6.942679,3.293606,2.611446,-0.1890873,-0.4762624,1.283743,0.1719708,-0.458097,1.239869,0.007020731,0.3076271,1.338003,-0.1396756,-0.4549144,1.255824,0.2159941,-0.4685737,1.237062,0.001069725,-0.1063232,1.36791,0.003669097,-0.3965727,1.352508,-0.1610669,0.0538468,1.342013,-0.06899284,-0.3874798,1.320832,-0.1940078,-0.1864494,1.352526,0.2030877,-0.1741213,1.357225,NA,NA,NotTracked,NotTracked,
0.9291992,-0.3081055,0.01074219,0.8691406,0.4677734,0.190918,-1,-1,-1,0,0,0,0,0,3,-1,-2,0,0,2,-1,-4,2.3125,2.3125,2.3125,4.1875,4.1875,4.1875,2.40518,3.007868,8.571774,6.91747,3.312797,2.643836,-0.1897193,-0.4764249,1.284025,0.1709959,-0.4563162,1.237834,0.006678627,0.3077534,1.338316,-0.1397519,-0.4535585,1.255178,0.2093186,-0.4628097,1.225975,0.0008966565,-0.1062229,1.368087,0.003405626,-0.3964678,1.35267,-0.162769,0.05407838,1.341077,-0.06925438,-0.3873842,1.321016,-0.1942117,-0.1862529,1.353065,0.2030489,-0.1741103,1.357368,NA,NA,NotTracked,NotTracked,
0.9345703,-0.309082,0.009277344,0.8276367,0.4819336,0.2231445,0,-2,-1,0,-1,-1,0,2,-2,-2,-3,-3,-3,-1,-2,1,2.1875,2.1875,2.1875,2.4375,2.4375,2.4375,2.406807,3.008599,8.571631,6.891704,3.336458,2.67692,-0.1893066,-0.4763129,1.284077,0.1694036,-0.4556031,1.235294,0.006326134,0.3078429,1.338651,-0.1400557,-0.4569739,1.256571,0.2138252,-0.4653657,1.233785,0.0007213888,-0.1062,1.36828,0.003203538,-0.3964825,1.352787,-0.1627129,0.05415155,1.341786,-0.06951585,-0.3873954,1.321167,-0.194292,-0.1862236,1.353259,0.2030385,-0.1741936,1.357626,NA,NA,NotTracked,NotTracked,
0.9282227,-0.3085938,0.01269531,0.8212891,0.4799805,0.222168,-1,0,-2,0,-1,-1,-1,-1,-3,-5,1,3,0,0,-2,-5,2.125,2.125,2.125,-5.0625,-5.0625,-5.0625,2.41155,3.009454,8.569689,6.866189,3.358986,2.701165,-0.1900509,-0.4758777,1.283886,0.1678264,-0.4542331,1.23273,0.006162901,0.3078372,1.33883,-0.1400197,-0.4539633,1.256129,0.2076562,-0.459361,1.228355,0.0005085063,-0.1061898,1.368473,0.002964979,-0.3965015,1.352915,-0.1627334,0.05398948,1.342175,-0.06977776,-0.3874201,1.321365,-0.1944008,-0.1863814,1.353551,0.2031754,-0.1740756,1.358064,NA,NA,NotTracked,NotTracked,
0.9335938,-0.2988281,0.015625,0.8237305,0.46875,0.2148438,-1,-2,-2,-2,-1,-1,-1,0,6,1,1,-1,-2,-2,0,-2,-0.125,-0.125,-0.125,-2.5,-2.5,-2.5,2.41451,3.008182,8.568279,6.847346,3.377084,2.718311,-0.1900633,-0.476508,1.284015,0.165893,-0.4529178,1.229737,0.005911083,0.3078864,1.339128,-0.1407479,-0.4583732,1.256795,0.2084502,-0.4595664,1.230254,0.0001648982,-0.1060905,1.368766,0.002319764,-0.3964064,1.353157,-0.1627394,0.05397285,1.342473,-0.07043804,-0.3872732,1.321633,-0.194411,-0.1864042,1.353782,0.2032285,-0.1739628,1.358344,NA,NA,NotTracked,NotTracked,
0.9306641,-0.3125,0.0078125,0.8300781,0.4833984,0.2050781,-2,2,-2,-1,-1,-1,-2,0,-4,1,-1,-1,-2,0,0,-6,-0.9375,-0.9375,-0.9375,1.25,1.25,1.25,2.414102,3.007181,8.568312,6.840978,3.390306,2.726902,-0.1906386,-0.4763873,1.284958,0.1627919,-0.450303,1.225472,0.005328091,0.307803,1.339759,-0.1402466,-0.4554014,1.255485,0.2032166,-0.4559397,1.219379,-0.0002752516,-0.1061208,1.369183,0.001427908,-0.3964569,1.353404,-0.1627804,0.0537932,1.343026,-0.07132377,-0.3872485,1.321952,-0.1945702,-0.1866066,1.353976,0.2032414,-0.1739795,1.358638,NA,NA,NotTracked,NotTracked,
0.9335938,-0.3081055,0.006347656,0.8486328,0.4702148,0.1992188,-2,0,1,0,0,-1,-1,0,-1,-3,2,-1,-1,-2,-5,-6,-0.6875,-0.6875,-0.6875,0.5,0.5,0.5,2.414024,3.006506,8.567867,6.837296,3.396802,2.73249,-0.1900207,-0.4748293,1.285286,0.1619807,-0.4488886,1.223185,0.005043881,0.307861,1.340217,-0.140279,-0.4547859,1.255644,0.2013909,-0.459045,1.21776,-0.00048849,-0.1061369,1.369358,0.001100362,-0.3964724,1.353538,-0.1628915,0.05370159,1.343369,-0.07167333,-0.3872496,1.32214,-0.1948887,-0.1866671,1.354307,0.2031772,-0.1739837,1.358688,NA,NA,NotTracked,NotTracked,
0.9379883,-0.3041992,0.004394531,0.8574219,0.4580078,0.1933594,1,-3,-1,0,-1,0,1,0,-1,2,3,2,-2,-2,2,6,2.0625,2.0625,2.0625,3.5625,3.5625,3.5625,2.422151,3.007293,8.562399,6.835628,3.398982,2.738542,-0.1904354,-0.4750774,1.28512,0.1606982,-0.4483475,1.221149,0.00483353,0.3077818,1.340517,-0.1416546,-0.4553843,1.258081,0.2018656,-0.4578006,1.220428,-0.0007572612,-0.1061024,1.36958,0.0008044902,-0.3964502,1.353651,-0.1628661,0.05363575,1.343642,-0.07198117,-0.3872362,1.32226,-0.1949444,-0.1867323,1.354474,0.2030659,-0.1738284,1.358703,NA,NA,NotTracked,NotTracked,
0.9335938,-0.300293,0.004882813,0.8725586,0.4897461,0.1816406,-3,-1,0,-2,-2,-1,-3,-3,-10,-8,3,-7,-3,0,-2,-6,0.125,0.125,0.125,7.3125,7.3125,7.3125,2.424667,3.00712,8.56052,6.841024,3.401548,2.742435,-0.1895985,-0.4766422,1.283703,0.1594706,-0.4473387,1.219047,0.004183473,0.3077907,1.341194,-0.1426483,-0.4575622,1.260082,0.2027971,-0.4579717,1.221763,-0.001235955,-0.1060604,1.369819,9.428659E-05,-0.3964464,1.353775,-0.1631232,0.0535026,1.34427,-0.07279263,-0.3871843,1.32248,-0.195071,-0.1869422,1.354582,0.2029851,-0.1740018,1.35863,NA,NA,NotTracked,NotTracked,
0.9287109,-0.309082,0.006835938,0.925293,0.6000977,0.1713867,-2,-1,-1,2,-1,-2,-2,-1,3,-4,-5,9,-3,-2,0,12,0.1875,0.1875,0.1875,-11.875,-11.875,-11.875,2.42979,3.009169,8.55532,6.83032,3.4227,2.752466,-0.1895952,-0.4770716,1.284402,0.1591516,-0.447071,1.217836,0.003829415,0.3079045,1.341864,-0.1417438,-0.4505296,1.25779,0.1968748,-0.4547601,1.210216,-0.001620381,-0.1060955,1.370022,-0.0003474139,-0.3965469,1.353887,-0.163184,0.05341037,1.344446,-0.07321431,-0.3872563,1.322581,-0.1951103,-0.1870282,1.354817,0.2028905,-0.1741721,1.358579,NA,NA,NotTracked,NotTracked,
0.9365234,-0.3081055,0.005371094,1.109375,0.7954102,0.2543945,1,0,-1,0,-1,0,1,1,-2,-14,5,7,0,-13,-5,8,2.875,2.875,2.875,-2.5,-2.5,-2.5,2.432835,3.011144,8.555785,6.784318,3.532028,2.786406,-0.1901017,-0.4749083,1.28501,0.1577941,-0.4399912,1.212636,0.003314021,0.3080668,1.342662,-0.1417557,-0.4600233,1.258123,0.1959064,-0.4438313,1.206406,-0.00220609,-0.1059762,1.370448,-0.001196698,-0.3964429,1.354038,-0.1634304,0.0532557,1.345118,-0.07408869,-0.3870815,1.322796,-0.1952623,-0.1872058,1.355363,0.2029535,-0.1741433,1.358663,NA,NA,NotTracked,Unknown,
0.9384766,-0.3193359,-0.0004882813,1.08252,0.9091797,0.3359375,-2,-1,0,0,-1,0,-1,0,5,-1,2,-10,-10,-1,-1,13,5.3125,5.3125,5.3125,19.1875,19.1875,19.1875,2.430718,3.015159,8.563634,6.772561,3.605235,2.818266,-0.189962,-0.4751509,1.285003,0.1562704,-0.4295787,1.200477,0.002968175,0.3081363,1.343146,-0.1411077,-0.4547898,1.257314,0.1949086,-0.4435646,1.2046,-0.002408789,-0.1059677,1.370634,-0.00182289,-0.3964303,1.354247,-0.1637372,0.05302953,1.345675,-0.0747669,-0.3870014,1.323118,-0.1952747,-0.1874965,1.355677,0.2033874,-0.1740325,1.358919,NA,NA,NotTracked,Unknown,
0.9379883,-0.3344727,-0.009765625,0.7680664,1.121094,0.5947266,-1,-1,-1,-1,-2,0,-2,-1,-94,-31,-31,-5,-18,-39,-33,-87,13.75,13.75,13.75,17.8125,17.8125,17.8125,2.426902,3.021537,8.581367,6.740967,3.826963,2.885869,-0.1907196,-0.4748917,1.285148,0.1513541,-0.4063883,1.183831,0.002810342,0.3081314,1.343366,-0.1417878,-0.4545987,1.258521,0.1536971,-0.3989127,1.141014,-0.002834448,-0.105932,1.370938,-0.00268105,-0.3964034,1.354509,-0.163779,0.05300331,1.34579,-0.07579783,-0.3867871,1.323514,-0.1954037,-0.1874909,1.355947,0.2048767,-0.1735437,1.359393,NA,NA,NotTracked,Unknown,
0.9267578,-0.3129883,0.00390625,0.3349609,0.9350586,0.4125977,0,-2,-1,0,-1,-1,-4,-2,0,7,19,22,13,1,-12,-51,11.8125,11.8125,11.8125,1.0625,1.0625,1.0625,2.428107,3.021512,8.596441,6.723958,4.120121,2.929889,-0.1912127,-0.4746769,1.285347,0.1462281,-0.3722586,1.164636,0.002753395,0.3081762,1.343659,-0.1418289,-0.4547887,1.257893,0.1621234,-0.3899909,1.136217,-0.003558467,-0.1058599,1.371206,-0.004864366,-0.3961995,1.35486,-0.1638775,0.0530016,1.34601,-0.07821853,-0.3861352,1.323812,-0.1957958,-0.1874255,1.356368,0.2069934,-0.1724275,1.359811,NA,NA,NotTracked,Unknown,
0.8847656,-0.3056641,0.01171875,-0.04833984,0.8271484,0.4604492,-2,0,0,-2,0,-3,-1,1,-21,-12,-9,11,12,-18,-61,-59,0.3125,0.3125,0.3125,-8.875,-8.875,-8.875,2.41976,3.01857,8.610269,6.689792,4.41836,2.96317,-0.1912336,-0.4750412,1.285489,0.1352663,-0.3382381,1.153662,0.002667914,0.3081576,1.343914,-0.1413556,-0.4546961,1.257438,0.1562402,-0.3245586,1.11711,-0.004572933,-0.1058641,1.371328,-0.008926241,-0.3962967,1.354647,-0.1638843,0.05300589,1.346031,-0.08207299,-0.3854702,1.323507,-0.1960429,-0.1873394,1.35678,0.2108535,-0.1624465,1.358061,NA,NA,NotTracked,Unknown,
0.8774414,-0.3081055,0.01904297,0.175293,0.6054688,0.3491211,-1,-2,-2,-1,-1,0,1,0,-70,-5,-2,3,27,15,-16,-29,-7.5,-7.5,-7.5,27.625,27.625,27.625,2.408481,3.017055,8.618294,6.712224,4.658122,2.977015,-0.1922426,-0.4746332,1.286585,0.1339075,-0.2950547,1.136703,0.002688815,0.3081474,1.344269,-0.1417834,-0.4546221,1.258116,0.1420759,-0.2573126,1.103857,-0.005094358,-0.105831,1.371516,-0.01008514,-0.3962286,1.354739,-0.163895,0.05304413,1.346207,-0.08309579,-0.3851549,1.323554,-0.1965773,-0.187189,1.357249,0.2144312,-0.1476594,1.353669,NA,NA,NotTracked,Unknown,
0.9213867,-0.3198242,0.03222656,0.3808594,0.5820313,0.5634766,0,-1,-2,-1,-2,-1,0,0,3,-17,-24,-15,-9,-9,-1,-8,-16.6875,-16.6875,-16.6875,62,62,62,2.372039,3.017981,8.640124,6.764149,4.807193,3.02319,-0.1937723,-0.4744951,1.286401,0.133004,-0.2560876,1.118537,0.002705247,0.3081404,1.344496,-0.1425763,-0.4555355,1.257355,0.1536765,-0.2434768,1.086442,-0.005587504,-0.1057717,1.37168,-0.01071871,-0.3961753,1.354798,-0.163952,0.05303359,1.346201,-0.08355092,-0.3850701,1.32363,-0.1967557,-0.1871791,1.357263,0.2180546,-0.1316867,1.342302,NA,NA,NotTracked,Unknown,
0.9433594,-0.3305664,0.02246094,0.3334961,0.6010742,0.5039063,0,-1,-1,-2,0,0,-2,-1,34,19,3,7,11,12,33,68,-12.125,-12.125,-12.125,81,81,81,2.353044,3.019187,8.653678,6.803673,4.869221,3.058076,-0.1948368,-0.4750663,1.286481,0.1291736,-0.2321411,1.103096,0.002767822,0.3081504,1.344647,-0.1435072,-0.4534467,1.258422,0.1590851,-0.2191881,1.076592,-0.005832165,-0.1056702,1.371993,-0.01080321,-0.3960887,1.354883,-0.1640878,0.05307847,1.346244,-0.0835752,-0.3850248,1.323711,-0.1968544,-0.1871466,1.357251,0.2192,-0.1220888,1.332709,NA,NA,NotTracked,Unknown,
0.9619141,-0.3188477,-0.02734375,0.3422852,0.6855469,0.3325195,-1,-3,-1,-1,1,-2,-2,-4,-36,-18,-18,-19,-5,-3,-24,-61,10,10,10,99.3125,99.3125,99.3125,2.328188,3.02545,8.684744,6.907841,4.936813,3.134459,-0.1962772,-0.4772675,1.286915,0.1287623,-0.2136983,1.091217,0.002749898,0.3081625,1.345137,-0.1442635,-0.4557919,1.259857,0.1564995,-0.2131102,1.063508,-0.006071266,-0.1055468,1.372649,-0.01087896,-0.3959808,1.355262,-0.1642711,0.05310123,1.346442,-0.0835654,-0.3849717,1.324307,-0.1970536,-0.1871684,1.35734,0.2213428,-0.1110571,1.315949,NA,NA,NotTracked,Unknown,
0.9448242,-0.2915039,-0.03125,0.1083984,0.925293,0.340332,0,0,0,-2,0,1,2,2,-37,-2,8,0,0,-10,10,-41,23.875,23.875,23.875,74.1875,74.1875,74.1875,2.3562,3.032764,8.679844,6.991934,4.956465,3.20082,-0.1973608,-0.476849,1.284698,0.1270983,-0.1891367,1.075036,0.002703354,0.3081135,1.346528,-0.1459748,-0.4530969,1.259571,0.1489516,-0.2157702,1.03684,-0.006293647,-0.1054335,1.373466,-0.01062096,-0.3956587,1.355997,-0.1644975,0.05322577,1.346992,-0.08320779,-0.3848502,1.325165,-0.197904,-0.1870414,1.357499,0.2300187,-0.09647678,1.294618,NA,NA,NotTracked,Open,
0.9267578,-0.28125,-0.01123047,0.2470703,0.8886719,0.362793,0,1,-3,-2,-2,0,1,3,-18,-42,-58,-17,-10,-11,1,-9,20.1875,20.1875,20.1875,33.1875,33.1875,33.1875,2.404586,3.040158,8.654465,7.029598,4.964336,3.258432,-0.1973674,-0.4765605,1.283458,0.1247938,-0.1824808,1.071881,0.0024402,0.3081644,1.347533,-0.1465273,-0.456003,1.262076,0.1467661,-0.2157697,1.029933,-0.006502443,-0.1053036,1.374103,-0.01052797,-0.3954273,1.356377,-0.1649283,0.05332746,1.347777,-0.08307741,-0.3847229,1.325767,-0.1983989,-0.1870137,1.357715,0.2327827,-0.09419224,1.289876,NA,NA,NotTracked,Open,
0.9199219,-0.3217773,0.02929688,0.1420898,0.9555664,0.4477539,0,-1,1,0,-1,-5,-5,-8,44,75,49,-5,-11,-13,-7,0,17.3125,17.3125,17.3125,50.125,50.125,50.125,2.451558,3.049449,8.625822,7.065677,4.980158,3.319301,-0.1979468,-0.4760732,1.282735,0.1221348,-0.1742696,1.070848,0.002215533,0.3081072,1.348662,-0.147634,-0.4550402,1.263899,0.1438396,-0.2050103,1.026,-0.006730887,-0.1052826,1.374762,-0.0104502,-0.3953513,1.356741,-0.1651654,0.05331975,1.348337,-0.08292677,-0.3848057,1.326364,-0.1987943,-0.1870395,1.358107,0.2364592,-0.09455171,1.285496,NA,NA,NotTracked,Unknown,
0.9165039,-0.3217773,0.04003906,0.1767578,0.565918,0.2216797,-1,-2,1,3,7,1,-5,-1,2,-70,-1,8,7,12,-2,6,27.5,27.5,27.5,21.8125,21.8125,21.8125,2.504315,3.056565,8.614132,7.105008,5.067133,3.470635,-0.1975123,-0.4751642,1.281021,0.1149018,-0.1311999,1.070251,0.001832688,0.3081456,1.349866,-0.1468344,-0.4531219,1.261957,0.1443553,-0.1379419,1.021125,-0.007042204,-0.1051881,1.375462,-0.01037591,-0.3951703,1.357084,-0.1656103,0.05327392,1.349499,-0.08276336,-0.3848268,1.327331,-0.1994904,-0.1871096,1.358964,0.2864375,-0.07998715,1.279048,NA,NA,NotTracked,Unknown,
0.9082031,-0.2636719,-0.0009765625,-0.730957,0.9267578,0.03564453,-1,0,-1,-1,0,0,-1,-2,26,-2,-58,-15,-3,7,59,64,32.625,32.625,32.625,49.9375,49.9375,49.9375,2.519362,3.046707,8.636887,7.167903,5.055048,3.542491,-0.1984761,-0.4760251,1.282163,0.1067822,-0.09732594,1.062453,0.001728598,0.3082181,1.350402,-0.1465744,-0.4498219,1.261881,0.1316746,-0.08313566,1.021625,-0.007247686,-0.1050996,1.37579,-0.01040528,-0.3950146,1.357248,-0.1659111,0.05345565,1.350351,-0.08280782,-0.3847602,1.327687,-0.199712,-0.1869654,1.359579,0.2872541,-0.08896535,1.272826,NA,NA,NotTracked,Unknown,
0.9311523,-0.2724609,-0.0009765625,0.2143555,1.531738,0.3798828,1,-1,-1,1,-1,0,-6,-2,-66,-31,-20,-19,-16,-31,-53,-122,-14.125,-14.125,-14.125,74.9375,74.9375,74.9375,2.471932,3.035716,8.686439,7.276326,5.219272,3.487576,-0.1992303,-0.4770671,1.283706,0.1092751,-0.06025545,1.084597,0.001567085,0.3082119,1.351038,-0.1473193,-0.4501538,1.262156,0.1363247,-0.01322743,1.0415,-0.007513783,-0.1049834,1.376072,-0.01045172,-0.3948017,1.357471,-0.1659678,0.05342307,1.350602,-0.08281986,-0.3847001,1.327877,-0.2000368,-0.1868766,1.360506,0.292032,-0.1058883,1.266122,NA,NA,NotTracked,Closed,
0.9482422,-0.4458008,0.02294922,-0.2255859,0.8701172,0.2231445,0,0,0,-1,-1,1,2,1,51,28,0,6,11,15,27,69,-16.8125,-16.8125,-16.8125,-163,-163,-163,2.42812,3.040779,8.708682,7.176675,5.297321,3.475506,-0.2000505,-0.4775635,1.283991,0.1077719,-0.02341156,1.108637,0.001506706,0.3082403,1.351173,-0.1479178,-0.4517509,1.261598,0.1373694,0.03304579,1.082571,-0.007587707,-0.1049788,1.376259,-0.0104266,-0.3947629,1.357626,-0.1673861,0.05362223,1.34863,-0.08278179,-0.3847505,1.328053,-0.2001952,-0.1865751,1.360942,0.2868846,-0.13219,1.281206,NA,NA,NotTracked,Closed,
0.8984375,-0.4458008,0.01123047,-0.152832,0.2070313,0.1557617,1,2,-1,0,0,1,-5,0,-116,-75,-41,-37,-35,-39,-31,-126,7.375,7.375,7.375,-60.75,-60.75,-60.75,2.422951,3.043474,8.719274,7.032039,5.327112,3.424224,-0.2007752,-0.4768974,1.284942,0.1097981,-0.006204669,1.128198,0.001325342,0.3083151,1.351504,-0.1510352,-0.4647306,1.259148,0.1406851,0.05224433,1.1057,-0.007615002,-0.1050183,1.376348,-0.0104193,-0.3947828,1.357709,-0.1674421,0.05348868,1.349406,-0.08276352,-0.3849492,1.328364,-0.2005578,-0.1866786,1.361558,0.2770238,-0.1436811,1.318046,NA,NA,NotTracked,Open,
0.890625,-0.4003906,0.01806641,-0.152832,0.2070313,0.1557617,1,2,-1,0,0,1,-5,0,-116,-75,-41,-37,-35,-39,-31,-126,27,27,27,-60.75,-60.75,-60.75,2.425913,3.044229,8.732556,7.032039,5.327112,3.424224,-0.2013449,-0.4768377,1.287391,0.1137892,-0.0003719954,1.140052,0.001150499,0.3083256,1.352225,-0.1510741,-0.4425869,1.26492,0.1500158,0.04738926,1.123857,-0.007648367,-0.1050765,1.376526,-0.01040491,-0.3948227,1.357886,-0.1676771,0.05357679,1.350815,-0.08272862,-0.3851908,1.328955,-0.2008126,-0.1866183,1.362685,0.271666,-0.1465421,1.327056,NA,NA,NotTracked,Open,
0.90625,-0.2768555,-0.004394531,-0.4228516,1.056641,0.1308594,-3,-1,-1,0,1,4,3,-1,71,36,26,13,4,-12,-55,-6,27.8125,27.8125,27.8125,-6.75,-6.75,-6.75,2.436775,3.036555,8.781986,7.025641,5.302599,3.374954,-0.2016688,-0.4760307,1.290676,0.1178112,-0.01188399,1.140694,0.00106781,0.3082336,1.352521,-0.1507525,-0.4538163,1.261658,0.1562978,0.03840075,1.121667,-0.007658715,-0.1051829,1.376678,-0.0103824,-0.3948881,1.357979,-0.1676251,0.05359298,1.351588,-0.08267748,-0.3853911,1.329222,-0.2011614,-0.1864517,1.364138,0.2614487,-0.1504533,1.344033,NA,NA,NotTracked,Open,
0.9301758,-0.3041992,0.01074219,-0.3334961,1.131348,0.2958984,-2,-2,-4,0,-1,0,-1,-2,-45,-56,-4,-2,0,-5,-10,-49,1.375,1.375,1.375,-15.875,-15.875,-15.875,2.410318,3.030624,8.819498,6.985212,5.261465,3.324786,-0.2021214,-0.47471,1.293905,0.1196122,-0.01785362,1.138842,0.001020635,0.3081439,1.352716,-0.1515208,-0.452688,1.263101,0.1602447,0.03883582,1.123919,-0.007638169,-0.1052549,1.376787,-0.01035154,-0.394915,1.358052,-0.1676036,0.05347267,1.351821,-0.08262253,-0.3854741,1.329304,-0.2014494,-0.1864875,1.364641,0.2587501,-0.1513972,1.347058,NA,NA,NotTracked,Open,
0.953125,-0.3266602,0.03125,-0.237793,1.100586,0.2397461,-1,-3,-6,0,-1,-1,6,4,4,27,-1,-12,-11,-6,19,-31,-9.75,-9.75,-9.75,-7.125,-7.125,-7.125,2.362281,3.0252,8.86162,6.984026,5.270987,3.320007,-0.2032856,-0.4743712,1.294647,0.1186601,-0.02248668,1.13998,0.001056744,0.3081075,1.352764,-0.1533639,-0.4538544,1.262334,0.1562353,0.02517398,1.123778,-0.007630744,-0.1053141,1.376817,-0.01032286,-0.3949547,1.358062,-0.1675244,0.05343873,1.351925,-0.08257057,-0.3855611,1.329288,-0.201811,-0.1864093,1.36508,0.2572266,-0.1520565,1.346573,NA,NA,NotTracked,Open,
0.9296875,-0.3432617,0.0078125,-0.2543945,0.9682617,0.2285156,0,-1,0,0,3,7,2,-1,64,-15,-14,-18,-13,-7,-8,-19,-10.75,-10.75,-10.75,-10.625,-10.625,-10.625,2.317887,3.025681,8.896874,6.986018,5.280714,3.326651,-0.2047345,-0.4748389,1.296929,0.1177346,-0.02405098,1.140367,0.001147016,0.3080275,1.352896,-0.1569091,-0.4434609,1.265862,0.148252,-0.0169174,1.109533,-0.007610771,-0.1053549,1.37685,-0.01031097,-0.3949654,1.358076,-0.1673956,0.0534079,1.352036,-0.08255582,-0.3855832,1.329279,-0.2019533,-0.1863684,1.365412,0.2553516,-0.1528832,1.345473,NA,NA,NotTracked,Open,
0.9106445,-0.3618164,-0.004882813,-0.1220703,0.921875,0.3242188,-1,-2,-3,-3,-2,-5,-1,-1,61,30,8,-2,3,9,18,28,-1.3125,-1.3125,-1.3125,19.0625,19.0625,19.0625,2.288968,3.029683,8.924488,6.993971,5.28075,3.322787,-0.2059962,-0.4732872,1.298761,0.1169166,-0.02345143,1.140591,0.001430249,0.3081204,1.353165,-0.1576285,-0.4713719,1.262444,0.1477058,-0.02642952,1.109463,-0.007607393,-0.1053733,1.377003,-0.01033005,-0.3949364,1.358188,-0.1671017,0.05355164,1.352407,-0.08255065,-0.3855708,1.329341,-0.2021964,-0.1861339,1.365846,0.2529264,-0.1535382,1.348818,NA,NA,NotTracked,Open,
0.9501953,-0.3286133,-0.01367188,-0.2167969,0.9863281,0.3120117,-1,0,-1,-2,-1,0,-1,2,5,7,10,13,-1,-6,-6,-13,7.0625,7.0625,7.0625,-1,-1,-1,2.282051,3.033584,8.939843,7.003555,5.280006,3.323865,-0.2070811,-0.4733178,1.29784,0.1172426,-0.02033998,1.13825,0.00164908,0.3081147,1.353334,-0.1584479,-0.4600263,1.259869,0.1550653,0.0247598,1.120333,-0.007605558,-0.1053994,1.377018,-0.01030992,-0.3949422,1.358219,-0.167005,0.05355278,1.352546,-0.08252184,-0.3855832,1.329371,-0.2022972,-0.1860952,1.366032,0.2149397,-0.1288136,1.277871,NA,NA,NotTracked,Open,
0.9150391,-0.3193359,-0.006835938,-0.1459961,0.878418,0.3657227,-2,0,2,0,-2,-3,-1,-1,-14,-15,3,11,13,9,-14,10,1.3125,1.3125,1.3125,3.6875,3.6875,3.6875,2.291821,3.037859,8.933862,6.994189,5.275254,3.322342,-0.2079016,-0.473302,1.296968,0.1184549,-0.02021752,1.13574,0.002326285,0.3081492,1.353733,-0.1602074,-0.4464943,1.266587,0.07607435,-0.01870265,1.211667,-0.007514509,-0.1054486,1.377139,-0.0102405,-0.3949286,1.358285,-0.1664598,0.05377956,1.352811,-0.08246019,-0.3855869,1.329398,-0.2023759,-0.1857719,1.366302,0.2151014,-0.1287434,1.278001,NA,NA,NotTracked,Open,
0.9311523,-0.324707,0,-0.2304688,0.949707,0.3217773,0,1,0,-2,0,-1,-1,-2,19,3,-3,-1,-1,-1,1,24,-3.8125,-3.8125,-3.8125,5.375,5.375,5.375,2.308847,3.045996,8.913373,6.997212,5.277371,3.324509,-0.2080431,-0.4732021,1.296143,0.1186288,-0.0204246,1.136497,0.002754227,0.3081761,1.354197,-0.1581727,-0.45397,1.264487,0.08737319,-0.03055411,1.1683,-0.00743854,-0.1054973,1.377297,-0.01019078,-0.3949458,1.358413,-0.1660468,0.05390187,1.353004,-0.08242525,-0.3856137,1.329453,-0.2023939,-0.1855926,1.366417,0.2193441,-0.1316267,1.283629,NA,NA,NotTracked,Open,
0.9213867,-0.3359375,0.01367188,-0.1005859,0.7905273,0.6791992,1,0,0,0,-1,0,2,-1,2,-2,-11,-2,-2,-2,16,17,-2.5,-2.5,-2.5,-12,-12,-12,2.322525,3.049978,8.897985,6.959439,5.271157,3.31935,-0.2087989,-0.4729935,1.294612,0.1188854,-0.02019182,1.13595,0.003099029,0.308098,1.354505,-0.1594925,-0.4476812,1.26547,0.06720223,-0.03754866,1.120923,-0.007346013,-0.1055311,1.377423,-0.01009088,-0.3949272,1.358595,-0.1659101,0.05389439,1.353194,-0.0823309,-0.3856244,1.329592,-0.20251,-0.1855751,1.366484,0.219138,-0.1316312,1.28341,NA,NA,NotTracked,Open,
0.921875,-0.3364258,0.01757813,-0.1098633,0.9882813,0.3881836,-1,-1,0,-1,0,-1,1,1,5,10,7,-28,-7,-5,-2,2,3.8125,3.8125,3.8125,5.875,5.875,5.875,2.356727,3.058542,8.865271,6.975278,5.286893,3.323039,-0.2076643,-0.4729315,1.29243,0.1190987,-0.02048985,1.135514,0.003440302,0.3080175,1.354776,-0.1592022,-0.4483423,1.267786,0.0670971,-0.037308,1.118485,-0.007221979,-0.1056107,1.377577,-0.009915774,-0.3950014,1.358746,-0.1656872,0.05394505,1.353395,-0.08214612,-0.3857305,1.32968,-0.2025303,-0.1855115,1.366487,0.2188847,-0.1317074,1.283195,NA,NA,NotTracked,Open,
0.918457,-0.328125,0.00390625,-0.2387695,1.025879,0.3481445,-1,1,0,0,-1,0,-3,-1,-12,-8,-4,74,-6,49,-3,-11,5.5625,5.5625,5.5625,-18.0625,-18.0625,-18.0625,2.390124,3.065099,8.837522,6.963498,5.316563,3.314038,-0.2071804,-0.4719225,1.289677,0.1187516,-0.02003115,1.130416,0.003612764,0.3079915,1.35492,-0.1591547,-0.4410427,1.26766,0.06836923,-0.0364776,1.104,-0.007101016,-0.105654,1.377694,-0.009787278,-0.3950264,1.358835,-0.1654512,0.05400899,1.353498,-0.08201965,-0.385766,1.329721,-0.2025399,-0.1854344,1.366393,0.2206821,-0.1336365,1.28643,NA,NA,NotTracked,Open,
0.9287109,-0.328125,0.0004882813,-0.2490234,0.9624023,0.3173828,-2,-1,-2,-2,-3,-2,-1,-1,-7,-4,-10,-62,-25,-11,25,-6,-2.6875,-2.6875,-2.6875,-13.125,-13.125,-13.125,2.41422,3.069247,8.811945,6.954179,5.340344,3.298906,-0.2069073,-0.471947,1.288513,0.1158669,-0.02729779,1.124072,0.003936364,0.3079758,1.355395,-0.1591904,-0.4506447,1.266628,0.06565823,-0.03855563,1.099909,-0.006974417,-0.1057765,1.377873,-0.009682988,-0.3951739,1.359043,-0.1652932,0.05397575,1.353577,-0.08192115,-0.3859186,1.3299,-0.2025296,-0.1854546,1.366382,0.2202087,-0.1333745,1.285843,NA,NA,NotTracked,Open,
0.9204102,-0.340332,0.005371094,-0.418457,0.8886719,0.2050781,-1,0,0,1,-1,-1,-3,-1,24,3,5,-16,2,-7,-16,9,-4.5625,-4.5625,-4.5625,-38.875,-38.875,-38.875,2.433315,3.071876,8.786089,6.923051,5.40162,3.259398,-0.2058864,-0.4713431,1.287154,0.113012,-0.04187071,1.114873,0.004100806,0.3079953,1.355568,-0.1589342,-0.4554105,1.264264,0.07347372,-0.05373121,1.112077,-0.006916952,-0.1057833,1.377941,-0.009583355,-0.395178,1.35916,-0.1650611,0.05406341,1.353748,-0.08185136,-0.3859262,1.329899,-0.2024711,-0.1853722,1.366301,0.2215673,-0.1326355,1.287736,NA,NA,NotTracked,Unknown,
0.8984375,-0.3330078,0.001464844,-0.02392578,0.5205078,0.3447266,0,0,0,0,-1,-1,-1,-1,6,4,9,31,8,-4,-8,-16,-4,-4,-4,-47.9375,-47.9375,-47.9375,2.453192,3.073369,8.760295,6.853809,5.375902,3.204131,-0.2047937,-0.4706409,1.285103,0.1053915,-0.05482745,1.080033,0.004330274,0.3080725,1.355852,-0.1583214,-0.4509594,1.265965,0.06452182,-0.05817777,1.1185,-0.006906597,-0.1057687,1.378023,-0.009589807,-0.3951559,1.359236,-0.1650053,0.05420123,1.353874,-0.0818573,-0.3858982,1.329906,-0.2023926,-0.1852902,1.366039,0.2256634,-0.1308503,1.29369,NA,NA,NotTracked,Unknown,
0.9160156,-0.3237305,-0.0004882813,-0.1977539,0.7475586,0.2451172,0,-3,-1,0,0,-1,0,0,-5,-7,-12,-22,-16,-9,-12,-22,-7.1875,-7.1875,-7.1875,33.125,33.125,33.125,2.471403,3.073451,8.734132,6.857184,5.219608,3.177335,-0.2022498,-0.471698,1.28234,0.1136421,-0.1166348,1.085483,0.004684265,0.3081458,1.35626,-0.157328,-0.4532662,1.272082,0.06190649,-0.1379779,1.1091,-0.00685476,-0.1057084,1.378168,-0.009648986,-0.3951016,1.359358,-0.1649087,0.05433167,1.354059,-0.0819035,-0.385843,1.329957,-0.2022553,-0.1852339,1.365705,0.2302647,-0.1236469,1.296345,NA,NA,NotTracked,Unknown,
0.9150391,-0.3227539,-0.0078125,0.1225586,0.8022461,0.5844727,0,0,-2,-1,0,0,-1,-3,-4,-7,2,4,-2,-8,-14,7,-11.25,-11.25,-11.25,6.0625,6.0625,6.0625,2.482395,3.072419,8.710265,6.867589,5.038864,3.146574,-0.2013719,-0.4715148,1.281092,0.1157387,-0.1421031,1.090212,0.004752522,0.3082171,1.356342,-0.1557084,-0.446254,1.26605,0.07169563,-0.1803215,1.112636,-0.00681625,-0.1056624,1.378246,-0.009627567,-0.3950687,1.359425,-0.1649165,0.05434239,1.354074,-0.08188277,-0.3858199,1.329993,-0.2020954,-0.1852956,1.365366,0.2313782,-0.1206747,1.29884,NA,NA,NotTracked,Unknown,
0.9208984,-0.3320313,0.009765625,0.003417969,0.8300781,0.3354492,-2,0,0,-2,-1,1,-1,0,6,0,-6,-8,-2,-2,3,10,-18.875,-18.875,-18.875,-20.75,-20.75,-20.75,2.485468,3.068759,8.687092,6.849349,4.869776,3.132344,-0.1999969,-0.4712956,1.279722,0.1170954,-0.1671146,1.093892,0.004778924,0.3082431,1.3564,-0.1555075,-0.4532387,1.266234,0.06561717,-0.195336,1.127833,-0.006811884,-0.1056576,1.378244,-0.009616532,-0.3950702,1.359424,-0.1648507,0.05438391,1.354104,-0.08185359,-0.3858117,1.32996,-0.2020224,-0.1853092,1.364967,0.2284691,-0.1143662,1.305443,NA,NA,NotTracked,Unknown,
0.9238281,-0.3476563,0.01513672,0.1450195,0.7529297,0.3232422,0,0,-1,-1,-2,-1,0,0,-4,-6,-10,-5,-8,-9,-17,-4,-20.4375,-20.4375,-20.4375,0.75,0.75,0.75,2.48134,3.065735,8.667165,6.850545,4.646859,3.109703,-0.1980997,-0.4719262,1.280761,0.1262309,-0.2258658,1.106942,0.004739813,0.3083385,1.356548,-0.1511845,-0.448,1.263594,0.06955837,-0.2663962,1.144,-0.006844019,-0.1056541,1.378236,-0.009649195,-0.3951043,1.35941,-0.1648508,0.05438787,1.354099,-0.08188603,-0.3858296,1.329827,-0.2016598,-0.1854835,1.363981,0.221599,-0.1156247,1.322967,NA,NA,NotTracked,Unknown,
0.9204102,-0.3232422,0.01611328,0.3896484,0.7607422,0.4038086,-1,-1,0,-1,0,-1,2,2,4,5,8,6,5,6,7,-4,-27.125,-27.125,-27.125,9,9,9,2.467549,3.057993,8.640865,6.866992,4.303966,3.049464,-0.1974763,-0.4720718,1.280349,0.1292737,-0.2575755,1.113101,0.004712164,0.3083653,1.356546,-0.1532642,-0.4546672,1.264902,0.08023619,-0.2795088,1.135429,-0.006939999,-0.105693,1.378088,-0.0100253,-0.3953212,1.358999,-0.1649729,0.05426324,1.354084,-0.08222366,-0.3858505,1.329216,-0.2014375,-0.1857016,1.363632,0.2395681,-0.1236482,1.333212,NA,NA,NotTracked,Unknown,
0.934082,-0.3393555,0.01464844,0.6879883,0.7626953,0.2128906,-1,0,0,1,-3,0,-3,-1,-5,-3,-7,-1,-1,-1,-1,-9,-29.875,-29.875,-29.875,-10.875,-10.875,-10.875,2.447115,3.053451,8.628715,6.903386,4.060421,2.981515,-0.1973812,-0.4722026,1.282151,0.1407625,-0.3271246,1.136564,0.004502888,0.308487,1.356683,-0.1507258,-0.4406285,1.264277,0.09789049,-0.3556058,1.181182,-0.007448254,-0.105753,1.377942,-0.01140208,-0.395777,1.358473,-0.1651499,0.05411055,1.353905,-0.08389328,-0.3857266,1.328272,-0.2012226,-0.1859692,1.362993,0.22193,-0.1370017,1.339924,NA,NA,NotTracked,Unknown,
0.9858398,-0.3369141,-0.0078125,0.9091797,0.6040039,0.3071289,-1,-1,0,0,1,0,-1,-2,-6,2,-1,-2,0,4,-3,3,-31.5,-31.5,-31.5,-33.25,-33.25,-33.25,2.408192,3.049517,8.614932,6.914868,3.810992,2.897481,-0.196404,-0.4723317,1.282328,0.1471412,-0.3626627,1.15404,0.004326523,0.3086316,1.356765,-0.1518677,-0.4485393,1.264178,0.108972,-0.3838183,1.199,-0.007597863,-0.1057054,1.377901,-0.01182985,-0.3958213,1.358286,-0.165159,0.05410708,1.353905,-0.08449361,-0.3855582,1.327893,-0.2011516,-0.1860443,1.362476,0.2173747,-0.1455135,1.341835,NA,NA,NotTracked,Unknown,
0.9570313,-0.3583984,-0.02148438,0.9287109,0.6791992,0.1547852,-1,-2,-2,-1,0,0,0,-1,1,2,4,1,0,-9,-20,-11,-25.5625,-25.5625,-25.5625,-35.125,-35.125,-35.125,2.40118,3.051991,8.60735,7.02437,3.458326,2.707902,-0.1964025,-0.4726152,1.282437,0.1587483,-0.3882377,1.169763,0.004216544,0.3086641,1.356797,-0.1506175,-0.4542849,1.259917,0.109721,-0.4059753,1.16625,-0.007599877,-0.1056831,1.377807,-0.01171973,-0.3958379,1.358116,-0.1651595,0.05411189,1.353883,-0.08436637,-0.3855191,1.327584,-0.2012152,-0.1860705,1.362089,0.2134236,-0.1537158,1.344137,NA,NA,NotTracked,Unknown,
0.9194336,-0.3452148,-0.04296875,1.013184,0.644043,0.1904297,-1,-3,1,-1,0,-2,-1,-1,-4,-3,-1,1,0,1,2,-3,-9.25,-9.25,-9.25,-41.4375,-41.4375,-41.4375,2.40547,3.061594,8.586946,7.082086,3.351624,2.611898,-0.1961951,-0.4724304,1.2808,0.1782897,-0.4350739,1.220455,0.004047016,0.3088378,1.356996,-0.1505366,-0.4495449,1.261046,0.1336528,-0.4513298,1.207,-0.007120476,-0.1056373,1.377342,-0.01047661,-0.396085,1.35748,-0.1666876,0.05419565,1.350803,-0.08299886,-0.3858887,1.326713,-0.2011977,-0.18593,1.361657,0.2071085,-0.1702488,1.348115,NA,NA,NotTracked,Unknown,
0.8950195,-0.3447266,-0.004882813,1.019531,0.5073242,0.07958984,-1,0,-1,0,-2,0,2,0,-1,-4,-1,-1,-2,-2,7,-2,3.0625,3.0625,3.0625,-39.9375,-39.9375,-39.9375,2.431309,3.074633,8.55969,7.264429,3.166799,2.353761,-0.1964752,-0.4721716,1.279781,0.1835094,-0.447067,1.251835,0.004008268,0.3089309,1.357095,-0.1494614,-0.4468996,1.256507,0.1339846,-0.4086864,1.258048,-0.006632327,-0.1056312,1.377069,-0.009483363,-0.3961969,1.35704,-0.1666472,0.05416557,1.351128,-0.08181861,-0.3861411,1.326028,-0.20129,-0.1859911,1.361546,0.2047969,-0.1746279,1.350456,NA,NA,NotTracked,Unknown,
0.8891602,-0.3549805,0.02490234,1.12207,0.3959961,0.00390625,-1,-1,0,-1,0,-1,0,-2,2,-7,5,3,7,3,-7,-2,4.8125,4.8125,4.8125,-23.3125,-23.3125,-23.3125,2.438778,3.076969,8.555079,7.580931,3.036245,1.982646,-0.1962647,-0.4719891,1.278307,0.1875862,-0.4569871,1.27544,0.004008155,0.3089286,1.357109,-0.1494318,-0.4537502,1.255383,0.1372368,-0.4261774,1.256135,-0.005999598,-0.1057278,1.376691,-0.008310274,-0.3965365,1.356524,-0.1663096,0.0541397,1.351277,-0.08056056,-0.3865719,1.3254,-0.2013482,-0.185981,1.361482,0.201958,-0.175792,1.351976,NA,NA,NotTracked,NotTracked,
0.8974609,-0.3422852,0.04248047,1.109375,0.3828125,-0.1074219,0,0,0,0,-1,-2,-2,-1,-5,9,-1,0,2,2,-12,-13,2.5625,2.5625,2.5625,-22.25,-22.25,-22.25,2.436511,3.072515,8.567521,7.896606,2.969589,1.625139,-0.1968696,-0.4743202,1.278962,0.1942559,-0.46468,1.295323,0.004012906,0.3089389,1.357145,-0.1493901,-0.4650473,1.255081,0.1450766,-0.421907,1.262897,-0.005344218,-0.1058338,1.376484,-0.007373638,-0.3967682,1.356283,-0.1661595,0.05403792,1.351314,-0.07953294,-0.386976,1.325094,-0.2014145,-0.1860736,1.361303,0.1992297,-0.176313,1.354396,NA,NA,NotTracked,NotTracked,
0.9008789,-0.3173828,0.02783203,1.083984,0.3798828,-0.05859375,-1,-1,-1,0,-1,0,-1,-1,-3,2,-2,-2,-6,-11,-23,-7,-8.5,-8.5,-8.5,-13.5,-13.5,-13.5,2.406688,3.061693,8.594706,8.068212,2.93794,1.425665,-0.1972563,-0.4745037,1.279073,0.1989141,-0.4661476,1.310423,0.004039259,0.3089299,1.357141,-0.1500344,-0.4561922,1.255963,0.1500948,-0.4275904,1.270929,-0.004856077,-0.1059102,1.37609,-0.006848977,-0.3968841,1.356015,-0.1661441,0.05401019,1.351329,-0.07896632,-0.3871672,1.324714,-0.2015506,-0.1860935,1.36118,0.1975289,-0.1765855,1.356938,NA,NA,NotTracked,NotTracked,
0.9106445,-0.3139648,0.00390625,0.8955078,0.3510742,0.06445313,0,0,-1,-1,1,0,-1,-2,11,-5,1,1,-1,-1,13,15,-21.125,-21.125,-21.125,-7.125,-7.125,-7.125,2.356991,3.049479,8.626996,8.059918,2.91737,1.411703,-0.1997652,-0.4731229,1.28341,0.2033916,-0.4665782,1.328925,0.00411355,0.3089691,1.357147,-0.1498716,-0.4625373,1.253548,0.1555211,-0.4570213,1.2864,-0.004015433,-0.1058915,1.375637,-0.005935074,-0.3969556,1.355774,-0.1661087,0.05391359,1.351288,-0.07801997,-0.3873624,1.324389,-0.2018947,-0.1862007,1.360528,0.1955011,-0.1765597,1.362352,NA,NA,NotTracked,NotTracked,
0.9257813,-0.3354492,0.002441406,0.8671875,0.355957,-0.02880859,-1,-1,-1,1,-1,1,0,-2,-10,-23,-1,2,1,-6,-31,-18,-20.75,-20.75,-20.75,-7.9375,-7.9375,-7.9375,2.311682,3.037888,8.650434,8.055186,2.919017,1.411164,-0.20053,-0.4727902,1.284212,0.2038039,-0.4662838,1.331898,0.004174921,0.3090468,1.357063,-0.150814,-0.4572941,1.256405,0.1574028,-0.4548247,1.289417,-0.003722527,-0.1058663,1.375395,-0.005708008,-0.3969598,1.355691,-0.1661322,0.05389781,1.351245,-0.07781872,-0.3874153,1.324336,-0.2021984,-0.1862347,1.359936,0.1948916,-0.1765484,1.364747,NA,NA,NotTracked,NotTracked,
0.9448242,-0.3203125,0.004394531,0.9506836,0.3408203,-0.1201172,-1,-1,-2,-4,-2,0,0,-2,3,9,7,-2,-10,-13,-19,1,-10.125,-10.125,-10.125,-37.8125,-37.8125,-37.8125,2.283575,3.027679,8.666203,8.026972,2.931482,1.407846,-0.2016862,-0.4730585,1.285563,0.2039654,-0.46648,1.333284,0.004246044,0.3091383,1.356946,-0.1538817,-0.4669744,1.253594,0.1592721,-0.4483834,1.291889,-0.003636946,-0.1058418,1.37522,-0.005585117,-0.3969358,1.355605,-0.1660042,0.0537666,1.350675,-0.07771052,-0.3874262,1.324249,-0.2024046,-0.1863014,1.359471,0.1944427,-0.1763628,1.366441,NA,NA,NotTracked,NotTracked,
0.9321289,-0.3256836,-0.02148438,0.9951172,0.2495117,-0.07226563,-1,-1,-2,-4,-1,-1,-1,-1,0,7,2,-5,-4,-6,-8,3,-5.125,-5.125,-5.125,-31.375,-31.375,-31.375,2.264503,3.020164,8.680348,7.932112,2.939365,1.463516,-0.2024471,-0.4729774,1.285395,0.2038418,-0.46668,1.33249,0.004276909,0.3091369,1.356865,-0.152475,-0.4580682,1.254996,0.1583722,-0.4478136,1.29052,-0.00348364,-0.1059031,1.374985,-0.005335767,-0.3970121,1.355492,-0.1658638,0.05359166,1.349779,-0.07742199,-0.387575,1.324025,-0.202556,-0.1863819,1.359,0.1937906,-0.1762976,1.367901,NA,NA,NotTracked,NotTracked,
0.953125,-0.3305664,-0.0078125,0.9575195,0.2871094,-0.04589844,0,-1,2,1,0,-1,-1,0,-2,-5,2,9,15,14,-11,0,-10.375,-10.375,-10.375,3.9375,3.9375,3.9375,2.260467,3.018597,8.676153,7.867806,2.950006,1.528345,-0.2018444,-0.4737682,1.286106,0.2028768,-0.4668809,1.331078,0.004276271,0.3091661,1.3567,-0.1539202,-0.4453107,1.254935,0.1600126,-0.437834,1.291452,-0.003436607,-0.1059442,1.374775,-0.005197775,-0.3970708,1.355435,-0.1659051,0.05343138,1.349463,-0.07731246,-0.3876697,1.32397,-0.2027959,-0.1865297,1.358505,0.1935403,-0.1763134,1.368817,NA,NA,NotTracked,NotTracked,
0.9399414,-0.3061523,-0.02392578,0.9472656,0.2783203,-0.04980469,-1,-1,-3,-2,-2,-2,-2,-1,3,-3,-5,-5,1,-8,0,-1,-10.875,-10.875,-10.875,-12.125,-12.125,-12.125,2.263525,3.018644,8.666826,7.808183,2.96262,1.582081,-0.2015707,-0.4739487,1.286519,0.2023117,-0.4660008,1.328342,0.00430043,0.3091089,1.35635,-0.1525991,-0.454467,1.255897,0.1596629,-0.4408435,1.289579,-0.003371819,-0.1059649,1.374699,-0.004982863,-0.3970791,1.355412,-0.165984,0.05339879,1.349395,-0.07708737,-0.3877096,1.32388,-0.2030014,-0.1865979,1.357939,0.193204,-0.1763208,1.369746,NA,NA,NotTracked,NotTracked,
0.9169922,-0.3022461,-0.01074219,0.953125,0.2436523,-0.02197266,-2,0,0,-1,-1,0,-2,-1,-3,-8,-5,-2,-3,-16,-4,1,-18.375,-18.375,-18.375,-3.875,-3.875,-3.875,2.292957,3.021091,8.608976,7.755119,2.972692,1.629751,-0.20127,-0.4735011,1.284922,0.2024861,-0.4655249,1.325428,0.004225505,0.3091013,1.355887,-0.1536562,-0.4599071,1.254157,0.1617598,-0.4327781,1.288207,-0.003405033,-0.1059728,1.37456,-0.004884847,-0.3970838,1.355281,-0.1661367,0.05328836,1.349122,-0.07698453,-0.3877287,1.323656,-0.2030701,-0.186767,1.35726,0.1931506,-0.1762682,1.370432,NA,NA,NotTracked,NotTracked,
0.9248047,-0.3022461,-0.006835938,0.9545898,0.2265625,-0.009277344,-1,-1,-1,-4,-3,-1,-1,0,-2,0,-1,1,3,-3,11,6,-19.5,-19.5,-19.5,6.1875,6.1875,6.1875,2.303169,3.022071,8.587198,7.709145,2.975357,1.681326,-0.2011182,-0.4733836,1.284457,0.202091,-0.4638863,1.323977,0.004182328,0.3091026,1.355769,-0.1527208,-0.4559326,1.2556,0.1595633,-0.4373559,1.289787,-0.003451552,-0.1059787,1.374475,-0.004859552,-0.39707,1.355248,-0.1664037,0.05330755,1.349037,-0.07696301,-0.3877307,1.323611,-0.20327,-0.1867868,1.356921,0.1930424,-0.17628,1.370917,NA,NA,NotTracked,NotTracked,
0.9331055,-0.3056641,-0.01611328,0.9365234,0.2905273,-0.02783203,-2,0,-1,1,-1,-2,0,1,-1,-15,-11,-3,3,8,3,11,-17.75,-17.75,-17.75,3.5,3.5,3.5,2.316623,3.025214,8.55193,7.687601,2.980672,1.710768,-0.2000572,-0.4733509,1.28095,0.2004291,-0.4607813,1.319394,0.003869654,0.3090396,1.354839,-0.1531712,-0.4558181,1.255237,0.1584386,-0.432376,1.286967,-0.003559341,-0.1059699,1.374098,-0.004716758,-0.3970293,1.355044,-0.1667492,0.05329366,1.348601,-0.0768443,-0.3877354,1.32336,-0.2034757,-0.1868934,1.355849,0.1929466,-0.1763545,1.371211,NA,NA,NotTracked,NotTracked,
0.9282227,-0.3164063,-0.02392578,0.9580078,0.2773438,-0.04150391,0,-1,-2,-1,-2,1,0,1,3,1,0,0,-4,-2,11,4,-11.125,-11.125,-11.125,-6.75,-6.75,-6.75,2.323266,3.029612,8.530059,7.673997,2.981759,1.721398,-0.199575,-0.4735514,1.280483,0.1993985,-0.4609904,1.318153,0.003676245,0.3090281,1.354442,-0.1539629,-0.4472723,1.254068,0.1591155,-0.4145558,1.283941,-0.003645041,-0.1059577,1.373938,-0.004604708,-0.3970119,1.354909,-0.1668669,0.05323493,1.348323,-0.0767248,-0.3877322,1.323148,-0.2035247,-0.1870173,1.355065,0.1929437,-0.1763397,1.371349,NA,NA,NotTracked,NotTracked,
0.9345703,-0.2954102,-0.01904297,0.9516602,0.2661133,-0.04394531,-1,0,-1,-2,1,-1,2,0,-4,0,1,2,7,9,13,-13,0.6875,0.6875,0.6875,7.125,7.125,7.125,2.33588,3.031381,8.513377,7.635033,2.981539,1.761761,-0.1988118,-0.4734588,1.279717,0.1984509,-0.4601913,1.31762,0.003474841,0.3090878,1.354099,-0.1527891,-0.4543622,1.255339,0.155044,-0.4538165,1.287105,-0.00369473,-0.105948,1.373826,-0.004439218,-0.3969605,1.354806,-0.1670163,0.05313538,1.348065,-0.07654487,-0.3877194,1.322992,-0.2035391,-0.1871572,1.354624,0.1929007,-0.1762255,1.371431,NA,NA,NotTracked,NotTracked,
0.9282227,-0.2978516,-0.009277344,0.9428711,0.2983398,-0.03613281,-1,-2,-1,0,-1,1,0,-1,-8,0,1,-1,2,2,-2,-13,-1.9375,-1.9375,-1.9375,3.625,3.625,3.625,2.346557,3.029647,8.501532,7.617179,2.986503,1.787622,-0.1980744,-0.4736779,1.278713,0.1958445,-0.4597951,1.313515,0.003027784,0.309034,1.353472,-0.1524561,-0.4477119,1.254189,0.1567334,-0.4164829,1.282095,-0.003835192,-0.1060159,1.3735,-0.004306985,-0.3969717,1.35464,-0.1674369,0.05294235,1.347481,-0.07641166,-0.3878087,1.322838,-0.2037141,-0.1874263,1.353677,0.1927675,-0.1761978,1.371444,NA,NA,NotTracked,NotTracked,
0.9272461,-0.3071289,0,0.9506836,0.269043,-0.03125,0,1,-1,-2,-1,-2,0,0,1,-2,1,-4,-4,0,1,-4,-5.25,-5.25,-5.25,4.9375,4.9375,4.9375,2.350407,3.025419,8.492491,7.597175,2.988444,1.813663,-0.1981829,-0.4732934,1.278148,0.1943223,-0.4601001,1.311463,0.002764973,0.309082,1.353175,-0.1526668,-0.449713,1.253826,0.1556221,-0.4235021,1.281315,-0.003968971,-0.1060777,1.37324,-0.004316392,-0.3970018,1.354504,-0.1676102,0.05287628,1.347309,-0.07645259,-0.3878753,1.322678,-0.2037678,-0.1875283,1.353337,0.1925896,-0.1763366,1.371396,NA,NA,NotTracked,NotTracked,
0.9277344,-0.3110352,-0.01416016,0.9580078,0.3027344,-0.03662109,-1,-1,1,-3,-2,-1,0,0,4,1,3,-2,-10,-9,11,10,-2.875,-2.875,-2.875,10,10,10,2.350985,3.021874,8.488641,7.582561,2.993002,1.841169,-0.1979542,-0.4742226,1.279463,0.1928122,-0.4600928,1.310859,0.002501005,0.3089653,1.352908,-0.1525639,-0.4509707,1.254607,0.1539223,-0.4178829,1.279065,-0.004134336,-0.1061169,1.373089,-0.004304756,-0.3970052,1.354444,-0.1680231,0.05277968,1.34728,-0.07644155,-0.3879066,1.322634,-0.2039023,-0.1876805,1.353176,0.1925665,-0.1763234,1.371392,NA,NA,NotTracked,NotTracked,
0.9321289,-0.3110352,-0.002929688,0.9438477,0.2988281,-0.009765625,0,-1,-1,-1,0,-2,-1,-4,-10,-6,-5,-1,-1,5,11,-5,-0.125,-0.125,-0.125,5.1875,5.1875,5.1875,2.355385,3.017499,8.484114,7.554238,2.998697,1.878116,-0.1981919,-0.4738009,1.278485,0.1913777,-0.4590252,1.307607,0.002273991,0.3088276,1.352728,-0.1525951,-0.450425,1.254083,0.1530571,-0.4154344,1.276448,-0.004331574,-0.1063282,1.372752,-0.004278639,-0.3971248,1.354269,-0.1682894,0.05261231,1.346983,-0.07642172,-0.3880587,1.32248,-0.2039753,-0.1878715,1.352933,0.1924432,-0.1764149,1.371338,NA,NA,NotTracked,NotTracked,
0.9335938,-0.3085938,-0.01171875,0.9414063,0.2954102,-0.015625,1,-1,-2,-1,1,0,0,1,4,0,-2,-2,0,-12,-28,9,-2.5625,-2.5625,-2.5625,12.875,12.875,12.875,2.358665,3.013886,8.47897,7.528191,3.004299,1.92363,-0.1985689,-0.4758742,1.279922,0.1905764,-0.4586825,1.30745,0.002062302,0.3088643,1.352531,-0.1522058,-0.4518635,1.254415,0.1531172,-0.4152232,1.277243,-0.004441472,-0.1063765,1.372709,-0.004285451,-0.3971476,1.354254,-0.1683753,0.05259958,1.346941,-0.07643308,-0.3880833,1.322483,-0.204024,-0.1878906,1.352885,0.1923022,-0.1765162,1.371367,NA,NA,NotTracked,NotTracked,
0.9301758,-0.309082,-0.006347656,0.9306641,0.2983398,-0.02001953,0,-2,-1,-1,-1,0,-1,-1,-5,-8,-4,-2,-2,-9,-21,-3,-3.3125,-3.3125,-3.3125,12.5,12.5,12.5,2.358229,3.011395,8.476018,7.525959,3.006109,1.933418,-0.1987158,-0.4764891,1.280602,0.1884079,-0.4577532,1.304732,0.001337535,0.3088681,1.351702,-0.1515877,-0.4568337,1.252915,0.1503179,-0.4119246,1.274594,-0.004804725,-0.106383,1.372517,-0.004415874,-0.3970794,1.354164,-0.1686168,0.05260515,1.346851,-0.07659274,-0.3880461,1.322405,-0.2041528,-0.1879056,1.352765,0.1916898,-0.1764928,1.371369,NA,NA,NotTracked,NotTracked,
0.9306641,-0.3105469,-0.001953125,0.9487305,0.3061523,-0.01367188,-1,-2,-1,-2,-2,-1,-2,-1,3,2,2,-1,1,0,6,1,-2.9375,-2.9375,-2.9375,8.25,8.25,8.25,2.355295,3.009505,8.47639,7.517507,3.008908,1.953652,-0.1991145,-0.4765181,1.280759,0.1875104,-0.4574756,1.303483,0.0008868809,0.3088499,1.351254,-0.1522657,-0.4549453,1.253972,0.1503507,-0.4116074,1.273983,-0.004950966,-0.1063629,1.372424,-0.004477411,-0.3970542,1.354101,-0.1687632,0.05256493,1.346741,-0.07666515,-0.3880413,1.322357,-0.2042705,-0.1879524,1.352631,0.1915809,-0.1763645,1.371375,NA,NA,NotTracked,NotTracked,
