ALX,ALY,ALZ,ARX,ARY,ARZ,EMG0L,EMG1L,EMG2L,EMG3L,EMG4L,EMG5L,EMG6L,EMG7L,EMG0R,EMG1R,EMG2R,EMG3R,EMG4R,EMG5R,EMG6R,EMG7R,GLX,GLY,GLZ,GRX,GRY,GRZ,ORL,OPL,OYL,ORR,OPR,OYR,LHNX,LHNY,LHNZ,RHNX,RHNY,RHNZ,HX,HY,HZ,LTX,LTY,LTZ,RTX,RTY,RTZ,SpineMidX,SpineMidY,SpineMidZ,SpineBaseX,SpineBaseY,SpineBaseZ,ShoulderLeftX,ShoulderLeftY,ShoulderLeftZ,ShoulderRightX,ShoulderRightY,ShoulderRightZ,ElbowLeftX,ElbowLeftY,ElbowLeftZ,ElbowRightX,ElbowRightY,ElbowRightZ,Myo_Pose_left,Myo_Pose_Right,Kinect_pose_left,Kinect_pose_right
0.9423828,0.2451172,-0.05810547,0.9472656,-0.2705078,-0.1333008,-1,1,-2,-3,1,-2,-9,-1,-6,-6,1,-1,2,3,-3,-6,-0.5,-0.5,-0.5,2,2,2,8.095419,2.930704,0.5344332,1.727566,2.997021,7.675255,-0.2280495,-0.4738943,1.127592,0.2195575,-0.4740988,1.121723,0.009976938,0.3103833,1.159246,-0.2584985,-0.464842,1.131581,0.1859453,-0.4694891,1.100769,0.007294134,-0.1155718,1.189598,0.01494544,-0.4139682,1.182381,-0.1667251,0.05283944,1.165775,-0.05974342,-0.40277,1.151079,-0.2014039,-0.1998174,1.175508,0.2097256,-0.1953297,1.185647,NA,NA,NotTracked,NotTracked,
0.9394531,0.2363281,-0.07714844,0.9550781,-0.2636719,-0.1376953,4,3,0,-1,-4,5,-8,-4,-6,-2,-1,-4,-3,-5,2,-7,-0.5,-0.5,-0.5,2.625,2.625,2.625,8.100022,2.931083,0.5246555,1.73111,2.996215,7.677577,-0.227573,-0.4738651,1.129503,0.2197566,-0.4731869,1.122007,0.01022545,0.3104553,1.159636,-0.2587937,-0.4695404,1.13031,0.1769736,-0.4468951,1.101658,0.007319649,-0.1156133,1.18969,0.01484773,-0.4139846,1.182411,-0.1665561,0.05288959,1.165945,-0.05984952,-0.4027987,1.151191,-0.2011453,-0.1998283,1.175832,0.2098047,-0.1954281,1.185589,NA,NA,NotTracked,NotTracked,
0.9257813,0.2436523,-0.06982422,0.9482422,-0.2739258,-0.1386719,5,1,0,-1,-1,-2,-8,1,5,0,0,1,-1,2,3,-5,1.375,1.375,1.375,1.625,1.625,1.625,8.099671,2.931018,0.5275337,1.732964,2.996358,7.67824,-0.2264863,-0.4747833,1.12873,0.219833,-0.4742098,1.122325,0.01045041,0.3105258,1.159867,-0.255637,-0.4621099,1.129789,0.1849891,-0.4712971,1.10024,0.007320343,-0.1156134,1.189738,0.01472436,-0.4139815,1.182426,-0.166578,0.05272941,1.166297,-0.059963,-0.4027765,1.151197,-0.200846,-0.1998947,1.176114,0.209841,-0.1953901,1.185464,NA,NA,NotTracked,NotTracked,
0.9438477,0.234375,-0.05322266,0.9550781,-0.2695313,-0.1313477,2,2,0,-3,4,-3,-1,2,7,2,3,3,1,-1,-4,-3,-2.5625,-2.5625,-2.5625,-0.5,-0.5,-0.5,8.087105,2.931291,0.5362849,1.734195,2.995921,7.677558,-0.2252837,-0.4738624,1.128631,0.219183,-0.47392,1.120957,0.01068457,0.3105177,1.160103,-0.2550452,-0.4597845,1.127635,0.1721561,-0.4465376,1.1009,0.00744063,-0.1156271,1.189811,0.01471768,-0.4139742,1.182411,-0.1666196,0.05258504,1.166604,-0.0599695,-0.4027795,1.151193,-0.200586,-0.1997299,1.176426,0.209832,-0.1953782,1.18542,NA,NA,NotTracked,NotTracked,
0.9448242,0.2294922,-0.06542969,0.9477539,-0.2714844,-0.1293945,-1,-3,-2,0,0,2,4,2,-5,-8,0,-4,-2,-1,2,-4,-2.0625,-2.0625,-2.0625,2,2,2,8.065103,2.930403,0.5569575,1.737319,2.995666,7.676553,-0.225282,-0.4753577,1.130107,0.2172241,-0.4740151,1.120001,0.01082749,0.310552,1.160311,-0.2559587,-0.4697894,1.133267,0.1729616,-0.4467205,1.0985,0.007496056,-0.1156256,1.189901,0.01466415,-0.413972,1.182412,-0.1664614,0.05246911,1.166772,-0.06003521,-0.4027864,1.151191,-0.2003682,-0.1997856,1.176597,0.2098694,-0.1953259,1.185235,NA,NA,NotTracked,NotTracked,
1.088379,0.3500977,-0.1308594,0.9736328,-0.2807617,-0.1313477,4,-16,-25,-41,-17,-4,3,10,6,0,-2,3,-2,-1,1,3,-5.5625,-5.5625,-5.5625,0.9375,0.9375,0.9375,8.020974,2.93017,0.5973467,1.741046,2.995204,7.674685,-0.2242161,-0.4744168,1.130721,0.2168193,-0.4736989,1.117144,0.01116342,0.31071,1.160881,-0.25314,-0.4941301,1.126222,0.1836183,-0.4668644,1.101826,0.007602644,-0.115596,1.190102,0.01462603,-0.4139632,1.182458,-0.166151,0.05251537,1.166978,-0.06006473,-0.40277,1.151255,-0.1998682,-0.1998384,1.177087,0.2099006,-0.1952307,1.185244,NA,NA,NotTracked,NotTracked,
1.266113,0.5693359,-0.2192383,0.9399414,-0.25,-0.1435547,-7,16,24,0,-27,-22,0,0,-7,-2,-1,-2,4,9,0,-5,-87.5625,-87.5625,-87.5625,6.75,6.75,6.75,7.724699,2.965088,0.8316166,1.757549,2.993457,7.670414,-0.223779,-0.4748976,1.130609,0.1994377,-0.4589152,1.078131,0.01136321,0.3105535,1.161526,-0.2533001,-0.4820554,1.126893,0.1698516,-0.445174,1.093269,0.007693619,-0.1157423,1.190264,0.01454214,-0.4140711,1.182471,-0.1663198,0.05221029,1.167491,-0.0601759,-0.4029368,1.151164,-0.1995262,-0.2000373,1.177523,0.2121703,-0.1933317,1.187461,NA,NA,NotTracked,NotTracked,
1.191895,1.102539,0.8535156,0.956543,-0.2607422,-0.125,45,5,10,65,16,-1,6,19,3,-8,-1,-2,-5,-2,4,6,-77.25,-77.25,-77.25,-26.5,-26.5,-26.5,6.490787,3.619363,1.94855,1.721579,2.988904,7.683472,-0.2140724,-0.4669992,1.132725,0.1737625,-0.368053,0.9836884,0.0115905,0.3104236,1.161861,-0.2537097,-0.4516118,1.135378,0.1510089,-0.3788106,1.006333,0.007176187,-0.1158198,1.190379,0.01073547,-0.4140634,1.18184,-0.1660607,0.05227941,1.167604,-0.06431827,-0.4024843,1.150025,-0.1992591,-0.2001598,1.17806,0.2195574,-0.1794253,1.195144,NA,NA,NotTracked,NotTracked,
0.2592773,0.7783203,0.7851563,0.9267578,-0.3149414,-0.1381836,-19,2,-33,-51,1,4,-14,-21,-4,-7,5,4,2,-1,0,4,-174.0625,-174.0625,-174.0625,-21.625,-21.625,-21.625,6.137455,4.488883,2.144672,1.663123,2.995701,7.696218,-0.21478,-0.46808,1.133327,0.1690654,-0.1384646,0.9232629,0.01217146,0.3103245,1.162176,-0.2541791,-0.4616334,1.134132,0.1713422,-0.1554641,0.90295,0.005990144,-0.1157392,1.190636,0.005744001,-0.413819,1.181443,-0.1658688,0.05227638,1.167659,-0.06921946,-0.4015389,1.14984,-0.1992434,-0.2001597,1.178109,0.2262466,-0.1490617,1.165362,NA,NA,NotTracked,Unknown,
-0.1279297,0.4467773,0.5483398,1.005859,-0.2578125,-0.1533203,48,-31,7,28,6,-12,-11,2,1,-5,-3,-1,-2,-3,-2,1,-155.4375,-155.4375,-155.4375,-15.5,-15.5,-15.5,6.043093,4.831488,2.183158,1.647744,3.00484,7.68633,-0.2172008,-0.4687586,1.132408,0.1637968,0.1099269,0.9502257,0.01312342,0.3101972,1.162881,-0.2554365,-0.4591325,1.133689,0.1609236,0.09297232,0.9078572,0.005332328,-0.1163733,1.191318,0.004188459,-0.4155459,1.182012,-0.1653577,0.0523272,1.167537,-0.07107538,-0.4031203,1.150877,-0.1991987,-0.2000173,1.178068,0.2177782,-0.1434427,1.06717,NA,NA,NotTracked,Unknown,
-0.4584961,0.3354492,0.668457,0.9438477,-0.3046875,-0.1811523,34,-19,-26,-11,-8,7,6,-4,-1,2,-2,0,-1,2,5,9,79.25,79.25,79.25,-5.3125,-5.3125,-5.3125,6.18864,6.506989,2.406819,1.647947,3.020151,7.66139,-0.2187573,-0.4646192,1.13012,0.1727896,0.1718909,1.027131,0.01419226,0.3097125,1.163841,-0.2604271,-0.4569689,1.133526,0.1811981,0.2036568,0.998,0.00711002,-0.1159232,1.192149,0.004185137,-0.4146397,1.182265,-0.1634032,0.05265241,1.167239,-0.07133263,-0.4017145,1.151135,-0.1986792,-0.1945688,1.177485,0.2317455,-0.1282145,1.048095,NA,NA,NotTracked,Open,
-0.1494141,0.2617188,0.2880859,0.9335938,-0.2246094,-0.1621094,33,22,4,-4,1,-1,2,7,-5,-1,1,-3,-4,0,-5,-1,-12.625,-12.625,-12.625,13.125,13.125,13.125,6.853039,7.157094,3.051149,1.6615,3.040976,7.675998,-0.2234063,-0.4647163,1.127553,0.1619158,0.2335859,1.080313,0.01539729,0.3092204,1.165804,-0.2641297,-0.4655429,1.129503,0.1871361,0.2356796,1.051654,0.007675738,-0.1149971,1.192137,0.004226639,-0.4133685,1.18215,-0.1612968,0.05274918,1.166944,-0.0714178,-0.4002786,1.15098,-0.1991209,-0.1935184,1.177107,0.2483294,-0.05202515,0.9737113,NA,NA,NotTracked,NotTracked,
-0.515625,0.1049805,0.0004882813,0.9394531,-0.2739258,-0.1381836,-51,-24,-29,-11,-11,-8,-8,-20,1,-6,11,-1,-3,-2,1,-4,-10.625,-10.625,-10.625,6.75,6.75,6.75,7.484364,7.238879,3.726896,1.653633,3.050352,7.695877,-0.2277515,-0.4645401,1.126298,0.1541111,0.2318603,1.077827,0.0162526,0.3092121,1.168242,-0.2661314,-0.4473418,1.126878,0.1647752,0.265876,1.063846,0.007881585,-0.1145334,1.192108,0.004143317,-0.4128708,1.181912,-0.1607139,0.05279768,1.166958,-0.07158042,-0.3998583,1.150866,-0.1998775,-0.1914007,1.177125,0.240252,-0.0241192,0.9537666,NA,NA,NotTracked,NotTracked,
-1.132324,-0.05615234,-0.4995117,0.9267578,-0.2617188,-0.1176758,27,-8,-10,-11,3,0,-12,-1,-12,-6,-2,1,-6,-3,3,2,-38.5,-38.5,-38.5,7.8125,7.8125,7.8125,7.519777,7.245963,3.818674,1.646771,3.052209,7.722459,-0.2338341,-0.4643965,1.129308,0.1528535,0.224563,1.044824,0.01665446,0.3095265,1.170052,-0.2683626,-0.4530329,1.130239,0.1772027,0.2438003,1.007294,0.007924527,-0.1139637,1.192108,0.003949424,-0.4124689,1.181886,-0.1601945,0.05295101,1.167154,-0.07195403,-0.3994128,1.15116,-0.2007781,-0.1903596,1.17746,0.2255483,2.897369E-05,0.9385396,NA,NA,NotTracked,NotTracked,
-1.263672,-0.02832031,-0.4086914,0.9575195,-0.2749023,-0.1289063,38,-33,-8,-9,0,15,35,74,-11,-5,1,1,-3,-4,-1,-2,-30,-30,-30,2.9375,2.9375,2.9375,6.42648,7.197297,2.763937,1.5986,3.052778,7.787668,-0.2365411,-0.4664983,1.132416,0.1721368,0.207057,0.9246901,0.0160962,0.3101476,1.172384,-0.27051,-0.4393715,1.132193,0.171601,0.2383809,0.9015597,0.00783505,-0.113749,1.192206,0.004268164,-0.411875,1.181892,-0.1597801,0.05311632,1.167419,-0.07182188,-0.3987969,1.15146,-0.201426,-0.1899262,1.178142,0.2035557,0.06568056,0.9214443,NA,NA,NotTracked,Unknown,
-1.221191,0.03613281,0.2866211,0.9331055,-0.2631836,-0.2470703,10,-2,16,6,-2,-10,-17,5,4,3,0,0,-1,1,2,0,10.75,10.75,10.75,25.5625,25.5625,25.5625,5.612274,6.789123,1.932756,1.480825,3.063964,7.939629,-0.2413457,-0.4710517,1.137167,0.1681404,0.2997378,0.9585541,0.0162574,0.3101194,1.175438,-0.2718638,-0.4438477,1.134059,0.164535,0.2933106,0.938,0.007909142,-0.1139439,1.193025,0.004693681,-0.4112301,1.181909,-0.1598463,0.0531844,1.168044,-0.07158162,-0.398064,1.151835,-0.2016458,-0.1902641,1.178755,0.1889723,0.07496526,0.9000266,NA,NA,NotTracked,Unknown,
0.7124023,0.4619141,1.133301,0.9677734,-0.2563477,-0.2324219,-2,-5,5,35,17,-4,-19,-16,-4,-5,-4,1,1,3,-3,-6,34,34,34,27.8125,27.8125,27.8125,5.634129,6.100101,1.837145,1.468674,3.069376,7.995814,-0.2440389,-0.473051,1.14154,0.1761478,0.2033133,0.763483,0.01653625,0.3093798,1.178028,-0.2762591,-0.4538555,1.142162,0.1882106,0.2219182,0.7260691,0.007780988,-0.114223,1.19386,0.004712954,-0.411179,1.181955,-0.1598786,0.05318044,1.168638,-0.07182506,-0.3978338,1.152846,-0.2014737,-0.191332,1.179455,0.1820893,-0.03050857,0.9152682,NA,NA,Unknown,Closed,
-0.7958984,0.2910156,0.75,0.9243164,-0.2734375,-0.1728516,-21,-20,-6,15,-13,1,2,-19,-3,2,-1,-2,0,-4,5,6,-30.9375,-30.9375,-30.9375,14.4375,14.4375,14.4375,5.623263,6.082615,1.833,1.484922,3.064496,8.018077,-0.2456624,-0.4739113,1.144701,0.1728722,0.2026029,0.7533287,0.01660485,0.3091229,1.178776,-0.2743167,-0.4519275,1.13947,0.1804385,0.2016752,0.7199548,0.007513008,-0.114433,1.194199,0.004649129,-0.4111598,1.181988,-0.1598653,0.05308431,1.170889,-0.07215004,-0.3977395,1.1537,-0.2016457,-0.1927145,1.180584,0.1818572,-0.03045459,0.9149364,NA,NA,Unknown,Unknown,
-0.4619141,0.3618164,0.7617188,0.9428711,-0.328125,-0.1616211,-15,-34,-23,-25,-3,-9,-15,-18,-6,-4,-6,0,-4,-2,0,-2,26.5625,26.5625,26.5625,4.125,4.125,4.125,5.648355,6.02447,1.833625,1.503626,3.06155,8.001792,-0.2464273,-0.4721653,1.148727,0.1736376,0.1990107,0.7448736,0.01638886,0.3091621,1.179205,-0.2779735,-0.4609048,1.148439,0.1947042,0.2053601,0.7153428,0.007099637,-0.1145376,1.194109,0.004618429,-0.4112023,1.181992,-0.1600206,0.05326661,1.171243,-0.07237662,-0.3978024,1.154175,-0.2018997,-0.1939005,1.182955,0.1819608,-0.0309499,0.915408,NA,NA,Unknown,Closed,
-0.59375,0.2587891,0.7519531,0.9614258,-0.2866211,-0.1713867,-8,-39,-30,-10,-8,6,10,5,3,-4,1,-1,1,0,0,-4,-8.0625,-8.0625,-8.0625,23,23,23,5.63883,6.00314,1.824056,1.539889,3.059814,8.000487,-0.2459643,-0.4713104,1.149583,0.1755076,0.1976483,0.744577,0.01637182,0.3091792,1.179192,-0.2775854,-0.4579073,1.151381,0.1822896,0.202951,0.7081346,0.006768713,-0.1146081,1.193997,0.004458894,-0.4112141,1.181992,-0.1601072,0.05339415,1.171464,-0.07288622,-0.3978187,1.154919,-0.2021109,-0.1944602,1.184703,0.182051,-0.03152143,0.9150212,NA,NA,Unknown,Unknown,
-0.496582,0.3066406,0.6723633,0.9174805,-0.2978516,-0.1625977,15,1,0,1,8,6,3,9,-1,1,-4,-2,1,-3,-1,-3,0.625,0.625,0.625,-8.5,-8.5,-8.5,5.626077,5.991056,1.813733,1.564128,3.05131,7.979808,-0.244229,-0.468832,1.150221,0.1766864,0.189256,0.7506753,0.01627707,0.3090317,1.179301,-0.2764781,-0.4604246,1.153733,0.1862741,0.1695869,0.7225437,0.006532357,-0.1150189,1.194151,0.00395643,-0.4115519,1.181988,-0.1602127,0.05343763,1.171649,-0.07366867,-0.3981486,1.155558,-0.2023728,-0.1947878,1.185875,0.1823646,-0.03505009,0.9143963,NA,NA,Unknown,Closed,
-0.2363281,0.3579102,0.6279297,0.9516602,-0.2807617,-0.1791992,8,-1,-6,-16,-8,-5,0,-4,-2,4,-10,-3,-3,3,-1,4,13.5625,13.5625,13.5625,9.125,9.125,9.125,5.653767,5.971798,1.825629,1.628948,3.046244,7.920734,-0.2410183,-0.4659926,1.149594,0.1814388,0.1782866,0.7571442,0.01629399,0.3082684,1.179274,-0.2738742,-0.4556606,1.153547,0.1827833,0.1564636,0.728924,0.005912966,-0.1154686,1.193879,0.00300177,-0.4122368,1.181875,-0.1605606,0.0530595,1.172783,-0.07464879,-0.398847,1.156048,-0.2022538,-0.195372,1.186882,0.185176,-0.04583281,0.9159306,NA,NA,NotTracked,Unknown,
0.01953125,0.3583984,0.7670898,0.9467773,-0.2827148,-0.1547852,-17,-35,-13,-8,-3,-12,-2,30,4,-1,1,-3,-1,-1,-5,-1,73,73,73,9.125,9.125,9.125,5.756526,5.92263,1.818209,1.702282,3.04026,7.857975,-0.2384819,-0.4651441,1.145894,0.184059,0.1547881,0.7802654,0.01573367,0.3085152,1.178569,-0.2738065,-0.4519455,1.15078,0.1490685,0.1938422,0.8334,0.00531005,-0.1157862,1.193404,0.001866517,-0.4126291,1.181449,-0.1606087,0.05310578,1.172739,-0.07559197,-0.3991619,1.155847,-0.2022643,-0.1954975,1.18724,0.1995403,0.00125326,0.8969185,NA,NA,NotTracked,Closed,
-0.3110352,0.3544922,0.7685547,0.9140625,-0.2993164,-0.1308594,4,5,4,12,5,2,-11,-48,-4,6,0,1,-2,-3,1,1,69.875,69.875,69.875,4.6875,4.6875,4.6875,5.818161,5.92313,1.80202,1.773251,3.034268,7.793038,-0.2352792,-0.4658563,1.142189,0.1802814,0.1113355,0.805949,0.0141885,0.3097073,1.177027,-0.26819,-0.4536694,1.144953,0.1452428,0.1372831,0.8160453,0.004513048,-0.1156674,1.192994,0.001326209,-0.4126927,1.181175,-0.1607167,0.05313981,1.172664,-0.07596742,-0.3992574,1.155415,-0.2021894,-0.1957847,1.187776,0.1989032,-0.1005875,0.980381,NA,NA,NotTracked,Closed,
-0.9648438,0.5849609,0.628418,0.9335938,-0.2685547,-0.1352539,12,8,6,3,7,1,9,40,4,-3,6,1,-1,9,-1,2,103.3125,103.3125,103.3125,4.25,4.25,4.25,6.106588,5.673622,1.8971,1.803054,3.02685,7.772684,-0.2312659,-0.4661082,1.139083,0.1756965,0.02720798,0.8258983,0.01262138,0.3104529,1.175357,-0.2646817,-0.447952,1.145177,0.156827,0.06931147,0.8225334,0.003785112,-0.1158249,1.192517,0.001069491,-0.4132991,1.180632,-0.1620268,0.05253734,1.173299,-0.07574641,-0.4004974,1.153749,-0.2020045,-0.1968351,1.188159,0.2011743,-0.1547045,0.995679,NA,NA,NotTracked,Closed,
-0.5629883,0.6113281,0.4692383,0.9555664,-0.2441406,-0.159668,3,1,5,-2,1,12,-8,-8,-5,-1,2,0,3,-4,1,4,43.75,43.75,43.75,-13.8125,-13.8125,-13.8125,6.221512,5.164701,1.954671,1.774538,3.015695,7.785321,-0.2284953,-0.4666685,1.139202,0.1740599,-0.09808487,0.8305629,0.01126362,0.3105451,1.173646,-0.2628658,-0.4628122,1.142667,0.1518951,-0.0604353,0.823375,0.003247334,-0.1159444,1.192298,0.0008337676,-0.413609,1.180277,-0.1645312,0.05141951,1.173926,-0.07566695,-0.4010871,1.152822,-0.2018064,-0.197751,1.187953,0.1741771,-0.1533587,1.145877,NA,NA,NotTracked,Unknown,
-0.1323242,0.6577148,0.6757813,0.9677734,-0.3203125,-0.1206055,16,3,-9,-2,-9,-8,0,10,6,-3,-1,-1,-3,1,-1,2,88.4375,88.4375,88.4375,-14.625,-14.625,-14.625,6.340651,4.500156,1.991396,1.742336,3.010844,7.785595,-0.2255236,-0.4628662,1.138159,0.1824716,-0.2521927,0.8697647,0.01017044,0.3104933,1.171746,-0.2600884,-0.4511515,1.13617,0.1929333,-0.2307718,0.8411905,0.002622615,-0.1159506,1.191845,0.0005935467,-0.4136956,1.179839,-0.1647322,0.05148162,1.173554,-0.07569254,-0.4011893,1.151664,-0.2014636,-0.1988734,1.187267,0.1977739,-0.1524848,1.159984,NA,NA,NotTracked,Unknown,
0.6206055,0.5698242,0.5966797,0.9521484,-0.2749023,-0.15625,-35,-11,-12,-6,-8,-10,-15,-17,0,-3,-5,-1,-1,-5,2,2,51.625,51.625,51.625,-19.1875,-19.1875,-19.1875,6.437235,4.090531,1.94339,1.703142,3.007366,7.789517,-0.2247379,-0.4627633,1.138141,0.1973465,-0.3650056,0.9461176,0.009135351,0.3106231,1.170405,-0.2604077,-0.436171,1.141323,0.2178935,-0.3693962,0.9180001,0.002483384,-0.1159588,1.191658,0.001175594,-0.4138262,1.179628,-0.1649424,0.05158268,1.172983,-0.07460255,-0.4014998,1.150809,-0.2010671,-0.1994438,1.1865,0.2161265,-0.1772166,1.164278,NA,NA,NotTracked,Closed,
1.196777,0.6621094,0.4614258,0.9707031,-0.2636719,-0.1557617,12,-1,-4,-7,-7,-3,32,24,-2,-5,-4,2,1,1,-2,1,1.375,1.375,1.375,-4.8125,-4.8125,-4.8125,6.974319,3.247478,1.490374,1.694062,3.01049,7.78272,-0.2320524,-0.4734283,1.134368,0.2146527,-0.4399382,1.028777,0.008782086,0.310795,1.169595,-0.2669033,-0.4823776,1.125,0.2257242,-0.4412768,0.9839473,0.002576778,-0.1159362,1.191524,0.00276219,-0.4139259,1.179482,-0.1649706,0.05172152,1.172243,-0.07262263,-0.4017758,1.150202,-0.2007814,-0.1998247,1.185499,0.2142835,-0.1807838,1.167411,NA,NA,NotTracked,Closed,
1.307617,0.4306641,0.04833984,0.9335938,-0.2651367,-0.1435547,-7,-20,-7,-8,-12,-5,-3,-1,-2,-1,-4,-2,-1,3,-3,-2,29.0625,29.0625,29.0625,-16.0625,-16.0625,-16.0625,7.751962,2.986525,0.6868803,1.672377,3.010095,7.78372,-0.2312061,-0.4736671,1.132316,0.2307588,-0.474524,1.084828,0.008925477,0.3109827,1.168769,-0.2596591,-0.4903005,1.125727,0.2556859,-0.4786281,1.068062,0.002917563,-0.1159637,1.191198,0.004521116,-0.4142487,1.179242,-0.1649314,0.05176586,1.171662,-0.07060479,-0.4022462,1.149482,-0.2004842,-0.2003731,1.183641,0.2111099,-0.188513,1.16933,NA,NA,NotTracked,NotTracked,
1.066895,0.3911133,-0.1210938,0.9199219,-0.2456055,-0.1508789,-13,-3,-3,-2,1,0,-35,-14,-12,-3,2,1,2,2,-5,-8,70.9375,70.9375,70.9375,-7,-7,-7,8.483835,2.926974,0.02668092,1.661191,3.012012,7.778412,-0.2315975,-0.4722527,1.133212,0.236128,-0.4801569,1.12347,0.009550335,0.3108284,1.167737,-0.2628773,-0.4696626,1.129816,0.2609184,-0.4705076,1.111187,0.003662618,-0.1160805,1.190852,0.006133913,-0.4145386,1.179352,-0.1651348,0.05167713,1.17124,-0.06891543,-0.4025719,1.149176,-0.2003388,-0.2003072,1.182687,0.2100393,-0.192595,1.173463,NA,NA,NotTracked,NotTracked,
0.8701172,0.3510742,-0.02539063,0.9731445,-0.25,-0.1186523,11,5,0,-5,-1,-3,-25,-3,-3,1,-3,-1,0,-1,-2,-2,45.3125,45.3125,45.3125,-13.125,-13.125,-13.125,8.839634,2.903405,9.796673,1.6508,3.003093,7.769852,-0.2321154,-0.4728234,1.132483,0.2358195,-0.4774085,1.14636,0.01036656,0.3106077,1.166793,-0.2580034,-0.4759559,1.125955,0.2639845,-0.4754127,1.13925,0.004659156,-0.116248,1.190666,0.007712946,-0.4148025,1.179748,-0.165312,0.05141521,1.17076,-0.06729349,-0.4029177,1.149439,-0.2001604,-0.2005174,1.182003,0.2096375,-0.195906,1.179276,NA,NA,NotTracked,NotTracked,
0.9458008,0.3486328,-0.1337891,0.9448242,-0.2827148,-0.15625,0,-4,-2,-2,-2,2,6,-1,0,0,0,1,2,-1,-5,-12,7.125,7.125,7.125,-11.9375,-11.9375,-11.9375,8.960686,2.909092,9.710411,1.62862,2.994816,7.767078,-0.2206514,-0.4654338,1.134102,0.234413,-0.4785523,1.157801,0.01121462,0.3105433,1.165959,-0.2573894,-0.4584627,1.132276,0.2639638,-0.4719272,1.153687,0.005692605,-0.1162238,1.190508,0.009523971,-0.4147291,1.180204,-0.1650972,0.05158186,1.170367,-0.06532566,-0.4029953,1.14963,-0.1998239,-0.2003728,1.181338,0.2098665,-0.196464,1.182135,NA,NA,NotTracked,NotTracked,
0.9462891,0.1972656,-0.1235352,0.9350586,-0.2758789,-0.1503906,-3,-1,2,-1,4,5,15,8,1,1,-8,-4,-5,-6,-1,-3,-13.5,-13.5,-13.5,-2.5,-2.5,-2.5,8.919751,2.904464,9.717835,1.642843,2.988273,7.742556,-0.2179892,-0.4632453,1.134144,0.2323834,-0.4795966,1.159104,0.01172729,0.3106689,1.16539,-0.2550354,-0.4560988,1.133209,0.262089,-0.4758936,1.150132,0.006546645,-0.1162606,1.190442,0.01126127,-0.414726,1.18081,-0.1648062,0.05174508,1.169937,-0.06342598,-0.4031232,1.150022,-0.1992933,-0.1997216,1.180434,0.2097321,-0.1963317,1.184986,NA,NA,NotTracked,NotTracked,
0.9516602,0.265625,-0.1362305,0.956543,-0.2636719,-0.1708984,3,3,-2,5,5,-2,-5,1,-4,0,-2,-2,0,4,-2,-3,-13.4375,-13.4375,-13.4375,-8.0625,-8.0625,-8.0625,8.810836,2.904681,9.818464,1.643409,2.987723,7.732937,-0.2163742,-0.4607843,1.133667,0.2303195,-0.4789818,1.153659,0.01234798,0.3102949,1.164713,-0.2545506,-0.4445535,1.135412,0.2629289,-0.4660047,1.152,0.007209842,-0.116294,1.190476,0.01232327,-0.4147518,1.181101,-0.164759,0.05164005,1.169486,-0.06225315,-0.403342,1.150054,-0.1987348,-0.1997306,1.179853,0.2095215,-0.1961135,1.186412,NA,NA,NotTracked,NotTracked,
0.9267578,0.2114258,-0.1391602,0.9550781,-0.2773438,-0.1586914,-10,3,-3,1,-1,3,-7,5,0,-6,0,1,-2,-6,-8,-7,13.875,13.875,13.875,0,0,0,8.673327,2.896106,9.954413,1.647178,2.990782,7.720265,-0.2152928,-0.4629257,1.13319,0.2282983,-0.4798668,1.147973,0.0127288,0.3101313,1.164329,-0.2544034,-0.4645199,1.135111,0.2580834,-0.4924612,1.144444,0.007513693,-0.116396,1.190467,0.01252085,-0.4147843,1.181122,-0.1646547,0.05164915,1.169369,-0.0620138,-0.4033381,1.150007,-0.1980891,-0.2001606,1.179422,0.2094228,-0.1960987,1.186742,NA,NA,NotTracked,NotTracked,
0.9296875,0.1787109,-0.1171875,0.9501953,-0.2446289,-0.1611328,7,2,-1,-4,-1,-1,10,18,-1,-1,-2,-3,-5,-1,-4,0,-11,-11,-11,2.875,2.875,2.875,8.569326,2.897299,0.05450995,1.658089,2.995687,7.720153,-0.2146967,-0.4601626,1.131783,0.2250413,-0.4803052,1.141658,0.01298235,0.3099565,1.163884,-0.2548268,-0.4503664,1.134853,0.2540017,-0.4889206,1.133889,0.008050559,-0.1165282,1.19037,0.01315265,-0.4148709,1.181106,-0.1647104,0.05152355,1.16927,-0.06132168,-0.4035069,1.149979,-0.197512,-0.2003814,1.178696,0.2094195,-0.1959246,1.186902,NA,NA,NotTracked,NotTracked,
0.9321289,0.2021484,-0.140625,0.956543,-0.2490234,-0.1513672,0,-4,0,-2,-3,-9,-8,-6,-4,-2,-2,1,-1,-3,-3,-1,3.5625,3.5625,3.5625,1.0625,1.0625,1.0625,8.495566,2.897357,0.1328029,1.657668,2.996667,7.721272,-0.216192,-0.4645408,1.131131,0.2238932,-0.4783534,1.137187,0.01307896,0.3099174,1.163559,-0.2545307,-0.4555487,1.133437,0.2514424,-0.4693769,1.130217,0.008265973,-0.116553,1.190273,0.01349766,-0.4148296,1.181058,-0.1649227,0.05124705,1.169178,-0.06095505,-0.403538,1.149925,-0.1972839,-0.2002596,1.178458,0.209415,-0.1957607,1.186857,NA,NA,NotTracked,NotTracked,
0.9296875,0.2075195,-0.1210938,0.956543,-0.2490234,-0.1513672,-5,0,0,3,-3,-3,-12,-20,-4,-2,-2,1,-1,-3,-3,-1,1.25,1.25,1.25,1.0625,1.0625,1.0625,8.454751,2.898373,0.1784815,1.657668,2.996667,7.721272,-0.216073,-0.4627934,1.132435,0.2233354,-0.4778201,1.134309,0.01317871,0.3098853,1.163145,-0.2534881,-0.4462401,1.13215,0.2516667,-0.4765995,1.129865,0.008667729,-0.1165446,1.19021,0.01403367,-0.4147577,1.181024,-0.1647666,0.05133909,1.16908,-0.06044972,-0.4034971,1.149948,-0.1971508,-0.2002909,1.178166,0.209325,-0.195423,1.186272,NA,NA,NotTracked,NotTracked,
0.9458008,0.1811523,-0.1254883,0.956543,-0.2490234,-0.1513672,-1,-3,-1,6,2,2,-20,-16,-4,-2,-2,1,-1,-3,-3,-1,0.125,0.125,0.125,1.0625,1.0625,1.0625,8.432604,2.900018,0.1982504,1.657668,2.996667,7.721272,-0.2160125,-0.4640624,1.133019,0.220717,-0.4798947,1.131808,0.01320165,0.3098053,1.162991,-0.2537919,-0.4519377,1.132473,0.2489834,-0.4870712,1.122738,0.008758891,-0.116574,1.190159,0.01410194,-0.4147665,1.180983,-0.1647905,0.05109449,1.169108,-0.06038758,-0.4034877,1.149923,-0.1969964,-0.2003273,1.178099,0.2093348,-0.1953468,1.185993,NA,NA,NotTracked,NotTracked,
0.9414063,0.206543,-0.1025391,0.956543,-0.2490234,-0.1513672,-5,-2,-3,2,-1,-5,1,4,-4,-2,-2,1,-1,-3,-3,-1,-4.875,-4.875,-4.875,1.0625,1.0625,1.0625,8.404422,2.900004,0.2218873,1.657668,2.996667,7.721272,-0.2152879,-0.4648773,1.134663,0.2214991,-0.4808206,1.132115,0.01318544,0.3096681,1.162872,-0.2529788,-0.4508091,1.135117,0.2507296,-0.4994154,1.123286,0.008789136,-0.1166307,1.190152,0.0141211,-0.4148073,1.180959,-0.1648025,0.05097282,1.169118,-0.06036322,-0.4035424,1.149909,-0.1968831,-0.2003756,1.178158,0.2091843,-0.1952785,1.185775,NA,NA,NotTracked,NotTracked,
0.9482422,0.2104492,-0.08691406,0.956543,-0.2490234,-0.1513672,-4,1,-2,0,-5,-1,-14,-1,-4,-2,-2,1,-1,-3,-3,-1,0.75,0.75,0.75,1.0625,1.0625,1.0625,8.381227,2.899096,0.2410658,1.657668,2.996667,7.721272,-0.2142751,-0.4636732,1.13442,0.2222533,-0.4783913,1.131444,0.01321327,0.3094146,1.162559,-0.251848,-0.4438886,1.134035,0.2510824,-0.4681621,1.128,0.008859037,-0.1166669,1.190158,0.01418433,-0.4148134,1.180962,-0.1647969,0.05087842,1.169119,-0.06029031,-0.403552,1.149916,-0.1967293,-0.2004322,1.178203,0.2090345,-0.1952426,1.185591,NA,NA,NotTracked,NotTracked,
0.9511719,0.2207031,-0.09277344,0.956543,-0.2490234,-0.1513672,-3,-2,3,0,3,1,-1,-11,-4,-2,-2,1,-1,-3,-3,-1,-4,-4,-4,1.0625,1.0625,1.0625,8.353626,2.900865,0.2656998,1.657668,2.996667,7.721272,-0.214049,-0.4620248,1.133367,0.2198741,-0.4788649,1.129739,0.01319707,0.3092774,1.16233,-0.2531948,-0.4525281,1.133919,0.251736,-0.4866934,1.128445,0.008871085,-0.1166634,1.19015,0.01420513,-0.4148035,1.180959,-0.1647017,0.05093821,1.168987,-0.06025535,-0.4035434,1.149933,-0.1965451,-0.2005253,1.178288,0.2088186,-0.1951409,1.185395,NA,NA,NotTracked,NotTracked,
0.940918,0.2177734,-0.09863281,0.956543,-0.2490234,-0.1513672,-1,2,0,-4,2,0,-19,-10,-4,-2,-2,1,-1,-3,-3,-1,-0.75,-0.75,-0.75,1.0625,1.0625,1.0625,8.336503,2.900927,0.2809004,1.657668,2.996667,7.721272,-0.2142761,-0.462219,1.135201,0.2190997,-0.4799134,1.12985,0.01315697,0.3091918,1.162196,-0.2530128,-0.4497562,1.134789,0.2471723,-0.4915916,1.121143,0.008926641,-0.1166918,1.190217,0.01439093,-0.4148374,1.181069,-0.1646572,0.05100408,1.168962,-0.06007569,-0.4036148,1.150037,-0.1965067,-0.2005305,1.178298,0.2087619,-0.1950456,1.185427,NA,NA,NotTracked,NotTracked,
0.9516602,0.2124023,-0.08789063,0.956543,-0.2490234,-0.1513672,0,3,-1,-4,7,2,4,9,-4,-2,-2,1,-1,-3,-3,-1,-0.3125,-0.3125,-0.3125,1.0625,1.0625,1.0625,8.284358,2.901853,0.3276084,1.657668,2.996667,7.721272,-0.2143824,-0.4658821,1.133498,0.2175833,-0.478986,1.129216,0.01310448,0.3091509,1.162162,-0.2535242,-0.452328,1.134624,0.248962,-0.4971705,1.1191,0.008923173,-0.1166819,1.190279,0.01439141,-0.4148038,1.181115,-0.1645866,0.05112345,1.16892,-0.06007701,-0.4035823,1.150051,-0.196454,-0.2005925,1.178257,0.2084105,-0.1949438,1.185414,NA,NA,NotTracked,NotTracked,
