ALX,ALY,ALZ,ARX,ARY,ARZ,EMG0L,EMG1L,EMG2L,EMG3L,EMG4L,EMG5L,EMG6L,EMG7L,EMG0R,EMG1R,EMG2R,EMG3R,EMG4R,EMG5R,EMG6R,EMG7R,GLX,GLY,GLZ,GRX,GRY,GRZ,ORL,OPL,OYL,ORR,OPR,OYR,LHNX,LHNY,LHNZ,RHNX,RHNY,RHNZ,HX,HY,HZ,LTX,LTY,LTZ,RTX,RTY,RTZ,SpineMidX,SpineMidY,SpineMidZ,SpineBaseX,SpineBaseY,SpineBaseZ,ShoulderLeftX,ShoulderLeftY,ShoulderLeftZ,ShoulderRightX,ShoulderRightY,ShoulderRightZ,ElbowLeftX,ElbowLeftY,ElbowLeftZ,ElbowRightX,ElbowRightY,ElbowRightZ,Myo_Pose_left,Myo_Pose_Right,Kinect_pose_left,Kinect_pose_right
0.9306641,0.2475586,-0.04345703,0.9492188,-0.3051758,-0.08007813,-1,-2,-2,-2,-1,-1,-3,-2,-1,-1,-3,1,-3,0,-2,-1,-3.8125,-3.8125,-3.8125,-5,-5,-5,7.926567,2.932631,9.617274,2.016711,3.03142,7.28832,-0.1981083,-0.4541416,1.156786,0.2326513,-0.4756186,1.162649,0.02215324,0.3069778,1.196978,-0.1512906,-0.4425522,1.138821,0.2670113,-0.4634763,1.161708,0.0187449,-0.1167389,1.228218,0.02428874,-0.4152619,1.219462,-0.1584809,0.05409253,1.212587,-0.04989596,-0.4040566,1.188301,-0.1908751,-0.1992165,1.215212,0.2230622,-0.1932502,1.227194,NA,NA,NotTracked,NotTracked,
0.9345703,0.2573242,-0.04199219,0.9453125,-0.2998047,-0.07861328,0,-1,0,-1,1,-2,-3,4,0,-1,-3,1,2,0,-2,0,1.125,1.125,1.125,-0.5625,-0.5625,-0.5625,7.922608,2.93171,9.620969,2.000661,3.031946,7.302787,-0.1980924,-0.4541596,1.157752,0.2319537,-0.4737914,1.163315,0.02219792,0.3069859,1.196878,-0.150914,-0.4324462,1.132686,0.2615968,-0.4728892,1.149758,0.01877753,-0.1167867,1.228202,0.02425874,-0.4152927,1.219488,-0.1584578,0.05413351,1.212816,-0.04993721,-0.4040739,1.188344,-0.1907907,-0.1990959,1.215307,0.2230763,-0.1936367,1.226962,NA,NA,NotTracked,NotTracked,
0.9399414,0.2402344,-0.04345703,0.9516602,-0.3056641,-0.07861328,1,-1,-3,-2,-4,-5,1,1,-4,-3,5,-2,1,-1,-2,-1,-1.0625,-1.0625,-1.0625,-0.5625,-0.5625,-0.5625,7.920976,2.930407,9.619706,1.986969,3.03155,7.316078,-0.200009,-0.4548447,1.15744,0.2315667,-0.4744189,1.163738,0.02223328,0.3070409,1.196834,-0.1493496,-0.4321257,1.134643,0.268352,-0.4516276,1.173555,0.01878821,-0.1168214,1.2282,0.02416295,-0.4153497,1.2195,-0.1583871,0.05416871,1.212975,-0.0500502,-0.4041049,1.188349,-0.1908364,-0.1991007,1.215568,0.2230706,-0.1936387,1.226941,NA,NA,NotTracked,NotTracked,
0.9448242,0.2490234,-0.04101563,0.9443359,-0.3041992,-0.08642578,1,-2,0,0,3,1,-5,-1,-2,0,-5,-2,-1,-2,-1,-2,-0.625,-0.625,-0.625,2.8125,2.8125,2.8125,7.925464,2.926615,9.614464,1.985488,3.031219,7.321976,-0.2100435,-0.4729533,1.154554,0.2311497,-0.4736289,1.164556,0.02225434,0.3070891,1.196753,-0.1697112,-0.4661405,1.1315,0.2655025,-0.4641142,1.164032,0.01879721,-0.1168187,1.228202,0.02417014,-0.415345,1.219508,-0.1583598,0.05419905,1.213133,-0.05005161,-0.4041051,1.188361,-0.19085,-0.1994518,1.215695,0.2228851,-0.1937041,1.226871,NA,NA,NotTracked,NotTracked,
0.9355469,0.253418,-0.04541016,0.9448242,-0.2963867,-0.0859375,0,-3,1,0,1,-3,-20,-4,-3,-1,-3,-4,-1,-3,0,-1,0.9375,0.9375,0.9375,2.0625,2.0625,2.0625,7.926639,2.925498,9.613913,1.990241,3.029502,7.323254,-0.2012164,-0.4568413,1.158762,0.228951,-0.474612,1.163821,0.02226294,0.3071703,1.196693,-0.1519697,-0.4333505,1.134387,0.264885,-0.4623016,1.162474,0.01881675,-0.1168358,1.228244,0.02425735,-0.4153958,1.219578,-0.1582815,0.05396484,1.212814,-0.04999406,-0.4041802,1.188409,-0.1908572,-0.1995647,1.215901,0.2227074,-0.1937572,1.22686,NA,NA,NotTracked,NotTracked,
0.9677734,0.2680664,-0.04443359,0.9492188,-0.3027344,-0.09179688,6,5,0,0,4,3,3,10,2,-2,0,-1,-3,-3,-2,0,-0.9375,-0.9375,-0.9375,1.375,1.375,1.375,7.912236,2.926884,9.62584,1.995544,3.027663,7.320894,-0.2090401,-0.4749462,1.15374,0.2278476,-0.4727594,1.16171,0.02217168,0.3073109,1.196632,-0.1716559,-0.4434393,1.157546,0.2620551,-0.4702629,1.1548,0.01885403,-0.116863,1.228232,0.02440338,-0.4154282,1.219638,-0.1583108,0.05397729,1.213044,-0.04986823,-0.4042626,1.188477,-0.1908876,-0.1997071,1.215915,0.2224548,-0.1938758,1.22683,NA,NA,NotTracked,NotTracked,
1.20459,0.3676758,-0.1040039,0.9541016,-0.3212891,-0.09472656,2,2,-16,0,1,-1,-5,-2,-7,-5,-1,-3,-3,-2,-4,-8,16.25,16.25,16.25,7,7,7,7.551641,2.952682,9.994124,2.015081,3.027207,7.310338,-0.1993059,-0.4545881,1.159753,0.2188372,-0.4700862,1.146542,0.02207583,0.3074477,1.196709,-0.1527548,-0.4422438,1.141818,0.2539425,-0.4614551,1.13919,0.0188473,-0.1168705,1.228215,0.02442616,-0.4154312,1.219637,-0.1582977,0.05399422,1.213163,-0.0498539,-0.4042699,1.188451,-0.1908568,-0.199891,1.216056,0.2230867,-0.1933381,1.227339,NA,NA,NotTracked,NotTracked,
1.308105,0.8569336,0.2744141,0.9423828,-0.3115234,-0.1098633,8,10,-24,19,0,-1,6,2,-3,-2,-1,0,0,0,-2,-4,27.125,27.125,27.125,3,3,3,6.958079,3.174213,0.6815075,2.024687,3.026483,7.309192,-0.199305,-0.4555607,1.159155,0.1997168,-0.4330845,1.090779,0.021945,0.3076226,1.196767,-0.1525801,-0.4479523,1.140852,0.2231994,-0.4264235,1.063704,0.01847024,-0.1168016,1.227945,0.02338586,-0.415057,1.219075,-0.1583825,0.05390099,1.213173,-0.05121179,-0.4038106,1.187516,-0.1908228,-0.1999119,1.216133,0.2291418,-0.1869138,1.230723,NA,NA,NotTracked,NotTracked,
1.266602,1.041992,0.6386719,0.9199219,-0.3154297,-0.09326172,0,-9,-40,-35,-9,-8,-11,2,-1,-3,0,-1,-1,-1,-2,-4,-18.125,-18.125,-18.125,-14.5,-14.5,-14.5,6.661329,3.485987,1.013201,2.004455,3.026897,7.316,-0.1995034,-0.4543652,1.158595,0.1623383,-0.3286856,1.02609,0.02190781,0.3076815,1.196836,-0.1532706,-0.4439461,1.139701,0.171858,-0.3107893,0.9909002,0.01447055,-0.1164063,1.227345,0.01234076,-0.4142008,1.217206,-0.1584093,0.05394681,1.213308,-0.06258646,-0.4014481,1.185614,-0.1907994,-0.1999779,1.216113,0.2402056,-0.1618588,1.227447,NA,NA,NotTracked,Lasso,
0.1464844,0.6376953,0.5654297,0.9697266,-0.347168,-0.09521484,-21,1,-2,-12,-4,-4,-1,-16,-1,-1,2,0,1,0,-2,-1,0,0,0,-20.5625,-20.5625,-20.5625,6.365558,4.357292,1.406791,1.943876,3.033338,7.332942,-0.2014827,-0.4558671,1.15909,0.08425048,-0.1563312,0.9467863,0.02194277,0.3079586,1.197027,-0.1545817,-0.4594222,1.144698,0.08353635,-0.1527563,0.9243526,0.0134966,-0.1162146,1.227397,0.01113714,-0.414064,1.217084,-0.1582885,0.05403315,1.212978,-0.06350643,-0.401274,1.18539,-0.1908763,-0.2001065,1.216074,0.251895,-0.1430676,1.197742,NA,NA,NotTracked,Unknown,
-0.1499023,0.6650391,0.5214844,0.9541016,-0.3291016,-0.1259766,8,-9,-14,18,0,-6,-2,-14,-1,3,2,0,0,-3,0,-4,79.0625,79.0625,79.0625,-0.25,-0.25,-0.25,6.469967,5.227802,1.673258,1.947306,3.047537,7.316635,-0.2034066,-0.455118,1.155436,0.1178907,-0.02773457,0.9898674,0.02238471,0.3079208,1.197442,-0.1528876,-0.4445844,1.13922,0.1392202,-0.02584564,0.9618335,0.01343821,-0.1162893,1.227735,0.01110636,-0.4141363,1.217155,-0.158192,0.05384291,1.212651,-0.06333093,-0.4013783,1.185463,-0.1913685,-0.2003591,1.215476,0.2565881,-0.1300151,1.142287,NA,NA,NotTracked,Unknown,
-0.265625,0.4394531,0.5356445,0.9052734,-0.2939453,-0.09130859,25,12,16,10,-1,11,22,35,-4,-4,2,0,0,0,1,-2,82.0625,82.0625,82.0625,8.8125,8.8125,8.8125,6.770829,5.837876,2.024174,2.000323,3.067299,7.270541,-0.206196,-0.455325,1.150739,0.1086543,0.07850931,1.018341,0.0222613,0.3078632,1.198269,-0.1512652,-0.4303836,1.134137,0.1004996,0.04805536,1.079429,0.01348809,-0.1167895,1.227882,0.01109602,-0.4164304,1.216883,-0.1582166,0.05386755,1.212531,-0.06367268,-0.4040903,1.186857,-0.1923441,-0.2001652,1.214404,0.2959278,-0.1077117,1.11506,NA,NA,NotTracked,Unknown,
-0.1196289,0.3657227,0.4814453,0.9355469,-0.2944336,-0.07324219,12,-16,-12,3,2,-6,-26,-14,1,0,1,-3,0,1,1,-1,77.875,77.875,77.875,26.75,26.75,26.75,6.868591,5.949768,2.130733,2.060033,3.091631,7.254202,-0.2093877,-0.4554427,1.144432,0.1190766,0.1267351,1.050548,0.02238338,0.3080172,1.198333,-0.1553064,-0.4161391,1.131686,0.07262054,0.1268506,1.054072,0.01374926,-0.1172424,1.227621,0.01134177,-0.4173948,1.216616,-0.1582012,0.05403895,1.212714,-0.06360573,-0.4047695,1.18716,-0.1931276,-0.1994634,1.213392,0.2954682,-0.0778475,1.066755,NA,NA,NotTracked,Unknown,
-0.5126953,0.4375,0.1547852,0.9399414,-0.2524414,-0.09863281,-20,-10,-3,-18,-11,-10,2,16,-2,-3,2,1,0,-1,-1,-2,18.9375,18.9375,18.9375,20.5625,20.5625,20.5625,7.268206,6.23872,2.590084,2.078646,3.086379,7.280806,-0.2212554,-0.4687643,1.138937,0.05555001,0.2129195,1.093912,0.02248116,0.3080327,1.198446,-0.1915142,-0.4710135,1.111577,0.02241989,0.1815559,1.107353,0.01419162,-0.1175519,1.227374,0.01144727,-0.4179572,1.216241,-0.1577052,0.05429626,1.212394,-0.06365875,-0.4051266,1.186984,-0.1938663,-0.1975337,1.212788,0.3000618,-0.07702313,1.065285,NA,NA,NotTracked,Unknown,
-0.6630859,0.5629883,0.09619141,0.9360352,-0.3193359,-0.06738281,52,-3,-19,-15,-5,4,21,15,0,0,10,3,0,-2,-1,-1,-5.375,-5.375,-5.375,-0.3125,-0.3125,-0.3125,7.293173,6.249,2.626109,2.067582,3.069343,7.298208,-0.220099,-0.4687399,1.141913,0.05521343,0.2144212,1.094264,0.02250395,0.3081022,1.198563,-0.1856106,-0.453072,1.138667,0.03467087,0.1806311,1.116663,0.01454415,-0.1178069,1.227132,0.01156023,-0.4183517,1.21579,-0.1575892,0.0543699,1.212724,-0.06367727,-0.4054495,1.186715,-0.1939633,-0.1973978,1.212739,0.3026558,-0.07354614,1.061261,NA,NA,NotTracked,Unknown,
-0.7182617,0.7602539,0.07373047,0.9506836,-0.3310547,-0.07861328,-15,-8,-6,-9,-1,-5,1,-6,-3,-4,-1,0,-1,-1,-2,-3,-12.3125,-12.3125,-12.3125,17.125,17.125,17.125,7.28083,6.241121,2.615019,2.053104,3.045607,7.343504,-0.2096195,-0.4657055,1.151452,0.05661416,0.2130419,1.092106,0.02235738,0.3083148,1.19885,-0.153635,-0.426486,1.137539,0.05874432,0.1998298,1.123333,0.01478728,-0.1179326,1.226894,0.01160264,-0.4186112,1.215334,-0.1575482,0.05426648,1.212939,-0.06373133,-0.4056408,1.18653,-0.1939286,-0.1969977,1.213542,0.3031122,-0.0730714,1.060601,NA,NA,NotTracked,Unknown,
-0.7768555,0.6879883,0.08642578,0.9506836,-0.3310547,-0.07861328,-13,3,-12,-4,-2,-5,-18,5,-3,-4,-1,0,-1,-1,-2,-3,-5.5625,-5.5625,-5.5625,17.125,17.125,17.125,7.270414,6.247848,2.617026,2.053104,3.045607,7.343504,-0.2060549,-0.4654044,1.156821,0.05941283,0.2084184,1.088842,0.02221434,0.3083766,1.199108,-0.1563202,-0.4421931,1.135305,0.03579789,0.1840757,1.115132,0.01461101,-0.1180526,1.226286,0.01162539,-0.4189154,1.214846,-0.1573454,0.05407314,1.212888,-0.06376045,-0.4058731,1.186229,-0.1937459,-0.1970566,1.214713,0.3027231,-0.07329519,1.060104,NA,NA,NotTracked,Unknown,
-0.7670898,0.7050781,0.08300781,0.9506836,-0.3310547,-0.07861328,8,7,10,33,21,10,-8,-8,-3,-4,-1,0,-1,-1,-2,-3,-8.5625,-8.5625,-8.5625,17.125,17.125,17.125,7.26858,6.232626,2.594605,2.053104,3.045607,7.343504,-0.2030842,-0.4653538,1.160744,0.05977731,0.204208,1.085787,0.02195693,0.3086401,1.199515,-0.1544517,-0.443294,1.125455,0.03433667,0.1819531,1.116053,0.01431742,-0.1180826,1.22587,0.0110539,-0.4192159,1.214283,-0.1572704,0.0539363,1.213036,-0.06432857,-0.4060662,1.185962,-0.1931924,-0.1969105,1.21636,0.302181,-0.07261336,1.058564,NA,NA,NotTracked,Unknown,
-0.8447266,0.7885742,0.08300781,0.9506836,-0.3310547,-0.07861328,-25,-15,-24,-22,-8,-3,33,4,-3,-4,-1,0,-1,-1,-2,-3,7.5625,7.5625,7.5625,17.125,17.125,17.125,7.26585,6.219451,2.551245,2.053104,3.045607,7.343504,-0.2014781,-0.4615841,1.165277,0.06663265,0.1826992,1.078597,0.02159308,0.3088218,1.199901,-0.1551591,-0.4676882,1.1317,0.06767359,0.1424588,1.111667,0.01384313,-0.1180453,1.225233,0.01085446,-0.4193051,1.213966,-0.1573667,0.05400871,1.213501,-0.06454501,-0.406146,1.185789,-0.1925497,-0.1969157,1.218244,0.3024281,-0.07151661,1.057225,NA,NA,NotTracked,Unknown,
-0.7954102,0.6025391,-0.04199219,0.9506836,-0.3310547,-0.07861328,-2,7,-2,-4,-2,3,2,10,-3,-4,-1,0,-1,-1,-2,-3,54.4375,54.4375,54.4375,17.125,17.125,17.125,7.323677,6.352061,2.554435,2.053104,3.045607,7.343504,-0.2016031,-0.4612076,1.16405,0.07509729,0.1926896,1.072289,0.02136755,0.30896,1.200137,-0.1555266,-0.4373498,1.13005,0.07222194,0.1552366,1.0928,0.01384272,-0.118022,1.225143,0.01011685,-0.4194664,1.213313,-0.1573329,0.05398834,1.213695,-0.06547014,-0.4062388,1.184987,-0.1922127,-0.1964527,1.219579,0.304163,-0.06960612,1.054377,NA,NA,NotTracked,Unknown,
-0.4599609,0.6723633,0.06640625,0.9506836,-0.3310547,-0.07861328,-6,-8,-14,-28,-21,-16,-24,-23,-3,-4,-1,0,-1,-1,-2,-3,30.625,30.625,30.625,17.125,17.125,17.125,7.315497,6.341497,2.432612,2.053104,3.045607,7.343504,-0.2022204,-0.4604161,1.163194,0.08696123,0.1831684,1.043777,0.02099707,0.3095696,1.200487,-0.1568044,-0.4632513,1.129227,0.1308294,0.1988772,1.0576,0.01388409,-0.1179805,1.225097,0.009413811,-0.4191664,1.212629,-0.1572898,0.05400093,1.213828,-0.06634867,-0.4058428,1.184058,-0.1919547,-0.1960108,1.220173,0.3061132,-0.06380548,1.049909,NA,NA,NotTracked,Unknown,
-0.7026367,0.7714844,0.3564453,0.9506836,-0.3310547,-0.07861328,7,6,37,14,5,8,7,10,-3,-4,-1,0,-1,-1,-2,-3,-52.5625,-52.5625,-52.5625,17.125,17.125,17.125,7.210843,6.079813,2.327805,2.053104,3.045607,7.343504,-0.2048621,-0.4610397,1.159115,0.07595856,0.1636792,1.041113,0.01998965,0.3106638,1.201123,-0.153704,-0.4352772,1.131386,0.1135706,0.1761602,1.050875,0.0140128,-0.1179894,1.224794,0.009503992,-0.4193812,1.212002,-0.1573829,0.05398102,1.214063,-0.06634513,-0.4060248,1.183721,-0.1919821,-0.1960782,1.220284,0.3070959,-0.05955226,1.046121,NA,NA,NotTracked,Unknown,
-0.987793,0.8886719,0.1669922,0.9506836,-0.3310547,-0.07861328,-12,-4,-15,-14,-6,-6,24,-8,-3,-4,-1,0,-1,-1,-2,-3,-23.4375,-23.4375,-23.4375,17.125,17.125,17.125,7.193879,6.108265,2.371976,2.053104,3.045607,7.343504,-0.2075288,-0.4630597,1.156215,0.09012374,0.1690549,1.05235,0.01935158,0.3108482,1.201247,-0.1545465,-0.4553381,1.131462,0.09964642,0.1901236,1.019,0.01416779,-0.1179796,1.224546,0.00966275,-0.419482,1.211496,-0.1574557,0.05396934,1.214189,-0.06623977,-0.4061499,1.183461,-0.1921914,-0.1962446,1.220373,0.3077518,-0.06003066,1.046694,NA,NA,NotTracked,Unknown,
-0.7832031,0.621582,0.01953125,0.9506836,-0.3310547,-0.07861328,-20,-10,-14,-25,-13,-5,-12,4,-3,-4,-1,0,-1,-1,-2,-3,60,60,60,17.125,17.125,17.125,7.307358,6.415974,2.423726,2.053104,3.045607,7.343504,-0.2098658,-0.4642879,1.153779,0.1297795,0.1677379,1.044267,0.01920917,0.3109415,1.201398,-0.1551966,-0.4450616,1.134906,0.09433921,0.1558171,1.026583,0.01431843,-0.1173238,1.224093,0.009828319,-0.4188018,1.210544,-0.1574598,0.05396603,1.214224,-0.06606545,-0.4054945,1.181943,-0.1922764,-0.1957559,1.220193,0.3085002,-0.05765634,1.045311,NA,NA,NotTracked,Lasso,
-0.402832,0.4169922,0.2749023,0.9506836,-0.3310547,-0.07861328,-10,-28,-1,16,5,-5,10,2,-3,-4,-1,0,-1,-1,-2,-3,6.875,6.875,6.875,17.125,17.125,17.125,7.250648,6.309945,2.326084,2.053104,3.045607,7.343504,-0.2106546,-0.4597913,1.151028,0.1160181,0.1650463,1.031564,0.01867067,0.3117318,1.20225,-0.1556304,-0.4290505,1.134625,0.1460621,0.1856497,1.049,0.01448628,-0.1171048,1.223881,0.009702194,-0.4184591,1.209728,-0.1574342,0.05395811,1.214233,-0.06625289,-0.4051847,1.181096,-0.1923402,-0.1953366,1.219918,0.309006,-0.05418598,1.042805,NA,NA,NotTracked,Lasso,
-0.8217773,0.7338867,0.2714844,0.9506836,-0.3310547,-0.07861328,-1,-47,-46,-31,-2,6,21,11,-3,-4,-1,0,-1,-1,-2,-3,-47.125,-47.125,-47.125,17.125,17.125,17.125,7.19513,6.118796,2.323344,2.053104,3.045607,7.343504,-0.2122135,-0.4630406,1.146432,0.1226126,0.1336647,1.033732,0.0177946,0.3123644,1.203153,-0.1605202,-0.4408098,1.125643,0.08848128,0.1226435,1.054475,0.01433853,-0.1169316,1.2232,0.009848599,-0.4187371,1.208886,-0.1574616,0.05390523,1.214313,-0.06617096,-0.4054176,1.180749,-0.1924997,-0.1958135,1.219266,0.3250859,-0.06338689,1.069738,NA,NA,NotTracked,Unknown,
-1.047852,0.9350586,-0.03076172,0.9506836,-0.3310547,-0.07861328,-22,-31,-21,-12,-5,-1,3,-13,-3,-4,-1,0,-1,-1,-2,-3,-22.5625,-22.5625,-22.5625,17.125,17.125,17.125,7.222784,6.190356,2.440991,2.053104,3.045607,7.343504,-0.2106691,-0.462368,1.14678,0.1307275,0.1412108,1.047559,0.01744921,0.312476,1.203572,-0.1568048,-0.4412914,1.136451,0.1941564,0.1460896,1.07825,0.01372092,-0.1166695,1.222216,0.009811545,-0.4190295,1.208039,-0.1573869,0.05367018,1.214056,-0.0662419,-0.4057035,1.18035,-0.1926954,-0.1962438,1.21889,0.3191825,-0.06847507,1.067341,NA,NA,NotTracked,Unknown,
-0.7836914,0.5678711,-0.1000977,0.9506836,-0.3310547,-0.07861328,-24,-9,-8,-12,-14,-10,-17,-17,-3,-4,-1,0,-1,-1,-2,-3,53.25,53.25,53.25,17.125,17.125,17.125,7.350199,6.435207,2.517545,2.053104,3.045607,7.343504,-0.2100177,-0.4650472,1.144623,0.1298101,0.1616914,1.045568,0.01743388,0.3125687,1.203619,-0.1588383,-0.4514045,1.130667,0.09040156,0.1544648,1.0253,0.014008,-0.11635,1.221794,0.01015674,-0.4186426,1.207039,-0.1573762,0.05370471,1.214059,-0.06586915,-0.4054621,1.179036,-0.192569,-0.1948706,1.218017,0.3090085,-0.05645366,1.043777,NA,NA,NotTracked,Lasso,
-0.1801758,0.5019531,0.2558594,0.9506836,-0.3310547,-0.07861328,26,-4,-26,8,-1,-2,27,17,-3,-4,-1,0,-1,-1,-2,-3,7.25,7.25,7.25,17.125,17.125,17.125,7.241886,6.326873,2.322079,2.053104,3.045607,7.343504,-0.2105245,-0.4648917,1.145117,0.1256024,0.1507543,1.031991,0.01730123,0.3131469,1.203924,-0.1582503,-0.4474081,1.130231,0.09612884,0.1363775,1.045769,0.01392235,-0.1160267,1.221427,0.01000112,-0.4184498,1.206356,-0.1572885,0.05364944,1.214017,-0.06607335,-0.4052743,1.178102,-0.1925329,-0.1946735,1.217698,0.3084742,-0.05473812,1.041672,NA,NA,NotTracked,Unknown,
-0.7910156,0.6254883,0.3959961,0.9506836,-0.3310547,-0.07861328,7,0,18,6,2,-2,14,21,-3,-4,-1,0,-1,-1,-2,-3,-89.9375,-89.9375,-89.9375,17.125,17.125,17.125,7.0976,6.185026,2.273867,2.053104,3.045607,7.343504,-0.2111611,-0.4654228,1.14441,0.1221085,0.132744,1.036298,0.01694515,0.313275,1.204106,-0.1587559,-0.4345012,1.129778,0.1466791,0.1560387,1.043385,0.01356206,-0.1160222,1.220978,0.01001877,-0.4185843,1.206172,-0.1573153,0.05369946,1.214056,-0.0660639,-0.4053933,1.178098,-0.1925823,-0.1952715,1.217549,0.3097023,-0.07775912,1.06623,NA,NA,NotTracked,Unknown,
-0.7265625,0.7143555,0.1367188,0.9506836,-0.3310547,-0.07861328,18,-2,-3,-24,-16,-4,-9,-6,-3,-4,-1,0,-1,-1,-2,-3,-73.9375,-73.9375,-73.9375,17.125,17.125,17.125,6.986736,6.237647,2.241062,2.053104,3.045607,7.343504,-0.2113301,-0.4668054,1.145278,0.1204702,0.1319007,1.032282,0.01672231,0.3133259,1.203986,-0.1577395,-0.4278481,1.133236,0.1419118,0.1618999,1.050667,0.01316137,-0.1162195,1.220315,0.009953666,-0.4189398,1.205789,-0.1574065,0.0536488,1.214071,-0.06611031,-0.4057741,1.178057,-0.192572,-0.1959001,1.217309,0.2947761,-0.09312829,1.068941,NA,NA,NotTracked,Lasso,
-0.6352539,0.7973633,0.3925781,0.9506836,-0.3310547,-0.07861328,-9,13,0,5,3,6,11,7,-3,-4,-1,0,-1,-1,-2,-3,-33.625,-33.625,-33.625,17.125,17.125,17.125,6.722017,6.168214,1.904539,2.053104,3.045607,7.343504,-0.2099026,-0.4686813,1.147906,0.1201733,0.120192,1.017642,0.01601519,0.3137056,1.204098,-0.1590814,-0.4362857,1.130848,0.09101997,0.1063082,1.040429,0.01262059,-0.1162505,1.219779,0.009620111,-0.4190836,1.205558,-0.1574872,0.05368151,1.214099,-0.06646299,-0.4059839,1.178306,-0.19254,-0.1970289,1.217087,0.2898141,-0.1029433,1.078184,NA,NA,NotTracked,Unknown,
-0.7163086,0.6743164,0.434082,0.9506836,-0.3310547,-0.07861328,-16,-13,4,7,3,-2,8,10,-3,-4,-1,0,-1,-1,-2,-3,-3.4375,-3.4375,-3.4375,17.125,17.125,17.125,6.610363,6.171278,1.803304,2.053104,3.045607,7.343504,-0.2165051,-0.4743305,1.144813,0.1236333,0.1159962,1.018578,0.0158914,0.3139071,1.203979,-0.170436,-0.4427365,1.120583,0.1696798,0.1403627,1.074667,0.0122175,-0.1162332,1.219413,0.009493009,-0.4191368,1.205527,-0.1575749,0.05371572,1.214079,-0.06661265,-0.406143,1.178539,-0.1927522,-0.1977935,1.217184,0.2846463,-0.1079312,1.081352,NA,NA,NotTracked,Unknown,
-0.5322266,0.5322266,0.4125977,0.9506836,-0.3310547,-0.07861328,6,15,15,16,4,-1,-2,-4,-3,-4,-1,0,-1,-1,-2,-3,-10.875,-10.875,-10.875,17.125,17.125,17.125,6.466937,6.162536,1.616369,2.053104,3.045607,7.343504,-0.2119021,-0.4679398,1.146274,0.1323302,0.1101679,1.011662,0.01582661,0.3140695,1.203829,-0.1583793,-0.4325968,1.131418,0.1082797,0.08925711,1.033983,0.01211023,-0.116143,1.2193,0.009092184,-0.419069,1.205458,-0.157687,0.05375484,1.214023,-0.06693995,-0.4061167,1.178626,-0.1929233,-0.197944,1.217139,0.2755655,-0.1206095,1.095719,NA,NA,NotTracked,Unknown,
-0.4863281,0.4741211,0.5107422,0.9506836,-0.3310547,-0.07861328,0,-5,-2,-1,3,2,2,11,-3,-4,-1,0,-1,-1,-2,-3,17.5,17.5,17.5,17.125,17.125,17.125,6.344011,6.037524,1.383561,2.053104,3.045607,7.343504,-0.21229,-0.4652283,1.14566,0.1530801,0.07067505,0.9910255,0.01591114,0.3141708,1.203792,-0.1565333,-0.4739557,1.118667,0.12789,0.08527238,1.013667,0.0117666,-0.1162149,1.219207,0.008908032,-0.4190073,1.205473,-0.1578465,0.05380712,1.213912,-0.06701644,-0.4060863,1.178626,-0.1936409,-0.1986876,1.216876,0.2683939,-0.1292393,1.108097,NA,NA,NotTracked,Unknown,
-0.5151367,0.449707,0.5390625,0.9506836,-0.3310547,-0.07861328,9,3,1,1,2,-6,-7,17,-3,-4,-1,0,-1,-1,-2,-3,-12.3125,-12.3125,-12.3125,17.125,17.125,17.125,6.253572,5.841071,1.233746,2.053104,3.045607,7.343504,-0.214848,-0.466176,1.144538,0.1761442,-0.008099097,0.9614264,0.01611187,0.3142036,1.203795,-0.1599862,-0.4139227,1.128636,0.1455353,-0.02015099,0.9469473,0.01122417,-0.1161843,1.219383,0.008936572,-0.4183301,1.206701,-0.1579895,0.05382328,1.213791,-0.06661404,-0.4056514,1.179273,-0.1944632,-0.1993674,1.216534,0.2738325,-0.1739841,1.170629,NA,NA,NotTracked,Closed,
-0.4677734,0.5771484,0.5908203,0.9506836,-0.3310547,-0.07861328,-5,-7,-7,-1,0,1,2,-3,-3,-4,-1,0,-1,-1,-2,-3,-24.375,-24.375,-24.375,17.125,17.125,17.125,6.085015,5.079925,0.9901478,2.053104,3.045607,7.343504,-0.2144772,-0.4662808,1.144589,0.1847309,-0.1123001,0.9361396,0.01632147,0.3144185,1.203633,-0.1607023,-0.4363709,1.113333,0.1570817,-0.1449449,0.9572222,0.01088331,-0.1158635,1.219138,0.00890204,-0.4175436,1.206672,-0.1581511,0.0538247,1.213467,-0.06633257,-0.4047062,1.178688,-0.194947,-0.199653,1.21596,0.2587004,-0.1587042,1.124515,NA,NA,NotTracked,Unknown,
-0.2158203,0.6430664,0.6123047,0.9506836,-0.3310547,-0.07861328,-23,4,14,2,-2,7,4,17,-3,-4,-1,0,-1,-1,-2,-3,-6.25,-6.25,-6.25,17.125,17.125,17.125,6.056981,4.555689,0.9155231,2.053104,3.045607,7.343504,-0.212504,-0.4667513,1.149381,0.1954887,-0.2417756,0.9396469,0.01652942,0.3145729,1.20349,-0.1607967,-0.4227597,1.126437,0.1928003,-0.2554365,0.9326667,0.01083088,-0.1157231,1.219009,0.009253986,-0.417173,1.20681,-0.1588172,0.05279119,1.20917,-0.06583451,-0.4043267,1.178352,-0.1952025,-0.2001533,1.215694,0.2383801,-0.1599833,1.181129,NA,NA,NotTracked,Unknown,
1.089355,0.5175781,0.6699219,0.9506836,-0.3310547,-0.07861328,11,1,-1,0,6,3,1,-5,-3,-4,-1,0,-1,-1,-2,-3,80.4375,80.4375,80.4375,17.125,17.125,17.125,6.217145,4.015701,0.8472773,2.053104,3.045607,7.343504,-0.2095986,-0.4668086,1.156107,0.2117126,-0.3452825,1.028185,0.01669014,0.3147392,1.203501,-0.1603223,-0.4179059,1.129975,0.1869778,-0.3948548,1.0664,0.01084254,-0.1156217,1.218947,0.01032812,-0.4167014,1.207172,-0.1590982,0.05255237,1.208172,-0.06450456,-0.4039225,1.177831,-0.1951357,-0.2005112,1.215513,0.225464,-0.1578437,1.228192,NA,NA,NotTracked,Unknown,
1.394043,0.527832,0.4379883,0.9506836,-0.3310547,-0.07861328,9,0,-1,0,-4,-6,-2,7,-3,-4,-1,0,-1,-1,-2,-3,31.375,31.375,31.375,17.125,17.125,17.125,6.541865,3.401768,0.6489559,2.053104,3.045607,7.343504,-0.2058413,-0.4614713,1.160504,0.221484,-0.425584,1.072552,0.01694063,0.3148003,1.203578,-0.1579526,-0.4571781,1.13503,0.1971816,-0.4333481,1.0907,0.01110054,-0.1155358,1.218999,0.01208003,-0.4163278,1.207738,-0.159131,0.05258184,1.208356,-0.06273338,-0.4037637,1.177836,-0.1948206,-0.2010505,1.215234,0.2269631,-0.1725966,1.228701,NA,NA,NotTracked,NotTracked,
1.557617,0.3808594,0.02441406,0.9506836,-0.3310547,-0.07861328,21,-4,-4,-3,-4,-14,-27,5,-3,-4,-1,0,-1,-1,-2,-3,162.75,162.75,162.75,17.125,17.125,17.125,7.08827,3.023354,0.2868898,2.053104,3.045607,7.343504,-0.2026489,-0.4616476,1.162345,0.2249128,-0.4644793,1.1355,0.01747026,0.3146779,1.204006,-0.1574853,-0.444214,1.132254,0.1830951,-0.4279308,1.13475,0.01202357,-0.115504,1.219463,0.01453956,-0.4160573,1.208505,-0.1591827,0.05258379,1.208565,-0.05999327,-0.4036942,1.177976,-0.1941723,-0.2018634,1.215258,0.2256594,-0.1845924,1.227335,NA,NA,NotTracked,NotTracked,
1.035645,0.4868164,-0.005859375,0.9506836,-0.3310547,-0.07861328,-3,5,6,2,-2,-4,-15,10,-3,-4,-1,0,-1,-1,-2,-3,65,65,65,17.125,17.125,17.125,8.161815,2.773508,9.477931,2.053104,3.045607,7.343504,-0.1993536,-0.4620797,1.161209,0.2219076,-0.4786074,1.177701,0.01780259,0.3145416,1.204388,-0.1534597,-0.4415004,1.1303,0.1800678,-0.4599389,1.134151,0.01349161,-0.1154954,1.220422,0.01747805,-0.4159533,1.210113,-0.1593091,0.05219538,1.208379,-0.05660568,-0.4039185,1.179746,-0.1937811,-0.2016474,1.215259,0.224253,-0.1892682,1.22864,NA,NA,NotTracked,NotTracked,
0.90625,0.3374023,0.0009765625,0.9506836,-0.3310547,-0.07861328,-1,10,9,3,-3,-6,-16,1,-3,-4,-1,0,-1,-1,-2,-3,-50.125,-50.125,-50.125,17.125,17.125,17.125,8.294514,2.768542,9.283764,2.053104,3.045607,7.343504,-0.1981111,-0.4654586,1.162447,0.2243376,-0.4785047,1.203669,0.01814684,0.3144433,1.204796,-0.1523257,-0.4482433,1.128191,0.1852939,-0.4778911,1.157,0.01497554,-0.1155958,1.221565,0.01980662,-0.4158736,1.211707,-0.1591809,0.05227174,1.209045,-0.05407222,-0.4040567,1.181277,-0.1931696,-0.2016848,1.215476,0.2231964,-0.1935785,1.235531,NA,NA,NotTracked,NotTracked,
0.96875,0.3432617,0.03710938,0.9506836,-0.3310547,-0.07861328,-10,-5,0,-3,-4,-1,-6,-6,-3,-4,-1,0,-1,-1,-2,-3,-27.9375,-27.9375,-27.9375,17.125,17.125,17.125,8.335901,2.78598,9.201245,2.053104,3.045607,7.343504,-0.1967082,-0.4654771,1.163653,0.2290367,-0.4796107,1.212038,0.01854436,0.3142762,1.205102,-0.1517657,-0.4488569,1.127652,0.1910772,-0.4816995,1.169134,0.01542508,-0.115777,1.222199,0.0201663,-0.4159369,1.212378,-0.1590509,0.05224982,1.209716,-0.05362104,-0.40414,1.182008,-0.1919284,-0.2028174,1.216406,0.2224477,-0.1962183,1.240867,NA,NA,NotTracked,NotTracked,
0.9384766,0.2094727,-0.03759766,0.9506836,-0.3310547,-0.07861328,-1,1,0,-1,0,1,-10,-24,-3,-4,-1,0,-1,-1,-2,-3,-12.375,-12.375,-12.375,17.125,17.125,17.125,8.276132,2.817709,9.223105,2.053104,3.045607,7.343504,-0.1966555,-0.4713158,1.164892,0.2333414,-0.4817115,1.208674,0.01875597,0.3141366,1.205551,-0.1510611,-0.4534918,1.1298,0.1951984,-0.486435,1.170846,0.0158127,-0.1160885,1.22305,0.02058377,-0.4161915,1.213289,-0.1590585,0.05134031,1.209518,-0.05314391,-0.4044614,1.183058,-0.1912759,-0.203254,1.216908,0.2224455,-0.1971152,1.243166,NA,NA,NotTracked,NotTracked,
