ALX,ALY,ALZ,ARX,ARY,ARZ,EMG0L,EMG1L,EMG2L,EMG3L,EMG4L,EMG5L,EMG6L,EMG7L,EMG0R,EMG1R,EMG2R,EMG3R,EMG4R,EMG5R,EMG6R,EMG7R,GLX,GLY,GLZ,GRX,GRY,GRZ,ORL,OPL,OYL,ORR,OPR,OYR,LHNX,LHNY,LHNZ,RHNX,RHNY,RHNZ,HX,HY,HZ,LTX,LTY,LTZ,RTX,RTY,RTZ,SpineMidX,SpineMidY,SpineMidZ,SpineBaseX,SpineBaseY,SpineBaseZ,ShoulderLeftX,ShoulderLeftY,ShoulderLeftZ,ShoulderRightX,ShoulderRightY,ShoulderRightZ,ElbowLeftX,ElbowLeftY,ElbowLeftZ,ElbowRightX,ElbowRightY,ElbowRightZ,Myo_Pose_left,Myo_Pose_Right,Kinect_pose_left,Kinect_pose_right
0.9746094,0.09472656,0.05810547,0.9589844,-0.2675781,-0.002929688,-2,-1,-1,2,6,5,2,-1,-6,-2,-1,-2,-1,-1,-2,0,-1.9375,-1.9375,-1.9375,-3,-3,-3,6.813539,2.687232,5.233925,2.390174,2.933049,6.983916,-0.2051752,-0.4537963,1.14346,0.190496,-0.4761219,1.176647,-0.003690618,0.3068789,1.187095,-0.1587557,-0.4352942,1.113927,0.1583753,-0.4541804,1.137,-0.003557937,-0.1202787,1.220305,0.006584573,-0.4195138,1.216417,-0.1767018,0.04899403,1.188511,-0.0668279,-0.4086213,1.184527,-0.2084288,-0.1993573,1.194627,0.1995482,-0.1895434,1.225466,NA,NA,NotTracked,NotTracked,
0.9594727,0.1147461,0.04980469,0.9624023,-0.2626953,-0.01074219,0,1,1,0,3,4,0,-2,0,1,0,0,0,-1,1,2,-2.0625,-2.0625,-2.0625,-3.375,-3.375,-3.375,6.809576,2.687371,5.235407,2.38438,2.932355,6.985481,-0.204636,-0.4545821,1.143776,0.1910358,-0.4743034,1.177678,-0.003583141,0.3068997,1.187232,-0.158778,-0.435178,1.114048,0.1611173,-0.4472773,1.141261,-0.003560153,-0.1202509,1.22036,0.006511964,-0.4194505,1.216479,-0.1774091,0.04903376,1.189137,-0.06688742,-0.4085615,1.18457,-0.2083177,-0.1993197,1.194681,0.199493,-0.1895512,1.225469,NA,NA,NotTracked,NotTracked,
0.9555664,0.1157227,0.05078125,0.9604492,-0.2617188,-0.01171875,-2,-2,-3,-2,-4,-6,-2,-2,-6,-6,-1,-1,-1,-1,-2,-3,1.4375,1.4375,1.4375,-2.9375,-2.9375,-2.9375,6.808535,2.68678,5.237108,2.378899,2.932616,6.984167,-0.2044764,-0.4537556,1.143529,0.1902393,-0.4759491,1.177437,-0.00352763,0.3069002,1.187292,-0.1587279,-0.4342538,1.114056,0.158739,-0.4574803,1.138468,-0.00359061,-0.1202619,1.22041,0.006468898,-0.4195123,1.216461,-0.1753165,0.0487254,1.187462,-0.0669312,-0.4086194,1.184525,-0.2082667,-0.1992238,1.19465,0.1997083,-0.1893857,1.225739,NA,NA,NotTracked,NotTracked,
0.9726563,0.1137695,0.05810547,0.9604492,-0.2602539,-0.01123047,-4,-2,0,-1,-9,-2,-1,0,3,0,-3,-3,0,-1,1,2,-2.125,-2.125,-2.125,-1.625,-1.625,-1.625,6.807761,2.688474,5.236062,2.37635,2.932056,6.983474,-0.2046702,-0.454134,1.143102,0.1903014,-0.4754085,1.177616,-0.003383596,0.3069446,1.187596,-0.1589549,-0.4356223,1.114103,0.1590318,-0.4489746,1.138793,-0.003565968,-0.1202597,1.220553,0.006475442,-0.4195432,1.216513,-0.174078,0.04862477,1.186402,-0.06692488,-0.4086431,1.184564,-0.2082445,-0.1991126,1.194735,0.1998376,-0.1892891,1.225973,NA,NA,NotTracked,NotTracked,
0.9814453,0.152832,0.04882813,0.9697266,-0.2734375,-0.01416016,-1,-1,0,-1,1,1,-3,-2,-6,2,2,0,0,-1,0,-10,-4.75,-4.75,-4.75,-2.3125,-2.3125,-2.3125,6.810126,2.69418,5.228281,2.374993,2.933078,6.981699,-0.2044073,-0.4549178,1.142095,0.1903373,-0.4747983,1.176886,-0.003294053,0.3069411,1.187676,-0.1585002,-0.4336194,1.113674,0.1572921,-0.4697748,1.139465,-0.003581399,-0.1202611,1.220598,0.006447141,-0.4195845,1.216499,-0.173406,0.04853325,1.185902,-0.0669486,-0.4086818,1.184574,-0.2082645,-0.1993239,1.194625,0.1998533,-0.1893236,1.226089,NA,NA,NotTracked,NotTracked,
1.05127,0.4799805,-0.001464844,0.9892578,-0.2763672,0.02294922,-15,7,36,22,-11,-11,-12,-12,0,0,-2,-1,1,0,3,1,-20.125,-20.125,-20.125,-20.625,-20.625,-20.625,6.747792,2.730928,5.278025,2.360763,2.93309,6.977371,-0.2048652,-0.4537072,1.143338,0.1907828,-0.4757568,1.170895,-0.003157486,0.3069706,1.18783,-0.1587143,-0.4348152,1.113806,0.157339,-0.4628545,1.137712,-0.003613886,-0.1201927,1.22068,0.006400954,-0.4195091,1.216498,-0.1759103,0.04908015,1.188257,-0.06698646,-0.4085981,1.184587,-0.208309,-0.1993036,1.194661,0.2001333,-0.1893674,1.225914,NA,NA,NotTracked,NotTracked,
1.211426,0.6630859,0.2768555,0.8823242,-0.2929688,0.002441406,-9,-10,-80,-82,21,4,-4,-4,3,2,4,1,-1,0,1,8,102.5,102.5,102.5,-47.0625,-47.0625,-47.0625,6.392074,2.909025,5.716182,2.305749,2.921341,6.960875,-0.2048947,-0.4525771,1.143246,0.1827203,-0.4619422,1.123533,-0.003030251,0.3069223,1.188173,-0.158713,-0.4351839,1.113848,0.1476654,-0.4312302,1.121524,-0.003705784,-0.1201561,1.220782,0.006229649,-0.4194151,1.216326,-0.1756255,0.04914225,1.188185,-0.06723296,-0.4084932,1.184177,-0.2083603,-0.1993292,1.194595,0.2058125,-0.1885921,1.220911,NA,NA,NotTracked,NotTracked,
0.9169922,0.734375,1.341797,0.9702148,-0.2485352,0.02929688,24,17,28,8,-22,1,0,-1,-4,-5,-2,-2,-2,-1,-1,-5,104.75,104.75,104.75,-77.8125,-77.8125,-77.8125,6.265676,3.587201,6.128255,2.230518,2.905257,6.881309,-0.2043096,-0.4554704,1.141107,0.1206759,-0.3879326,1.027951,-0.002812034,0.30687,1.188634,-0.1588042,-0.435236,1.114456,0.09223341,-0.3766739,1.001518,-0.007897543,-0.1201432,1.22101,-0.008602764,-0.4189045,1.214724,-0.1764959,0.04910638,1.188476,-0.0839958,-0.4052932,1.182047,-0.2082658,-0.1990364,1.193472,0.2225706,-0.1615416,1.194456,NA,NA,NotTracked,Unknown,
0.1655273,0.4521484,1.021484,1.007813,-0.25,0.03173828,37,26,31,41,3,7,6,10,0,0,-3,-3,-4,-3,-2,-14,136.0625,136.0625,136.0625,-55.75,-55.75,-55.75,6.24131,4.30522,6.509879,2.202403,2.901625,6.796007,-0.2022121,-0.4532583,1.137307,0.01051441,-0.2442192,0.967311,-0.002312844,0.306684,1.189586,-0.1585888,-0.459239,1.116717,0.003632117,-0.2839005,0.9715,-0.008511079,-0.1197671,1.223114,-0.007694304,-0.4178757,1.218,-0.1724646,0.04838965,1.184477,-0.08110671,-0.4043812,1.186011,-0.2069294,-0.2000804,1.189473,0.2142984,-0.1444689,1.146244,NA,NA,NotTracked,Lasso,
0.002929688,0.121582,1.115234,0.9956055,-0.1201172,-0.1743164,16,1,13,10,3,-1,8,14,-11,0,0,-3,-1,-4,-2,2,136.5,136.5,136.5,-83,-83,-83,6.319789,4.874366,6.99652,1.92168,2.888875,6.968054,-0.1974712,-0.453542,1.129302,-0.08341793,-0.114534,0.9764778,-0.001210506,0.3065494,1.191131,-0.1558231,-0.440339,1.114519,-0.1078571,-0.1322115,0.9441111,-0.005141209,-0.118915,1.225814,0.002138672,-0.4158192,1.222548,-0.1705392,0.04876157,1.182574,-0.07007293,-0.4031064,1.189661,-0.2021332,-0.2285407,1.165573,0.1890998,-0.1318549,1.044619,NA,NA,NotTracked,Unknown,
0.3642578,0.2836914,0.9082031,0.9609375,-0.2348633,-0.1621094,17,5,-8,-1,-9,-9,-7,-12,-3,-4,1,0,-1,0,-2,-4,140.625,140.625,140.625,-46.25,-46.25,-46.25,6.564347,5.164898,7.476564,1.784431,2.889423,6.992733,-0.1948027,-0.4507337,1.128089,-0.1276909,-0.04451338,1.020522,0.00107047,0.3066283,1.193578,-0.1559607,-0.4560356,1.11396,-0.09006407,-0.02205016,1.055667,-0.003155287,-0.1183522,1.227548,0.004463059,-0.4147337,1.224575,-0.1691268,0.04979997,1.180026,-0.06740295,-0.4022788,1.191957,-0.1935387,-0.1940032,1.151247,0.1506451,-0.1019007,1.040543,NA,NA,NotTracked,Unknown,
0.2070313,0.2832031,0.5810547,0.9790039,-0.1806641,-0.08398438,-2,-1,-7,-5,-6,-4,-2,-11,6,1,-2,1,0,0,-1,4,100.8125,100.8125,100.8125,25.375,25.375,25.375,6.712599,5.241481,7.757001,1.851767,2.878443,6.946964,-0.1943114,-0.4520188,1.12863,-0.1556209,-0.01965186,1.057076,0.00300867,0.3066677,1.195058,-0.1514632,-0.4400133,1.114248,-0.1363315,0.002597879,1.040615,-0.002616055,-0.1180165,1.227651,0.004753163,-0.4141078,1.224284,-0.1679709,0.0501299,1.176829,-0.06727322,-0.4020479,1.192246,-0.1953125,-0.1982585,1.160693,0.1071109,-0.07104541,1.015132,NA,NA,NotTracked,Unknown,
0.5756836,0.6298828,0.2104492,0.9643555,-0.2231445,-0.08447266,17,10,3,2,-2,3,7,4,0,-1,0,0,0,-2,-1,-4,-13.5,-13.5,-13.5,55.75,55.75,55.75,6.86307,5.186416,8.142878,1.936969,2.883384,6.92809,-0.1947297,-0.452601,1.131725,-0.1663043,-0.01679192,1.074979,0.004305091,0.3066351,1.196214,-0.1512514,-0.4406572,1.114617,-0.1894252,0.0003953153,1.0686,-0.002292675,-0.1178155,1.227568,0.004783461,-0.4137548,1.223622,-0.1678482,0.04961937,1.175248,-0.06732661,-0.4020135,1.192364,-0.1957498,-0.2014211,1.165501,0.0909941,-0.06720075,1.014537,NA,NA,NotTracked,Unknown,
0.2163086,0.9155273,0.2880859,0.984375,-0.159668,-0.04785156,28,3,-10,-8,-26,-4,2,12,5,3,-4,0,-1,-1,-1,-1,-39.6875,-39.6875,-39.6875,57.1875,57.1875,57.1875,6.818887,5.12756,8.137915,2.004134,2.889666,6.97481,-0.1950775,-0.4501099,1.134297,-0.1697187,-0.02300183,1.076111,0.004930606,0.3068379,1.197637,-0.1507565,-0.4396142,1.113943,-0.1444717,-0.001089116,1.048312,-0.002213313,-0.1175993,1.227367,0.004128996,-0.4129992,1.222452,-0.1678651,0.04972867,1.174929,-0.06790869,-0.4016904,1.192297,-0.1961268,-0.2026285,1.168883,0.08960323,-0.06840587,1.014599,NA,NA,NotTracked,Unknown,
-0.08789063,0.8339844,0.6699219,0.9716797,-0.2719727,-0.06201172,-9,-14,-2,3,29,34,3,12,2,-2,-5,-4,-2,-2,-2,-1,-46.5625,-46.5625,-46.5625,45.3125,45.3125,45.3125,6.693957,5.053191,7.986652,1.987089,2.892838,7.103986,-0.1963008,-0.4522075,1.13869,-0.1569767,-0.02794771,1.070607,0.004791259,0.3068897,1.198387,-0.1502325,-0.4360389,1.112919,-0.1424221,-1.101749E-05,1.061938,-0.00232815,-0.1174702,1.22724,0.003160474,-0.4124607,1.221492,-0.1678648,0.04989194,1.174889,-0.0688973,-0.4013035,1.191946,-0.1970693,-0.2044559,1.173155,0.100976,-0.0736673,1.015199,NA,NA,NotTracked,Unknown,
-0.09521484,0.8994141,0.8012695,0.9448242,-0.2563477,-0.08398438,4,-14,8,6,-17,-12,-2,-7,1,-2,-4,-3,-2,-2,-1,1,-23.0625,-23.0625,-23.0625,52.375,52.375,52.375,6.608129,5.033606,7.843794,2.021717,2.891486,7.1604,-0.1990249,-0.4531734,1.142291,-0.124044,-0.0380234,1.061204,0.00436801,0.3068519,1.199107,-0.1514826,-0.4318973,1.113132,-0.09720425,-0.02013579,1.084,-0.002336163,-0.1174169,1.227316,0.002946034,-0.4123515,1.221609,-0.1681786,0.05002194,1.175246,-0.06915939,-0.4011655,1.192259,-0.1982716,-0.2054428,1.17727,0.1333785,-0.08628698,1.020853,NA,NA,NotTracked,Unknown,
-0.5214844,0.8525391,0.5810547,0.9814453,-0.1972656,-0.02832031,17,8,0,-2,-11,-6,6,12,2,2,1,-2,1,1,0,2,-13.5,-13.5,-13.5,16.625,16.625,16.625,6.577928,5.072164,7.735375,2.050748,2.886304,7.182485,-0.2002569,-0.4533674,1.142636,-0.1028316,-0.03910535,1.056235,0.003801427,0.3068295,1.199532,-0.1525369,-0.4374478,1.111937,-0.08256901,-0.07577743,1.077428,-0.002490191,-0.1173716,1.227201,0.00213397,-0.412436,1.220964,-0.1684619,0.04990081,1.17555,-0.06982748,-0.4011294,1.191851,-0.1995124,-0.205604,1.179547,0.1547475,-0.09601761,1.031129,NA,NA,NotTracked,Unknown,
-0.5668945,0.8349609,0.4936523,0.9990234,-0.3164063,-0.01025391,-23,-26,-19,-13,-9,-7,-8,-38,2,1,1,0,-2,-1,1,4,10.8125,10.8125,10.8125,-51.4375,-51.4375,-51.4375,6.581673,5.183187,7.712601,2.016503,2.882209,7.142127,-0.2018328,-0.4548217,1.144045,-0.09436813,-0.03464051,1.060512,0.003347958,0.3068175,1.199968,-0.1532185,-0.4384807,1.112834,-0.06902709,-0.07425529,1.0865,-0.002574876,-0.1173763,1.227216,0.001548423,-0.4126822,1.220684,-0.1684502,0.04970922,1.1756,-0.07040651,-0.4012258,1.191487,-0.2011223,-0.2054579,1.181527,0.1606,-0.09748667,1.033844,NA,NA,NotTracked,Unknown,
-0.5043945,1.080078,0.5996094,0.9541016,-0.2275391,-0.03027344,-17,-34,-2,-1,-4,-9,-8,-17,-3,0,1,-1,0,1,0,-2,41.6875,41.6875,41.6875,-19.6875,-19.6875,-19.6875,6.649385,5.2882,7.747446,2.036294,2.884692,7.07612,-0.2023954,-0.453503,1.141857,-0.1024004,-0.02261478,1.061735,0.002973631,0.3067077,1.200461,-0.1551205,-0.4301261,1.1115,-0.09794561,-0.05792684,1.0918,-0.002683273,-0.1173455,1.227218,0.001324774,-0.4127535,1.220406,-0.1682726,0.0495732,1.175288,-0.07067697,-0.4012786,1.191095,-0.20155,-0.2054024,1.181647,0.1598631,-0.0972651,1.034722,NA,NA,NotTracked,Unknown,
-0.2875977,1.004395,0.597168,0.9702148,-0.1645508,-0.07226563,8,8,-19,-16,-6,-6,2,38,-2,-1,-1,0,-1,1,0,0,32.5625,32.5625,32.5625,-70.0625,-70.0625,-70.0625,6.76743,5.445151,7.860951,1.993426,2.879155,7.034085,-0.2024609,-0.4511584,1.137862,-0.1210234,0.007380487,1.069526,0.002954645,0.306621,1.200944,-0.1543479,-0.4380878,1.113176,-0.159676,0.001699038,1.039933,-0.002711187,-0.1173523,1.227238,0.00121622,-0.4128956,1.220202,-0.1671851,0.04953392,1.174066,-0.07085852,-0.4013657,1.190711,-0.2018568,-0.2041788,1.180763,0.1355813,-0.08437525,1.02199,NA,NA,NotTracked,Unknown,
-0.2099609,0.784668,0.4243164,1.033691,-0.1875,-0.1074219,-12,-12,-27,-10,-5,-9,-5,-7,-2,0,2,1,0,0,-1,-2,46,46,46,-71.3125,-71.3125,-71.3125,6.876002,5.638086,7.997045,1.846078,2.874633,7.017004,-0.2009715,-0.4482516,1.134845,-0.1413872,0.05590604,1.094634,0.003054316,0.3064382,1.201339,-0.1546898,-0.4376255,1.113184,-0.147911,0.003356551,1.11932,-0.003292038,-0.1176217,1.228886,0.001268078,-0.4133717,1.219689,-0.1641819,0.04761986,1.170525,-0.07103878,-0.4020682,1.190028,-0.2019136,-0.2023643,1.179157,0.09164888,-0.05974055,1.010506,NA,NA,NotTracked,NotTracked,
-0.2099609,0.784668,0.4243164,0.953125,-0.2055664,-0.09423828,7,-1,-6,-6,-5,-9,-17,-51,-11,-4,-2,-1,-1,-1,-3,-11,46,46,46,-54.875,-54.875,-54.875,6.876002,5.638086,7.997045,1.819899,2.869484,6.935245,-0.2006149,-0.4467492,1.133337,-0.1463203,0.06203566,1.098033,0.003154789,0.3063474,1.201632,-0.1540382,-0.4373137,1.11322,-0.145026,0.006991899,1.119161,-0.003644317,-0.1176959,1.229876,0.001375002,-0.4136975,1.219343,-0.1629109,0.04732763,1.168665,-0.07113098,-0.4026723,1.18959,-0.2020562,-0.2004799,1.177014,0.08703312,-0.05206119,1.007262,NA,NA,NotTracked,NotTracked,
0.1274414,0.6791992,0.546875,0.8710938,-0.15625,-0.08007813,22,9,4,3,-4,14,-7,-6,-1,-2,-3,0,-2,0,-1,0,-33.3125,-33.3125,-33.3125,-35.1875,-35.1875,-35.1875,6.946001,5.609695,8.123267,1.782634,2.86783,6.90767,-0.2005704,-0.4477038,1.130913,-0.15624,0.05246383,1.095191,0.003139406,0.3062699,1.201755,-0.1556508,-0.4457341,1.112109,-0.2082957,0.04397726,1.068611,-0.004018245,-0.1175136,1.230034,0.001273817,-0.4137315,1.219026,-0.1628692,0.04741854,1.168352,-0.07140128,-0.4028631,1.189191,-0.2018116,-0.1995583,1.174762,0.08492875,-0.04972724,1.006738,NA,NA,Unknown,NotTracked,
-0.2929688,0.8603516,0.3671875,1.02832,-0.2202148,-0.02392578,-38,-14,-4,-4,14,25,-9,-28,-7,0,1,-2,-1,-1,-2,-13,-18.125,-18.125,-18.125,-5.1875,-5.1875,-5.1875,6.882014,5.452631,8.105382,1.728931,2.866131,6.935181,-0.2007684,-0.443739,1.129517,-0.1721755,0.01409424,1.082818,0.002919899,0.3062331,1.20188,-0.1545906,-0.4383428,1.112765,-0.1763249,0.03010509,1.055806,-0.004658024,-0.1169665,1.229205,0.0008464229,-0.4132099,1.218539,-0.1632883,0.04814959,1.168008,-0.07185618,-0.4025808,1.188931,-0.201721,-0.1988821,1.171713,0.08783729,-0.05463008,1.009536,NA,NA,Unknown,NotTracked,
-0.2348633,0.7866211,0.4321289,0.940918,-0.1650391,-0.1289063,-14,-7,-19,-16,-13,-19,-19,-13,-3,-2,0,-4,-2,-2,-4,-4,-59.6875,-59.6875,-59.6875,-3.5,-3.5,-3.5,6.812277,5.368063,8.065547,1.641403,2.866317,7.015939,-0.2008323,-0.4437283,1.13041,-0.1700149,-0.02340056,1.091009,0.002631401,0.3061716,1.202036,-0.1550637,-0.4372696,1.113297,-0.157033,0.02391654,1.113909,-0.005200866,-0.1167161,1.228824,0.0003569568,-0.4128024,1.218375,-0.1646297,0.04905275,1.168576,-0.07234963,-0.4022916,1.188841,-0.2016167,-0.1991088,1.170247,0.09009801,-0.06356285,1.01557,NA,NA,NotTracked,NotTracked,
-0.1826172,0.7993164,0.4765625,0.9614258,-0.237793,-0.1108398,-8,-3,-3,3,12,-15,-25,-63,0,-1,-1,0,-3,-1,0,-7,-27.375,-27.375,-27.375,39.5,39.5,39.5,6.730008,5.107319,8.063938,1.667612,2.877849,7.029477,-0.2013222,-0.4425128,1.129137,-0.1707586,-0.0642763,1.10894,0.002098561,0.30605,1.202073,-0.1552958,-0.4377428,1.11257,-0.1484038,-0.009722057,1.129754,-0.006072127,-0.1167429,1.229028,-0.0004025037,-0.4127339,1.217984,-0.1662208,0.04912461,1.170061,-0.07328174,-0.4022768,1.188147,-0.2006425,-0.1998358,1.165834,0.09313222,-0.07411335,1.023324,NA,NA,NotTracked,NotTracked,
-0.08154297,1.122559,0.4589844,0.9682617,-0.2124023,-0.09912109,-2,-1,-3,-6,-17,-11,10,58,0,2,-1,0,0,0,-3,-1,-21.5,-21.5,-21.5,23.1875,23.1875,23.1875,6.668481,4.850379,8.037633,1.718018,2.87988,7.024843,-0.201286,-0.4469492,1.129541,-0.1909418,-0.0978729,1.115948,0.001541094,0.305904,1.202107,-0.1547815,-0.4381024,1.112261,-0.1864379,-0.0363369,1.13332,-0.006488288,-0.116959,1.229922,-0.0006028914,-0.4129819,1.217942,-0.1671516,0.04895029,1.171239,-0.07358202,-0.4026563,1.187811,-0.2002924,-0.2135963,1.158164,0.09488691,-0.08571869,1.031514,NA,NA,NotTracked,NotTracked,
0.1376953,1.061035,0.6494141,0.9873047,-0.2333984,-0.1337891,15,4,5,8,0,3,8,8,0,-3,-1,-1,-1,0,-1,-1,-40.5,-40.5,-40.5,35.625,35.625,35.625,6.612039,4.83539,8.01082,1.779649,2.878633,7.014515,-0.2012412,-0.4440593,1.131292,-0.1920399,-0.09931288,1.116961,0.001091288,0.3056555,1.202041,-0.1549836,-0.437676,1.111955,-0.1878721,-0.03735398,1.133486,-0.006873622,-0.1172647,1.229335,-0.0007694403,-0.4132425,1.217968,-0.1711407,0.0492491,1.172681,-0.07377844,-0.4029532,1.187599,-0.2004381,-0.2173601,1.155683,0.09549598,-0.09107348,1.03556,NA,NA,NotTracked,NotTracked,
0.2919922,0.793457,0.7368164,0.9277344,-0.199707,-0.09619141,-11,-13,11,17,8,4,6,10,-2,-3,-4,0,-1,0,0,1,-8.1875,-8.1875,-8.1875,12,12,12,6.585654,4.884134,7.996894,1.823048,2.88176,7.004801,-0.2019301,-0.4427565,1.130276,-0.1931636,-0.09494541,1.113146,0.000501426,0.3054968,1.201789,-0.1554839,-0.4429275,1.109812,-0.1887239,-0.03765383,1.132964,-0.007266507,-0.1174802,1.228877,-0.00100854,-0.413494,1.218024,-0.1710752,0.04914697,1.172838,-0.07401834,-0.4031512,1.187477,-0.2007087,-0.2171981,1.15555,0.09513856,-0.09409787,1.036843,NA,NA,NotTracked,NotTracked,
0.8969727,0.8374023,0.3920898,1.033203,-0.1142578,-0.09716797,-3,2,1,5,-1,-1,4,5,5,2,0,-1,-2,-1,-2,1,-33.5625,-33.5625,-33.5625,59.4375,59.4375,59.4375,6.537691,4.903535,7.92758,1.996325,2.899315,6.923239,-0.2023339,-0.4416831,1.128772,-0.1889474,-0.09295307,1.104192,-0.0002815187,0.3052987,1.201411,-0.1563457,-0.4447357,1.109399,-0.1985124,-0.0298213,1.134,-0.00743269,-0.1177163,1.229761,-0.0009486608,-0.4137801,1.21848,-0.1711883,0.04909134,1.173094,-0.07393281,-0.4033726,1.187624,-0.2020013,-0.2133446,1.155848,0.09947617,-0.09855065,1.040315,NA,NA,NotTracked,NotTracked,
0.5795898,0.3823242,0.7592773,0.9804688,-0.1962891,-0.07617188,-6,-1,-9,-4,-20,-4,-2,-2,-1,-2,0,1,0,-2,-2,-3,-84.5625,-84.5625,-84.5625,89.8125,89.8125,89.8125,6.416979,5.017085,7.71723,2.202461,2.898999,6.851534,-0.2035143,-0.4436824,1.131663,-0.129311,-0.06931081,1.053996,-0.001485108,0.3053649,1.201177,-0.1563201,-0.436889,1.110329,-0.103261,-0.02259816,1.094955,-0.007696869,-0.1177442,1.229811,-0.001007956,-0.4138648,1.219917,-0.177134,0.04980462,1.175618,-0.07367741,-0.4033485,1.18913,-0.2057421,-0.213655,1.16396,0.1319292,-0.1156539,1.058809,NA,NA,NotTracked,Unknown,
0.1015625,0.3955078,0.8173828,0.9428711,-0.2558594,-0.01855469,-8,-3,-4,-2,3,-1,-7,-4,5,2,0,1,-1,-1,-1,8,-94.75,-94.75,-94.75,67.375,67.375,67.375,6.251957,5.108143,7.378727,2.314095,2.898945,6.86903,-0.2062717,-0.4470294,1.136256,-0.09601532,-0.07982471,1.020856,-0.003724944,0.3055633,1.200895,-0.159072,-0.4295461,1.108728,-0.08651802,-0.03974051,1.08285,-0.009143569,-0.117798,1.229262,-0.001823703,-0.4139535,1.219886,-0.1768313,0.0497116,1.176324,-0.0742569,-0.4032229,1.189152,-0.2113724,-0.2111056,1.173435,0.1862484,-0.1329024,1.101842,NA,NA,NotTracked,Unknown,
-0.2021484,0.4213867,0.9248047,0.9941406,-0.2363281,0.1450195,3,1,-2,2,-1,1,0,2,4,2,3,-1,-1,0,-1,4,-69.9375,-69.9375,-69.9375,24.1875,24.1875,24.1875,6.081739,5.049137,6.972384,2.388106,2.905659,6.898465,-0.2129624,-0.4471217,1.144454,-0.01364856,-0.140119,0.9971793,-0.00652592,0.3065011,1.20077,-0.1655526,-0.4315832,1.114424,-0.01810266,-0.1054764,1.057467,-0.01157371,-0.1175671,1.228531,-0.004440878,-0.4136735,1.219836,-0.1836868,0.05062117,1.183078,-0.07674765,-0.4026039,1.188973,-0.216723,-0.2068735,1.183529,0.216765,-0.1473441,1.108813,NA,NA,NotTracked,Unknown,
-0.2211914,0.2456055,0.9082031,0.9775391,-0.3540039,0.1083984,9,6,5,0,0,7,6,2,-6,-3,-3,0,-1,-1,-1,-1,-44.1875,-44.1875,-44.1875,23.75,23.75,23.75,5.949047,4.509551,6.359377,2.407161,2.912657,6.912842,-0.2162354,-0.4508097,1.148522,0.0389557,-0.2244271,0.9936307,-0.008455477,0.3070498,1.200001,-0.1680827,-0.4291246,1.113676,0.002536891,-0.2068917,1.052286,-0.01442557,-0.1175447,1.227672,-0.00809206,-0.4142773,1.219592,-0.1839836,0.05053591,1.184691,-0.08054813,-0.4030167,1.188393,-0.2208472,-0.2037051,1.189976,0.2121988,-0.1394746,1.183659,NA,NA,NotTracked,Unknown,
0.1201172,0.5048828,0.7260742,0.956543,-0.2631836,0.01220703,-20,-6,-6,-9,-3,-3,-10,-1,0,-2,-2,-1,-1,-1,-1,-3,-42.375,-42.375,-42.375,41.875,41.875,41.875,6.007083,4.08256,6.06066,2.474521,2.92427,6.946525,-0.2189515,-0.4507535,1.151147,0.09855141,-0.3264298,1.009977,-0.01008571,0.3075541,1.199148,-0.1711436,-0.455705,1.1122,0.06250045,-0.3389536,1.047786,-0.01910401,-0.1181597,1.225524,-0.01668863,-0.4163458,1.21741,-0.1845014,0.05012383,1.185941,-0.08953126,-0.4038963,1.185951,-0.2225808,-0.2018936,1.192977,0.2155074,-0.1476763,1.205102,NA,NA,NotTracked,Closed,
0.5844727,0.4868164,0.6098633,0.9868164,-0.3120117,-0.02783203,8,-7,-11,-13,-7,-3,1,-19,-1,1,-1,-1,0,1,1,2,-67.125,-67.125,-67.125,-4.375,-4.375,-4.375,6.127736,3.532087,5.690456,2.480479,2.931956,6.949804,-0.217958,-0.4542112,1.148164,0.1523457,-0.4018907,1.055946,-0.01106252,0.3078678,1.198155,-0.1710427,-0.4310342,1.113978,0.1287985,-0.402024,1.072133,-0.02166714,-0.1186197,1.223122,-0.02096231,-0.4173279,1.21406,-0.1820833,0.04948417,1.18499,-0.09448328,-0.4043257,1.18218,-0.2228666,-0.201729,1.194281,0.2104536,-0.1634875,1.221962,NA,NA,NotTracked,Unknown,
0.9389648,0.4023438,0.625,0.9716797,-0.2548828,-0.02099609,26,2,0,1,1,4,4,-14,-7,-2,-4,-1,0,-1,0,-4,-30.8125,-30.8125,-30.8125,1.3125,1.3125,1.3125,6.339377,3.17901,5.334621,2.493695,2.938392,6.936298,-0.2178706,-0.4531983,1.145192,0.1758465,-0.4503668,1.114288,-0.01167665,0.3079198,1.197538,-0.1720251,-0.4569502,1.112895,0.1497625,-0.436904,1.128583,-0.02119838,-0.1187979,1.222434,-0.01720435,-0.417821,1.213024,-0.1837744,0.04878709,1.186154,-0.0904327,-0.4055845,1.180853,-0.2229266,-0.2015404,1.194709,0.2013546,-0.1818804,1.230097,NA,NA,NotTracked,NotTracked,
1.15332,0.3129883,0.1508789,0.9516602,-0.2348633,-0.0004882813,20,7,4,3,3,6,0,-29,3,-1,-2,-2,1,-1,-1,0,-33.75,-33.75,-33.75,-12.75,-12.75,-12.75,6.834979,2.912268,4.75492,2.499893,2.934203,6.916253,-0.2173997,-0.453539,1.143468,0.1909727,-0.4763991,1.156934,-0.0119982,0.3079529,1.197233,-0.1712647,-0.4285856,1.112,0.1439559,-0.4671728,1.12775,-0.02062803,-0.1189635,1.222283,-0.01371725,-0.4184451,1.213421,-0.184504,0.04856181,1.186329,-0.08676317,-0.4068516,1.180798,-0.2229659,-0.2016851,1.19488,0.1939266,-0.1909596,1.230745,NA,NA,NotTracked,NotTracked,
1.233887,0.1669922,-0.04785156,0.9589844,-0.2495117,0.0009765625,12,2,-2,16,1,-1,-4,1,-4,-6,-4,-2,-1,0,2,7,34.4375,34.4375,34.4375,-14,-14,-14,7.561778,2.786343,4.025157,2.461158,2.927641,6.914916,-0.2170939,-0.4525889,1.142552,0.1926347,-0.4867091,1.183786,-0.01208662,0.3079954,1.197107,-0.1709037,-0.4516809,1.110273,0.1495876,-0.4517985,1.139579,-0.01970532,-0.1192493,1.222226,-0.01013058,-0.4192192,1.21425,-0.1841583,0.04837649,1.185629,-0.08316038,-0.4080732,1.181248,-0.2230435,-0.2016196,1.194889,0.1901496,-0.1944327,1.232012,NA,NA,NotTracked,NotTracked,
0.9682617,0.2319336,0.04638672,0.96875,-0.2524414,-0.02294922,-2,-1,0,-2,4,1,7,24,6,4,-1,1,-2,-1,-1,-12,29.5625,29.5625,29.5625,-5.1875,-5.1875,-5.1875,7.951682,2.733021,3.728373,2.430642,2.922964,6.933676,-0.216965,-0.452144,1.141977,0.1880391,-0.482959,1.197655,-0.01211095,0.3080337,1.196917,-0.1714473,-0.4310497,1.111793,0.15454,-0.4449442,1.150923,-0.01902753,-0.1193832,1.222343,-0.008429024,-0.4194969,1.214875,-0.1845479,0.04808274,1.1855,-0.08134764,-0.4085562,1.181861,-0.2228618,-0.2017242,1.194763,0.1862214,-0.1976677,1.234158,NA,NA,NotTracked,NotTracked,
0.9501953,0.09472656,0.078125,0.9667969,-0.2543945,-0.01464844,0,1,0,-4,-5,3,9,4,-4,-2,-1,0,-3,-2,-1,-3,29.1875,29.1875,29.1875,4.8125,4.8125,4.8125,7.888326,2.699435,3.826987,2.427356,2.920301,6.938731,-0.2173572,-0.4528174,1.142538,0.1814975,-0.4811486,1.199144,-0.0121015,0.3080484,1.196706,-0.1734635,-0.4599617,1.112958,0.1516711,-0.4737551,1.1575,-0.01869374,-0.1195585,1.222299,-0.007845103,-0.4198749,1.215031,-0.1834894,0.04774123,1.184882,-0.080792,-0.4088583,1.181968,-0.222757,-0.2015915,1.194683,0.1845888,-0.1980347,1.235716,NA,NA,NotTracked,NotTracked,
0.9541016,0.2075195,-0.01513672,0.9658203,-0.2543945,0.002929688,-3,-1,0,1,-4,4,-2,9,-2,-1,-3,-3,-2,-2,-3,2,31.375,31.375,31.375,7.875,7.875,7.875,7.743608,2.675285,4.033575,2.444982,2.922296,6.937598,-0.216304,-0.4536974,1.142982,0.1793752,-0.480486,1.199632,-0.01202692,0.3080276,1.196288,-0.1714623,-0.4401545,1.11178,0.1513792,-0.4635413,1.151201,-0.01818298,-0.119649,1.222184,-0.007410051,-0.4198697,1.215195,-0.185371,0.04768355,1.185689,-0.0803297,-0.4088658,1.182134,-0.2226724,-0.20149,1.194602,0.1826128,-0.1967953,1.236615,NA,NA,NotTracked,NotTracked,
0.9770508,0.2324219,-0.1196289,0.9599609,-0.253418,-0.01513672,2,-1,-2,0,-1,-4,-3,-6,-2,0,-3,-1,1,-1,2,-2,-6.8125,-6.8125,-6.8125,5.5625,5.5625,5.5625,7.799592,2.684999,3.98309,2.446346,2.921556,6.947968,-0.2171387,-0.4530767,1.143491,0.1796637,-0.4816223,1.198201,-0.01207115,0.3079601,1.195852,-0.1714544,-0.4383688,1.111624,0.1512694,-0.4629689,1.150408,-0.01787092,-0.1197943,1.222044,-0.006968384,-0.4200511,1.215314,-0.181695,0.04766605,1.18385,-0.07987553,-0.4090135,1.182346,-0.2226003,-0.2014596,1.194572,0.1816652,-0.1963554,1.237026,NA,NA,NotTracked,NotTracked,
0.9580078,0.07177734,0.06591797,0.9672852,-0.2456055,0.006347656,-2,-1,-1,-1,0,-2,1,-3,0,-2,2,-1,-2,-2,0,-3,16.4375,16.4375,16.4375,0.3125,0.3125,0.3125,7.743706,2.682275,4.061159,2.448582,2.918086,6.950614,-0.2164037,-0.4533389,1.14331,0.180586,-0.4805187,1.196813,-0.0122166,0.3079243,1.195259,-0.1702092,-0.4600849,1.109316,0.150283,-0.4767942,1.151937,-0.01755847,-0.119959,1.221759,-0.006646616,-0.4201926,1.215219,-0.1834644,0.04755742,1.184332,-0.07957181,-0.40914,1.182241,-0.2224706,-0.2014259,1.194536,0.1815077,-0.1961303,1.237237,NA,NA,NotTracked,NotTracked,
0.972168,0.06152344,0.02539063,0.9594727,-0.2607422,-0.00390625,1,1,1,0,4,5,6,1,1,-2,-2,1,0,-1,-1,0,4.875,4.875,4.875,3.375,3.375,3.375,7.641938,2.677499,4.174876,2.443914,2.921073,6.957469,-0.217005,-0.4524707,1.144037,0.1806927,-0.4801464,1.19568,-0.01246242,0.3079489,1.194977,-0.1709414,-0.4498141,1.111145,0.1511037,-0.471011,1.151733,-0.01733519,-0.1201326,1.221611,-0.006442626,-0.4203501,1.215255,-0.1833887,0.04741123,1.184483,-0.07941177,-0.4092626,1.182247,-0.2224107,-0.2014566,1.194535,0.1815651,-0.1954308,1.23704,NA,NA,NotTracked,NotTracked,
