ALX,ALY,ALZ,ARX,ARY,ARZ,EMG0L,EMG1L,EMG2L,EMG3L,EMG4L,EMG5L,EMG6L,EMG7L,EMG0R,EMG1R,EMG2R,EMG3R,EMG4R,EMG5R,EMG6R,EMG7R,GLX,GLY,GLZ,GRX,GRY,GRZ,ORL,OPL,OYL,ORR,OPR,OYR,LHNX,LHNY,LHNZ,RHNX,RHNY,RHNZ,HX,HY,HZ,LTX,LTY,LTZ,RTX,RTY,RTZ,SpineMidX,SpineMidY,SpineMidZ,SpineBaseX,SpineBaseY,SpineBaseZ,ShoulderLeftX,ShoulderLeftY,ShoulderLeftZ,ShoulderRightX,ShoulderRightY,ShoulderRightZ,ElbowLeftX,ElbowLeftY,ElbowLeftZ,ElbowRightX,ElbowRightY,ElbowRightZ,Myo_Pose_left,Myo_Pose_Right,Kinect_pose_left,Kinect_pose_right
0.9418945,0.2451172,-0.04199219,-0.9516602,0.2944336,-0.07226563,0,-2,-2,-1,-1,2,0,7,-1,0,-1,4,2,-2,2,-2,-0.625,-0.625,-0.625,-1.4375,-1.4375,-1.4375,7.792355,2.900344,4.070406,7.887191,7.003274,9.774759,-0.2276111,-0.4642226,1.099311,0.161399,-0.4753264,1.122059,-0.01927328,0.3068989,1.167568,-0.1949608,-0.4409325,1.093667,0.1245225,-0.4514652,1.089505,-0.0279131,-0.1256275,1.194983,-0.02315546,-0.4299512,1.183993,-0.194757,0.0462956,1.178413,-0.1017985,-0.4183842,1.151088,-0.2264122,-0.1985853,1.169022,0.1805105,-0.192236,1.196559,NA,NA,NotTracked,NotTracked,
0.9375,0.2446289,-0.046875,-0.949707,0.2954102,-0.06982422,-1,-2,-2,0,8,3,-1,-6,-1,-2,-4,-3,0,-5,-3,-1,1,1,1,-1.875,-1.875,-1.875,7.794911,2.901113,4.069785,7.881356,7.00316,9.77282,-0.2270734,-0.4647934,1.099289,0.1617963,-0.4753288,1.122008,-0.01944845,0.3068863,1.167782,-0.1943411,-0.437932,1.096222,0.12478,-0.4495702,1.089659,-0.02801823,-0.12563,1.195035,-0.02321078,-0.4299679,1.183975,-0.1949049,0.04608091,1.17859,-0.1018663,-0.4184127,1.151083,-0.2264981,-0.1985355,1.169034,0.1802315,-0.1922046,1.196756,NA,NA,NotTracked,NotTracked,
0.9384766,0.2426758,-0.046875,-0.949707,0.2939453,-0.06787109,-1,0,0,-2,-3,-1,1,-3,0,-1,-1,-1,1,4,16,4,1.6875,1.6875,1.6875,-1.75,-1.75,-1.75,7.797704,2.900531,4.069537,7.879511,7.00303,9.77271,-0.2181118,-0.4671127,1.09997,0.1610171,-0.4752958,1.122227,-0.01968958,0.3069102,1.168039,-0.173063,-0.4542513,1.076727,0.1247283,-0.4501187,1.089715,-0.02832719,-0.1256618,1.19522,-0.02337922,-0.4300314,1.183995,-0.1948974,0.04613256,1.179672,-0.1020331,-0.418437,1.151119,-0.2265032,-0.1985771,1.169074,0.1801364,-0.1922317,1.196885,NA,NA,NotTracked,NotTracked,
0.9404297,0.2421875,-0.046875,-0.9541016,0.2958984,-0.0703125,-2,0,0,1,-1,-2,-17,-6,0,-1,-1,-1,-1,3,9,2,0.8125,0.8125,0.8125,-1.3125,-1.3125,-1.3125,7.796951,2.901566,4.071597,7.878683,7.002879,9.773687,-0.2166339,-0.4740956,1.09846,0.1613884,-0.4753754,1.122562,-0.01980101,0.3069653,1.168268,-0.1736338,-0.4555422,1.079435,0.1230408,-0.4702862,1.089762,-0.02842261,-0.1256633,1.195405,-0.02341004,-0.4300587,1.184068,-0.1954495,0.04604052,1.177832,-0.1020609,-0.4184539,1.15116,-0.2265999,-0.1986375,1.169156,0.1800133,-0.1920604,1.197232,NA,NA,NotTracked,NotTracked,
0.9423828,0.237793,-0.05029297,-0.9516602,0.293457,-0.07568359,-2,-3,-2,1,0,-3,-13,-2,-1,-2,-1,0,-2,-3,-2,0,0.25,0.25,0.25,-1.6875,-1.6875,-1.6875,7.797502,2.901693,4.071102,7.876866,7.001689,9.775913,-0.2275957,-0.464568,1.099752,0.1614307,-0.4749404,1.122889,-0.01989865,0.3069839,1.168482,-0.195613,-0.4450172,1.091054,0.1232046,-0.4435599,1.0901,-0.02866497,-0.1256614,1.195627,-0.02383792,-0.4300894,1.184328,-0.1950508,0.04631327,1.178833,-0.1024399,-0.4184666,1.151384,-0.2266736,-0.198875,1.169346,0.1799422,-0.192164,1.197311,NA,NA,NotTracked,NotTracked,
0.9379883,0.2446289,-0.04150391,-0.9506836,0.2993164,-0.07275391,1,-1,1,1,0,-1,1,3,-2,0,-3,0,0,0,-3,-3,1.1875,1.1875,1.1875,-0.875,-0.875,-0.875,7.795243,2.902043,4.075504,7.876939,7.001399,9.77709,-0.2281062,-0.465365,1.100814,0.1615922,-0.4756196,1.123305,-0.01999573,0.3070227,1.168747,-0.1937878,-0.4378696,1.097318,0.1242505,-0.4503954,1.091102,-0.02875631,-0.1256619,1.19578,-0.0239083,-0.4300856,1.184413,-0.1955094,0.04623903,1.177759,-0.1024999,-0.4184712,1.151483,-0.2267053,-0.1989004,1.169435,0.1798688,-0.192322,1.19795,NA,NA,NotTracked,NotTracked,
0.9428711,0.2426758,-0.05126953,-0.9511719,0.3007813,-0.07275391,0,-2,0,0,3,-2,-2,1,0,-1,0,-4,-4,-9,-4,-4,-1.0625,-1.0625,-1.0625,-0.375,-0.375,-0.375,7.794595,2.902467,4.076397,7.877114,7.001263,9.77763,-0.227926,-0.4639822,1.100184,0.161232,-0.4758781,1.122701,-0.02002443,0.306999,1.16892,-0.195017,-0.4433236,1.091641,0.1239679,-0.4455947,1.090395,-0.02876331,-0.1256608,1.195922,-0.02390215,-0.430106,1.184474,-0.1944567,0.04668846,1.181366,-0.1025067,-0.4184734,1.151571,-0.2266987,-0.1988935,1.169648,0.179625,-0.1924987,1.197974,NA,NA,NotTracked,NotTracked,
0.9379883,0.2397461,-0.04248047,-0.9609375,0.296875,-0.1083984,-2,-2,-3,-2,0,0,0,-7,5,2,3,0,-1,3,10,2,-0.1875,-0.1875,-0.1875,-5.625,-5.625,-5.625,7.793898,2.902279,4.076952,7.877388,6.999786,9.781672,-0.2281139,-0.4649172,1.100947,0.1614443,-0.4752739,1.123496,-0.02007262,0.3070518,1.169527,-0.1943993,-0.4375967,1.096874,0.1238335,-0.44893,1.090621,-0.02874418,-0.1256502,1.196024,-0.02387395,-0.4300954,1.184504,-0.193831,0.04673721,1.182838,-0.1024769,-0.4184743,1.151644,-0.2267258,-0.1989142,1.16971,0.1797714,-0.1922598,1.198182,NA,NA,NotTracked,NotTracked,
0.9868164,0.2919922,-0.1147461,-1.016602,0.3959961,-0.1894531,0,-2,-2,0,1,1,9,-3,7,10,17,5,8,2,8,5,-22.0625,-22.0625,-22.0625,-34.75,-34.75,-34.75,7.765893,2.912482,4.085443,7.806424,6.982183,9.74591,-0.2280502,-0.464479,1.100622,0.1610731,-0.4749505,1.122501,-0.02005794,0.3070394,1.169867,-0.1942767,-0.4378227,1.096857,0.1237747,-0.4480941,1.090598,-0.02874301,-0.1256418,1.196275,-0.02382711,-0.4301337,1.184624,-0.1945628,0.04634025,1.180446,-0.1024533,-0.41849,1.151721,-0.2269528,-0.1988607,1.170022,0.1797477,-0.1922605,1.198247,NA,NA,NotTracked,NotTracked,
1.053711,0.4370117,-0.262207,-1.243652,0.4921875,-0.1445313,-3,1,0,0,0,-6,-13,-8,-4,0,14,-3,-18,6,-7,-2,-49.6875,-49.6875,-49.6875,-119.6875,-119.6875,-119.6875,7.642137,2.94295,4.158867,7.394536,6.807297,9.556168,-0.2256985,-0.4609528,1.089673,0.1656236,-0.4569647,1.119902,-0.02008146,0.3071324,1.1701,-0.1961469,-0.4305282,1.102369,0.1239571,-0.4484949,1.090937,-0.02876566,-0.125595,1.196327,-0.02380622,-0.4301074,1.184621,-0.194788,0.04615403,1.178918,-0.102443,-0.4184856,1.151712,-0.2288669,-0.1992003,1.171132,0.1811345,-0.1923779,1.198866,NA,NA,NotTracked,NotTracked,
1.321289,0.4765625,-0.06884766,-1.078125,0.9018555,0.1733398,14,8,-18,8,-6,-4,-9,-18,-15,-12,-11,-1,-2,-8,-20,-14,-54.25,-54.25,-54.25,-37,-37,-37,7.246289,3.079658,4.462597,7.190149,6.473111,9.433734,-0.2199359,-0.4427504,1.050782,0.1663464,-0.4340405,1.099734,-0.02007706,0.3071374,1.170217,-0.1928456,-0.4225754,1.082572,0.1270193,-0.4140305,1.094592,-0.02878301,-0.1255412,1.196367,-0.0238466,-0.4299616,1.184645,-0.1942974,0.04653551,1.180438,-0.1025892,-0.4183419,1.151893,-0.2399978,-0.1991032,1.176141,0.1930003,-0.1886046,1.205021,NA,NA,NotTracked,NotTracked,
1.167969,0.7973633,0.2724609,-0.6757813,0.9941406,0.3662109,-21,-10,3,25,-11,-11,-13,3,3,-4,-14,-34,-78,-39,6,8,-62.8125,-62.8125,-62.8125,-110.1875,-110.1875,-110.1875,6.939163,3.397644,4.719584,7.042711,6.03246,9.404154,-0.2186046,-0.376159,1.006979,0.1563501,-0.3848227,1.068796,-0.02005069,0.3071354,1.170293,-0.1998576,-0.3431101,0.9855001,0.121466,-0.3914431,1.095774,-0.02885525,-0.1253747,1.19634,-0.02399707,-0.4294564,1.184531,-0.194091,0.04735325,1.181726,-0.1030171,-0.4179775,1.151874,-0.2595082,-0.175126,1.186934,0.2113971,-0.1751219,1.21297,NA,NA,Unknown,NotTracked,
0.5678711,0.5834961,0.5522461,-0.2631836,0.5991211,0.4311523,-2,-7,-2,-4,-13,-2,27,0,-6,-4,-5,-15,45,26,0,-9,-102.125,-102.125,-102.125,-57.9375,-57.9375,-57.9375,6.619663,3.937037,4.836717,6.886278,5.582716,9.378617,-0.2215384,-0.2631814,0.9837928,0.1698389,-0.291787,0.9962707,-0.0200548,0.3071253,1.170315,-0.16122,-0.2784153,0.9928572,0.1729002,-0.3215726,1.006308,-0.02898022,-0.1250263,1.19619,-0.02448536,-0.4284848,1.184011,-0.1946822,0.04835864,1.181151,-0.103797,-0.4170241,1.151482,-0.2689741,-0.1530317,1.19098,0.2264297,-0.1533944,1.213258,NA,NA,Lasso,Lasso,
0.1733398,0.5493164,0.5439453,-0.02539063,0.7148438,0.3398438,19,-3,-15,-13,-10,-2,25,10,-13,-4,-5,4,-45,-8,-4,-7,-24.5,-24.5,-24.5,28.9375,28.9375,28.9375,6.515734,4.372494,4.87098,6.908174,5.076755,9.328464,-0.2206511,-0.174745,0.9589723,0.1880573,-0.1995579,0.9845833,-0.02002197,0.3071275,1.170331,-0.1683767,-0.146602,0.9767779,0.1489424,-0.2415109,1.028308,-0.02915809,-0.1245724,1.196383,-0.02493546,-0.4275807,1.184071,-0.1941414,0.04967718,1.183121,-0.1045526,-0.4160266,1.151587,-0.2905993,-0.1421145,1.190038,0.2311504,-0.1321262,1.208657,NA,NA,Unknown,Unknown,
-0.01806641,0.53125,0.5405273,0.06689453,0.6000977,0.3945313,-17,-5,1,-11,-15,-12,-4,18,-3,0,3,12,-38,12,6,0,23.25,23.25,23.25,21.25,21.25,21.25,6.525064,4.835483,4.925666,6.936346,4.843683,9.268412,-0.2175909,-0.1228901,0.9491017,0.1867823,-0.134162,0.962209,-0.01992962,0.3071038,1.170995,-0.1658863,-0.1404256,1.018857,0.135695,-0.1353379,0.9685293,-0.02930528,-0.124137,1.196852,-0.02538027,-0.4268492,1.184369,-0.194018,0.05076205,1.183648,-0.105135,-0.4152828,1.151996,-0.3065329,-0.1313231,1.136633,0.2526916,-0.1247749,1.18264,NA,NA,Unknown,Unknown,
-0.08105469,0.4936523,0.5908203,0.02832031,0.7143555,0.5146484,10,10,7,11,-2,-1,-13,-2,4,6,10,28,9,-20,2,6,36.1875,36.1875,36.1875,11.5625,11.5625,11.5625,6.564492,5.036624,4.995804,6.95163,4.744974,9.203785,-0.2119016,-0.09619483,0.9395978,0.1815156,-0.1018915,0.9502014,-0.01969858,0.3069961,1.172188,-0.1578986,-0.1164863,1.00425,0.1357995,-0.1189303,1.0245,-0.02927386,-0.1238137,1.19759,-0.02550509,-0.4265866,1.184523,-0.1949439,0.05113487,1.182123,-0.1053158,-0.4150591,1.152194,-0.301255,-0.108575,1.066908,0.2554901,-0.1152087,1.1186,NA,NA,Lasso,Unknown,
-0.03515625,0.4580078,0.6474609,0.1748047,0.4980469,0.8320313,-32,-22,-9,5,18,-9,22,18,-19,-6,0,9,36,13,12,-6,-0.8125,-0.8125,-0.8125,-24.3125,-24.3125,-24.3125,6.559061,5.102949,5.1646,6.906727,4.699516,9.100205,-0.202067,-0.08929507,0.9308824,0.160668,-0.09477484,0.9406931,-0.01942009,0.3071123,1.174884,-0.1619291,-0.1203664,1.006891,0.1161329,-0.1128142,0.9849,-0.02926493,-0.1234741,1.198477,-0.02560428,-0.4262438,1.1848,-0.1954448,0.05210143,1.18015,-0.105432,-0.4147465,1.152392,-0.2957216,-0.1070775,1.053692,0.2565631,-0.1096822,1.105512,NA,NA,Lasso,Unknown,
0.06347656,0.640625,0.5405273,0.07080078,0.7905273,0.5620117,-21,-11,-10,-6,-13,-14,-10,-7,-2,-2,-4,-1,12,3,-17,-12,-10.625,-10.625,-10.625,-26.625,-26.625,-26.625,6.538766,5.052506,5.355785,6.883137,4.735518,8.936894,-0.1799198,-0.09625553,0.9272918,0.1325235,-0.1053503,0.9368802,-0.01936374,0.3073057,1.17705,-0.1421362,-0.1249616,1.004333,0.07924272,-0.1143169,0.969,-0.02929264,-0.1229561,1.199273,-0.02577889,-0.4254812,1.185111,-0.1955398,0.05289801,1.178528,-0.1054884,-0.4141066,1.1525,-0.2944308,-0.1090727,1.059301,0.253607,-0.1101826,1.102711,NA,NA,Unknown,Unknown,
0.3085938,1.019531,0.4375,-0.4633789,1.023438,0.01660156,8,-1,-1,-3,-4,-8,-7,4,-2,-4,-9,-12,-4,-30,-24,-2,0.4375,0.4375,0.4375,-3.375,-3.375,-3.375,6.552293,4.964703,5.471462,6.900183,4.804798,8.912181,-0.1648415,-0.1056813,0.9214575,0.1133309,-0.119263,0.9361889,-0.01948015,0.3074743,1.178859,-0.1371318,-0.08101837,0.9658889,0.06214603,-0.1343521,0.9581429,-0.02934808,-0.1224738,1.200265,-0.025904,-0.4248729,1.185431,-0.19562,0.05298839,1.177452,-0.1054568,-0.4134797,1.152787,-0.2880225,-0.1170453,1.064988,0.2475283,-0.1139107,1.103367,NA,NA,Unknown,Unknown,
0.1870117,1.15332,0.3164063,-0.6953125,0.9682617,0.1171875,5,4,0,9,0,-4,12,9,-1,-2,5,18,-18,4,27,2,-12.3125,-12.3125,-12.3125,-20.875,-20.875,-20.875,6.563392,4.924001,5.480661,6.920332,4.865956,8.968986,-0.1629988,-0.1122846,0.9190676,0.11296,-0.1220686,0.9348705,-0.0196442,0.3074259,1.17959,-0.1412795,-0.08401778,0.9613537,0.0682542,-0.1352041,0.9551,-0.02936522,-0.1223083,1.200568,-0.02593048,-0.4245048,1.185549,-0.1945366,0.05229938,1.179008,-0.1053774,-0.413088,1.152859,-0.2841014,-0.1209731,1.069512,0.2433213,-0.1165739,1.104563,NA,NA,Unknown,Unknown,
0.6928711,1.123535,0.5405273,-0.612793,0.8393555,0.07666016,2,-3,-6,-9,-8,-6,-18,-5,0,0,-2,-3,4,-9,-10,0,4.625,4.625,4.625,8.8125,8.8125,8.8125,6.561389,4.879606,5.410125,6.916433,4.936089,9.056764,-0.1717798,-0.1103119,0.9211753,0.123456,-0.1142543,0.9350801,-0.01978051,0.3074648,1.179982,-0.1508241,-0.07987461,0.9571001,0.1007721,-0.08374749,0.962625,-0.02941149,-0.1221984,1.200751,-0.02600208,-0.424355,1.1856,-0.1941886,0.05172441,1.179268,-0.1053921,-0.412927,1.152923,-0.2838039,-0.12228,1.071151,0.2428008,-0.1170143,1.105039,NA,NA,Lasso,Unknown,
0.2172852,0.7216797,0.9985352,-0.4912109,0.6953125,0.3852539,-27,2,6,-2,4,-1,-5,-9,0,-1,-1,-2,-16,-17,0,-4,0.5,0.5,0.5,11.9375,11.9375,11.9375,6.550213,4.870492,5.353235,6.935403,4.88989,9.138423,-0.1848398,-0.104086,0.9281152,0.1390934,-0.1044483,0.9385121,-0.01986827,0.3074908,1.179991,-0.1535474,-0.1133432,0.9848889,0.1228159,-0.1403616,0.957625,-0.02944306,-0.1221641,1.200778,-0.02600634,-0.4243133,1.18557,-0.1943171,0.05155634,1.179916,-0.1054004,-0.4128939,1.152905,-0.286385,-0.1219282,1.073275,0.2443843,-0.1163568,1.105481,NA,NA,Unknown,Unknown,
-0.628418,0.7475586,0.1777344,0.9458008,0.8950195,0.8515625,2,4,0,-8,-16,-11,-11,-5,1,-4,-6,-11,25,-15,-13,-3,15.625,15.625,15.625,25.375,25.375,25.375,6.603272,4.957794,5.202995,6.94698,4.815445,9.200906,-0.1972645,-0.09990042,0.9327831,0.1563964,-0.09810501,0.9437795,-0.01990999,0.3075239,1.179922,-0.1083087,-0.08934289,0.9113333,0.1091259,-0.1009556,0.9916667,-0.02948141,-0.1221068,1.200696,-0.02602938,-0.4242223,1.185363,-0.1948709,0.0516293,1.17911,-0.1054808,-0.4128085,1.152678,-0.3034284,-0.1127323,1.07414,0.2512003,-0.1102568,1.099985,NA,NA,Unknown,Unknown,
0.2817383,0.9106445,0.7460938,0.9599609,0.7490234,1.090332,22,4,0,7,34,28,12,45,-4,-1,3,12,26,11,19,15,0.0625,0.0625,0.0625,-12.1875,-12.1875,-12.1875,6.567787,4.966705,5.15531,6.883905,4.784705,9.201049,-0.1994517,-0.09711592,0.9316615,0.1596837,-0.09776136,0.9458048,-0.01997814,0.3075629,1.179828,-0.1597805,-0.1182988,1.00725,0.1220922,-0.113011,0.9888333,-0.02956842,-0.12204,1.20054,-0.02610516,-0.4241132,1.184861,-0.1952227,0.05161481,1.178141,-0.1056163,-0.4127209,1.152168,-0.3024633,-0.1338449,1.024744,0.2576058,-0.1086151,1.105408,NA,NA,Unknown,Unknown,
-0.2060547,0.8227539,0.262207,0.6704102,1.192383,0.5336914,6,-7,-4,1,-5,-4,2,0,6,0,-2,-4,0,15,19,20,-12.9375,-12.9375,-12.9375,-27.1875,-27.1875,-27.1875,6.572929,4.981372,5.1854,6.834067,4.713837,9.076123,-0.1927188,-0.1022877,0.9326019,0.1493526,-0.105699,0.9489375,-0.01999706,0.3076223,1.179821,-0.1542624,-0.1235179,1.01125,0.1134505,-0.132257,0.9809091,-0.02960214,-0.1219639,1.200445,-0.02610572,-0.4239921,1.18447,-0.1956159,0.05167369,1.177452,-0.1056199,-0.4126084,1.151759,-0.296556,-0.1175915,1.057866,0.2563933,-0.108929,1.104446,NA,NA,Unknown,Unknown,
0.015625,0.6743164,1.067383,0.2050781,1.020508,0.8579102,-5,-1,5,3,-1,15,24,23,-3,1,3,14,15,-5,-10,-13,-7.0625,-7.0625,-7.0625,-6.5625,-6.5625,-6.5625,6.513751,4.922834,5.337324,6.789896,4.699372,9.004965,-0.1767124,-0.1069427,0.928367,0.1300082,-0.1165448,0.9480427,-0.01998017,0.3076093,1.179876,-0.154647,-0.08459754,0.978375,0.08193187,-0.1127358,0.9838572,-0.02961878,-0.1219264,1.200415,-0.02609078,-0.423836,1.184192,-0.1958502,0.05182073,1.176708,-0.1055296,-0.4123892,1.151344,-0.2908121,-0.1209133,1.071642,0.2514615,-0.1142531,1.110633,NA,NA,Unknown,Unknown,
0.6342773,1.132813,1.085449,-0.1083984,1.095215,0.1376953,-1,-3,1,-2,2,-5,10,-5,2,2,3,7,5,8,36,5,-7.625,-7.625,-7.625,-10.1875,-10.1875,-10.1875,6.530616,4.890321,5.404325,6.802259,4.744214,9.003416,-0.1662599,-0.1116574,0.92402,0.1208975,-0.1218777,0.9459414,-0.01995815,0.3076239,1.180025,-0.142196,-0.08504371,0.9623334,0.07382348,-0.1383845,0.9678182,-0.02962556,-0.1218821,1.200403,-0.02608828,-0.4237496,1.184126,-0.1957496,0.05177236,1.175732,-0.1054438,-0.4122584,1.15123,-0.287062,-0.1264354,1.077569,0.2458252,-0.1179037,1.112208,NA,NA,Unknown,Unknown,
0.6425781,1.061035,0.668457,-0.1210938,0.7792969,0.3271484,1,-4,0,-2,-9,-3,7,16,-4,-2,-2,-2,6,5,5,1,-9.4375,-9.4375,-9.4375,-7,-7,-7,6.535056,4.859472,5.339474,6.790314,4.814768,9.07233,-0.1700467,-0.1178255,0.9235131,0.1255061,-0.1281736,0.9409243,-0.01991768,0.3076498,1.180066,-0.1509148,-0.08722789,0.9578,0.08932307,-0.1525363,0.9548182,-0.02969828,-0.1218185,1.200385,-0.02623384,-0.4236171,1.184083,-0.1946612,0.05124793,1.178193,-0.1054979,-0.41207,1.151121,-0.2843526,-0.1275094,1.079434,0.2427427,-0.1204244,1.117273,NA,NA,Unknown,Unknown,
0.5952148,0.7983398,1.152344,-0.009765625,0.6279297,0.347168,0,-2,-3,-5,-4,-3,-7,3,0,0,1,-2,-25,-2,2,4,-7.3125,-7.3125,-7.3125,-6.0625,-6.0625,-6.0625,6.527645,4.830693,5.249014,6.779627,4.929552,9.187084,-0.1793987,-0.1405099,0.9253843,0.1394864,-0.1489504,0.936298,-0.0198952,0.3076918,1.180066,-0.1391593,-0.1240837,0.9506667,0.122286,-0.1929119,0.9635,-0.029882,-0.1217532,1.200388,-0.02641837,-0.4235511,1.183959,-0.1940284,0.05155002,1.179888,-0.1057151,-0.4119318,1.150974,-0.2885509,-0.1378589,1.117998,0.2899849,-0.117905,1.125151,NA,NA,Unknown,Unknown,
0.4604492,0.6992188,0.6342773,-0.2177734,0.4013672,0.6425781,-7,-5,-7,-5,2,-2,-15,-13,-1,6,7,3,-3,-1,-11,-3,-33.125,-33.125,-33.125,1.75,1.75,1.75,6.499796,4.644145,5.030815,6.765026,5.153158,9.342207,-0.2021456,-0.1909715,0.9250635,0.1594058,-0.1988494,0.9339979,-0.01988407,0.3077466,1.179973,-0.1467296,-0.1861766,0.95025,0.1298967,-0.2343099,0.94425,-0.03006127,-0.1215813,1.200084,-0.02671603,-0.4233626,1.183442,-0.1943778,0.05178724,1.179342,-0.106097,-0.4117108,1.150485,-0.3167433,-0.1260639,1.160666,0.280779,-0.1274018,1.150149,NA,NA,Unknown,Unknown,
0.1796875,0.5786133,0.5180664,0.0234375,0.8579102,0.02636719,5,3,7,5,-1,-5,-8,-8,-3,-3,-8,-6,-2,0,4,-6,1.375,1.375,1.375,30.25,30.25,30.25,6.546531,4.29564,4.821487,6.821316,5.606008,9.509913,-0.2178534,-0.2708971,0.9306637,0.1721185,-0.2703027,0.9399689,-0.0197995,0.3077219,1.179663,-0.1695292,-0.2879964,0.967,0.131549,-0.2706184,0.9872,-0.03022009,-0.1214998,1.199642,-0.02670333,-0.4233795,1.182667,-0.1948616,0.0517561,1.179156,-0.1061456,-0.4118378,1.149922,-0.3061248,-0.1331515,1.170846,0.2719324,-0.1392313,1.196132,NA,NA,Unknown,Unknown,
0.7666016,0.6660156,0.5908203,-0.7114258,0.8769531,0.2451172,1,2,6,4,0,-7,-21,-21,9,6,8,2,-1,3,20,23,1.8125,1.8125,1.8125,65.0625,65.0625,65.0625,6.615943,3.94476,4.686878,6.941054,6.165595,9.513714,-0.2372661,-0.3596014,0.9659172,0.1871757,-0.3576162,0.9888945,-0.0198207,0.3077582,1.179503,-0.1973207,-0.3795454,0.9798334,0.1570498,-0.3973335,1.034333,-0.0306821,-0.1216422,1.199344,-0.0277314,-0.4239972,1.182259,-0.1951383,0.05143659,1.179149,-0.1072478,-0.4124586,1.149783,-0.2527722,-0.1657963,1.168394,0.2170713,-0.1547235,1.195587,NA,NA,Unknown,Unknown,
0.5732422,0.6484375,0.453125,-1.097168,0.8701172,0.06347656,0,-8,-3,-2,1,0,-12,-1,-3,3,-4,-4,-3,-10,4,0,24.625,24.625,24.625,67.4375,67.4375,67.4375,6.655074,3.837079,4.646472,7.150005,6.583399,9.62457,-0.2426671,-0.427226,1.006325,0.1984099,-0.4246944,1.029474,-0.01984091,0.3077272,1.179197,-0.2181409,-0.429362,0.9702649,0.1692689,-0.456035,1.034167,-0.03153555,-0.1223727,1.199262,-0.02977476,-0.4258898,1.182922,-0.1946804,0.05026767,1.18142,-0.1089668,-0.4139602,1.150631,-0.2437061,-0.185005,1.166768,0.205455,-0.1766573,1.194676,NA,NA,Unknown,Closed,
1.015137,0.5058594,0.1640625,-1.275879,0.1616211,-0.1630859,1,2,0,-1,-8,1,9,7,-1,0,0,-2,-1,3,4,1,29,29,29,144.6875,144.6875,144.6875,7.257016,3.179298,4.102741,7.714309,6.975166,0.03984521,-0.2462257,-0.4691559,1.057845,0.2025061,-0.4646528,1.077891,-0.01983366,0.3077502,1.179019,-0.2155199,-0.4710032,1.037621,0.1817891,-0.4485245,1.107,-0.03173843,-0.1229589,1.199258,-0.02994048,-0.4272523,1.183299,-0.1944581,0.04906273,1.182344,-0.1089396,-0.4151743,1.151071,-0.238026,-0.1956768,1.162968,0.1977527,-0.1869997,1.194196,NA,NA,Unknown,NotTracked,
1.291504,0.3974609,-0.06835938,-1.022461,0.6669922,-0.4418945,6,-7,-9,-5,-4,-5,-1,-11,1,-1,-4,-4,-2,-3,-4,-1,95.5625,95.5625,95.5625,119.875,119.875,119.875,7.932575,2.996639,3.517964,8.073657,7.049047,0.1362359,-0.2469723,-0.4717395,1.097322,0.1990747,-0.4807534,1.116595,-0.01980988,0.3076615,1.178694,-0.218508,-0.4958159,1.074222,0.1583238,-0.4693074,1.088,-0.03181168,-0.1234154,1.199243,-0.02987986,-0.4281428,1.183737,-0.1947348,0.04784245,1.182176,-0.1086762,-0.4159101,1.151256,-0.2327559,-0.2019938,1.162634,0.1886528,-0.1955135,1.194077,NA,NA,NotTracked,NotTracked,
1.030273,0.2807617,-0.1499023,-0.847168,0.3818359,-0.1303711,-3,-3,-2,-1,-1,-1,4,14,-1,-3,-4,-3,-2,-4,5,1,61.1875,61.1875,61.1875,117.125,117.125,117.125,8.306894,2.912143,3.241114,8.100456,7.082849,9.972416,-0.2411122,-0.4713694,1.117669,0.1790461,-0.4774688,1.136123,-0.01973353,0.3076597,1.178169,-0.2106387,-0.4370764,1.1088,0.1379468,-0.4509904,1.1113,-0.03173874,-0.1236712,1.199264,-0.02930163,-0.428911,1.184556,-0.1956897,0.04649437,1.179416,-0.1079381,-0.4166631,1.151863,-0.2305014,-0.2019016,1.164993,0.183818,-0.1983469,1.197154,NA,NA,NotTracked,NotTracked,
0.8251953,0.5849609,-0.1040039,-0.9350586,0.2885742,-0.1962891,1,-1,2,0,1,-6,-9,8,0,-2,1,1,-1,-2,-9,5,75.9375,75.9375,75.9375,-42.4375,-42.4375,-42.4375,8.23419,2.862673,3.464646,8.164869,7.074062,0.02839805,-0.2262946,-0.4625409,1.125633,0.1685993,-0.4745488,1.142837,-0.01952243,0.3075585,1.177544,-0.1869909,-0.4694126,1.098375,0.1311472,-0.4643362,1.1022,-0.0315504,-0.1237782,1.199332,-0.02847955,-0.4291085,1.185391,-0.1960518,0.04635705,1.178516,-0.1069741,-0.4170358,1.152632,-0.2294965,-0.2010226,1.169806,0.1807371,-0.1981492,1.201473,NA,NA,NotTracked,NotTracked,
0.8242188,0.3886719,-0.1782227,-0.9643555,0.2016602,-0.1083984,0,-1,1,0,-5,-6,8,10,2,3,0,-3,-2,-1,-7,-3,3.375,3.375,3.375,-3.5625,-3.5625,-3.5625,8.157565,2.880447,3.56877,8.143398,7.07205,0.03299348,-0.237148,-0.4680229,1.121922,0.1701879,-0.4765956,1.140326,-0.01906505,0.3073536,1.176383,-0.204137,-0.4366737,1.109154,0.1317802,-0.4513044,1.102308,-0.03144779,-0.1238818,1.199357,-0.02823954,-0.4292358,1.185859,-0.1947279,0.04672474,1.181223,-0.1067763,-0.4171181,1.152802,-0.2289412,-0.2011006,1.171283,0.1792041,-0.198433,1.203886,NA,NA,NotTracked,NotTracked,
1.000488,0.1357422,0.05175781,-0.956543,0.1455078,-0.105957,-2,-2,0,2,9,2,-16,-6,-4,-2,-1,-2,-3,-3,-2,-5,46.875,46.875,46.875,31.375,31.375,31.375,8.084959,2.883295,3.652122,8.144323,7.06533,0.001730724,-0.2352973,-0.4657708,1.11698,0.1699265,-0.4740775,1.139604,-0.018795,0.3072384,1.175984,-0.2037475,-0.4372684,1.11,0.1320468,-0.4516181,1.104208,-0.03132337,-0.1239583,1.199398,-0.02776462,-0.4292637,1.186241,-0.1940785,0.04684667,1.182575,-0.1062933,-0.4171909,1.15305,-0.2285335,-0.2010182,1.171955,0.1793447,-0.1980261,1.204766,NA,NA,NotTracked,NotTracked,
0.8764648,0.2695313,-0.001464844,-0.949707,0.2568359,-0.1899414,1,2,-1,6,6,-5,-5,-4,-3,-1,-1,-1,0,2,13,1,55.4375,55.4375,55.4375,24.5,24.5,24.5,8.010121,2.875073,3.835054,8.162034,7.053874,9.961747,-0.2325384,-0.4661857,1.113098,0.1688399,-0.4716245,1.139928,-0.0185735,0.3071748,1.175837,-0.2039063,-0.4324857,1.114333,0.1338064,-0.4547494,1.104827,-0.03109959,-0.1240819,1.199545,-0.02727347,-0.4293551,1.186624,-0.1943822,0.0467035,1.181863,-0.1058116,-0.4173221,1.153235,-0.2283216,-0.2007479,1.172153,0.1792358,-0.1978537,1.205115,NA,NA,NotTracked,NotTracked,
0.9838867,0.2333984,-0.140625,-0.9750977,0.1411133,-0.1166992,-1,-2,-2,-2,1,0,-10,-4,-2,2,-1,-1,-4,-5,1,-3,-6.1875,-6.1875,-6.1875,-32.9375,-32.9375,-32.9375,8.106528,2.882096,3.761828,8.051127,7.043762,9.891642,-0.2316742,-0.4650621,1.112123,0.1676151,-0.4733887,1.139426,-0.01845944,0.3071284,1.175817,-0.2004619,-0.4354838,1.107315,0.1322735,-0.4386289,1.1025,-0.03093991,-0.1241585,1.19967,-0.02690313,-0.4292966,1.186964,-0.1936978,0.04690579,1.183274,-0.105513,-0.4172892,1.153373,-0.2280418,-0.2005438,1.172284,0.1789968,-0.1976684,1.205371,NA,NA,NotTracked,NotTracked,
0.9467773,0.2387695,-0.1000977,-0.9536133,0.2592773,-0.09912109,-1,-2,-1,-3,-8,3,16,3,-2,-1,0,2,2,-3,-8,-4,-17.0625,-17.0625,-17.0625,-6.875,-6.875,-6.875,8.095402,2.883597,3.751363,8.028636,7.043701,9.886596,-0.2327065,-0.4645042,1.110991,0.1687793,-0.4732405,1.139642,-0.01837135,0.30713,1.175825,-0.2063812,-0.4687009,1.083481,0.1328133,-0.4515688,1.103577,-0.03062264,-0.1243186,1.199945,-0.02626381,-0.4294077,1.187582,-0.1947716,0.04652843,1.180515,-0.1048076,-0.4174954,1.153892,-0.2279306,-0.2005148,1.172392,0.1788255,-0.1973805,1.205681,NA,NA,NotTracked,NotTracked,
0.9492188,0.2138672,0.0004882813,-0.9628906,0.2558594,-0.1069336,0,-1,-1,-1,-1,-2,-4,-6,-2,-2,-2,0,-3,-3,-1,-3,-0.6875,-0.6875,-0.6875,-8.8125,-8.8125,-8.8125,8.046627,2.881345,3.77294,8.015646,7.040027,9.893516,-0.2333302,-0.4654015,1.11328,0.1694827,-0.4739578,1.140505,-0.01823188,0.3070729,1.175714,-0.2029725,-0.4348054,1.109909,0.1312684,-0.4632225,1.104083,-0.03057716,-0.1243979,1.200161,-0.02625236,-0.4294865,1.187852,-0.1952105,0.04633591,1.179686,-0.1047455,-0.4176076,1.15428,-0.2278378,-0.2003886,1.172496,0.178935,-0.1972881,1.205961,NA,NA,NotTracked,NotTracked,
0.9477539,0.2333984,-0.06542969,-0.9555664,0.2563477,-0.1088867,-2,-1,-2,-1,-1,1,1,-1,-2,0,-2,-2,-3,-2,-1,-2,14.9375,14.9375,14.9375,-3.3125,-3.3125,-3.3125,8.038861,2.880538,3.798459,8.015367,7.03926,9.902658,-0.2231213,-0.4605902,1.115368,0.1693015,-0.4741908,1.140607,-0.01817795,0.3070625,1.175787,-0.1776748,-0.438031,1.087231,0.1327705,-0.4525423,1.104111,-0.03038304,-0.1244975,1.200458,-0.02612612,-0.4294949,1.188193,-0.1948196,0.0463745,1.181072,-0.104595,-0.4176283,1.154677,-0.2276176,-0.2000885,1.173191,0.1788917,-0.1970976,1.206192,NA,NA,NotTracked,NotTracked,
0.9467773,0.2436523,-0.09277344,-0.9584961,0.262207,-0.1030273,-1,1,0,1,-3,1,-7,0,-1,-4,0,-1,0,1,2,0,0.875,0.875,0.875,5.375,5.375,5.375,8.055058,2.881622,3.795482,8.007603,7.040199,9.890198,-0.2226458,-0.4550477,1.115763,0.1694805,-0.4732678,1.141003,-0.01816514,0.3070803,1.175875,-0.1797274,-0.4444667,1.087255,0.1317655,-0.4526054,1.103522,-0.03025945,-0.1246045,1.200732,-0.02604438,-0.4295654,1.188566,-0.1944971,0.04650462,1.182212,-0.1044772,-0.417668,1.15507,-0.2275426,-0.1998943,1.173483,0.1788162,-0.1970144,1.206318,NA,NA,NotTracked,NotTracked,
