ALX,ALY,ALZ,ARX,ARY,ARZ,EMG0L,EMG1L,EMG2L,EMG3L,EMG4L,EMG5L,EMG6L,EMG7L,EMG0R,EMG1R,EMG2R,EMG3R,EMG4R,EMG5R,EMG6R,EMG7R,GLX,GLY,GLZ,GRX,GRY,GRZ,ORL,OPL,OYL,ORR,OPR,OYR,LHNX,LHNY,LHNZ,RHNX,RHNY,RHNZ,HX,HY,HZ,LTX,LTY,LTZ,RTX,RTY,RTZ,SpineMidX,SpineMidY,SpineMidZ,SpineBaseX,SpineBaseY,SpineBaseZ,ShoulderLeftX,ShoulderLeftY,ShoulderLeftZ,ShoulderRightX,ShoulderRightY,ShoulderRightZ,ElbowLeftX,ElbowLeftY,ElbowLeftZ,ElbowRightX,ElbowRightY,ElbowRightZ,Myo_Pose_left,Myo_Pose_Right,Kinect_pose_left,Kinect_pose_right
0.9384766,-0.3276367,0.07226563,0.9116211,0.347168,0.1025391,-1,-2,-1,0,-1,-2,-2,-2,-1,0,0,0,-1,0,-1,-1,10.0625,10.0625,10.0625,6.0625,6.0625,6.0625,2.945863,3.089219,5.871994,7.075583,3.055411,5.291812,-0.1766693,-0.4160275,1.239106,0.2584879,-0.4196078,1.255536,0.0497163,0.4397644,1.269882,-0.2234369,-0.4098364,1.2249,0.2947862,-0.4050407,1.229193,0.03263979,-0.01062461,1.321984,0.03075396,-0.3274568,1.324415,-0.1427024,0.1733045,1.307313,-0.03619053,-0.3159618,1.289065,-0.1916891,-0.09259126,1.336774,0.2630382,-0.1086247,1.362597,NA,NA,NotTracked,NotTracked,
0.9248047,-0.3398438,0.09277344,0.9287109,0.3305664,0.07617188,-1,-2,-1,-1,1,0,0,-1,1,-1,0,1,-2,1,-2,0,7.375,7.375,7.375,-7.6875,-7.6875,-7.6875,2.941672,3.09164,5.886414,7.070758,3.053765,5.291756,-0.1774533,-0.4166298,1.238982,0.2586871,-0.419043,1.25582,0.04971645,0.4398164,1.269584,-0.2185439,-0.4140809,1.218858,0.2963852,-0.4071412,1.227928,0.03266725,-0.01062031,1.321996,0.03086052,-0.3273949,1.324807,-0.1408026,0.1735566,1.309048,-0.03607226,-0.3158779,1.289581,-0.1915811,-0.0925694,1.336901,0.263058,-0.1085676,1.362579,NA,NA,NotTracked,NotTracked,
0.921875,-0.3696289,0.1235352,0.9165039,0.2915039,0.078125,-1,-1,-2,-1,-1,-2,-2,-1,-1,-1,0,-2,0,-1,-1,0,3.5625,3.5625,3.5625,1.875,1.875,1.875,2.943515,3.09772,5.893421,7.061558,3.049162,5.299164,-0.1771402,-0.4168309,1.239241,0.2584794,-0.4190451,1.256705,0.04973331,0.4399082,1.269381,-0.2174515,-0.4154826,1.215875,0.2957509,-0.4056037,1.232091,0.03274283,-0.01064032,1.322046,0.03091956,-0.3273519,1.325375,-0.1408127,0.1735879,1.309038,-0.03599969,-0.3158232,1.290057,-0.191561,-0.0924891,1.33701,0.263099,-0.108602,1.362638,NA,NA,NotTracked,NotTracked,
0.9208984,-0.3154297,0.09326172,0.8955078,0.3110352,0.07714844,-2,-1,0,0,-3,1,0,1,-2,0,-1,0,-2,0,-1,-7,-5.125,-5.125,-5.125,9.75,9.75,9.75,2.933538,3.091872,5.901511,7.06158,3.047994,5.310435,-0.1777839,-0.416651,1.239354,0.2576911,-0.4188093,1.256195,0.04973353,0.4399565,1.269006,-0.2222043,-0.4132601,1.223201,0.2955988,-0.4082184,1.228372,0.03277742,-0.01066342,1.322098,0.03095292,-0.3273306,1.325761,-0.1408344,0.1735835,1.30903,-0.0359551,-0.3158077,1.290556,-0.191472,-0.09243116,1.337057,0.2631354,-0.1086096,1.362584,NA,NA,NotTracked,NotTracked,
0.9414063,-0.3334961,0.1166992,0.9482422,0.3378906,0.1171875,-2,-1,0,-1,-2,-1,-1,-2,-2,-1,-1,-1,-2,-3,-1,5,-4.625,-4.625,-4.625,2.1875,2.1875,2.1875,2.92383,3.090489,5.90499,7.060221,3.049979,5.315828,-0.1795227,-0.41747,1.239552,0.2577012,-0.4191915,1.255998,0.04978937,0.4398918,1.268514,-0.2269463,-0.4172779,1.2333,0.2967514,-0.4085436,1.229918,0.03287523,-0.01070257,1.322233,0.03116917,-0.3273122,1.326489,-0.1408369,0.1735799,1.309027,-0.03572763,-0.3158242,1.291188,-0.1913505,-0.09207366,1.337464,0.2631994,-0.1085392,1.362563,NA,NA,NotTracked,NotTracked,
0.9711914,-0.3579102,0.1235352,0.9072266,0.3383789,0.06298828,0,-1,-1,0,-2,-1,-1,-2,7,-3,-1,0,-3,1,-1,8,0.3125,0.3125,0.3125,2.125,2.125,2.125,2.922309,3.091163,5.9072,7.061981,3.047677,5.317412,-0.1786255,-0.4185874,1.239496,0.2581773,-0.4188779,1.256233,0.04987855,0.4398752,1.268193,-0.2205618,-0.4143373,1.223305,0.2968484,-0.4082524,1.230906,0.03292924,-0.01071929,1.322318,0.03126268,-0.3273015,1.326913,-0.1408725,0.1735596,1.309016,-0.03560477,-0.3158047,1.291728,-0.1911998,-0.09193088,1.33765,0.263261,-0.1085813,1.362499,NA,NA,NotTracked,NotTracked,
0.9428711,-0.3710938,0.09375,0.8881836,0.324707,0.05908203,-1,-1,-1,-1,-1,-2,0,0,0,1,0,1,0,1,-1,-2,4.1875,4.1875,4.1875,4.25,4.25,4.25,2.922876,3.090558,5.911268,7.060833,3.046708,5.320975,-0.1804071,-0.4179285,1.238164,0.2577581,-0.4187468,1.255501,0.05003662,0.4398245,1.267826,-0.2214441,-0.4234906,1.216375,0.2972285,-0.4082235,1.229464,0.03298128,-0.0107439,1.322397,0.03132822,-0.3272828,1.32726,-0.1408744,0.1735651,1.30898,-0.03549896,-0.3157901,1.292163,-0.1911452,-0.09184781,1.337714,0.263338,-0.1085199,1.362433,NA,NA,NotTracked,NotTracked,
0.8999023,-0.3271484,0.08105469,0.8691406,0.3007813,0.08349609,-1,0,0,-1,-1,-2,0,-1,-13,-2,-2,-2,-1,0,1,7,0.125,0.125,0.125,15.5625,15.5625,15.5625,2.924822,3.087996,5.91064,7.060224,3.044867,5.337151,-0.1794377,-0.4175276,1.23893,0.2575007,-0.418926,1.256287,0.05049418,0.4396343,1.266979,-0.2194305,-0.4154885,1.21695,0.3044023,-0.4052456,1.243,0.03318001,-0.01082142,1.322698,0.03172457,-0.3272304,1.328409,-0.1408798,0.1737496,1.308953,-0.03506219,-0.3157338,1.293325,-0.190885,-0.09141189,1.338062,0.2636668,-0.1084255,1.362324,NA,NA,NotTracked,NotTracked,
0.9086914,-0.3188477,0.1035156,0.9453125,0.3510742,0.1308594,-1,-2,-3,-2,-2,-1,-3,-1,-1,-1,-1,-1,-3,-1,-3,-11,-12.4375,-12.4375,-12.4375,17.5625,17.5625,17.5625,2.924891,3.087944,5.89988,7.069238,3.048762,5.34828,-0.1790659,-0.4188132,1.240268,0.25746,-0.4192388,1.255403,0.05073587,0.4395131,1.266681,-0.2249058,-0.4118158,1.241454,0.2965961,-0.4097328,1.231276,0.03329896,-0.01083332,1.322973,0.03185939,-0.3272281,1.328921,-0.140842,0.1738148,1.30898,-0.03490255,-0.3157361,1.293914,-0.1908564,-0.09143618,1.33809,0.2638258,-0.1084548,1.362182,NA,NA,NotTracked,NotTracked,
0.9194336,-0.3466797,0.1206055,0.9174805,0.3569336,0.1005859,-1,-1,-2,-2,-1,-1,-2,-1,-1,-3,0,0,-1,-1,0,1,-13.5625,-13.5625,-13.5625,6.4375,6.4375,6.4375,2.923215,3.090257,5.894201,7.071568,3.052897,5.354153,-0.1783561,-0.4184362,1.239046,0.2580259,-0.4197673,1.253844,0.05095209,0.4394218,1.266429,-0.2171573,-0.424819,1.218667,0.2998232,-0.4107428,1.232251,0.03352762,-0.01087359,1.323195,0.03205159,-0.3272206,1.32936,-0.1407969,0.173894,1.309008,-0.03467488,-0.3157195,1.294406,-0.1907962,-0.09135263,1.338132,0.2642849,-0.1086138,1.361858,NA,NA,NotTracked,NotTracked,
0.9379883,-0.3930664,0.1196289,0.9106445,0.3603516,0.1098633,1,-1,0,0,-1,-1,1,0,2,0,-3,-2,-2,0,0,3,7.3125,7.3125,7.3125,12.875,12.875,12.875,2.92585,3.098027,5.893385,7.076715,3.055264,5.361114,-0.1790284,-0.4189867,1.237385,0.2579447,-0.4200352,1.252259,0.05116256,0.4394138,1.266212,-0.2203109,-0.4101552,1.224253,0.3001368,-0.4091749,1.232391,0.03359384,-0.01088501,1.323282,0.03214191,-0.3272554,1.329516,-0.140791,0.1738999,1.309018,-0.03454958,-0.315754,1.294642,-0.1907639,-0.09132272,1.338129,0.264535,-0.1087627,1.361361,NA,NA,NotTracked,NotTracked,
0.949707,-0.3598633,0.1069336,0.9125977,0.328125,0.06494141,-2,0,-4,0,0,-2,-2,-2,-2,-2,1,0,-2,0,1,7,11.5625,11.5625,11.5625,14.6875,14.6875,14.6875,2.935238,3.101894,5.89797,7.08192,3.059486,5.372752,-0.1790802,-0.4180292,1.236439,0.2583103,-0.4191705,1.250232,0.05124481,0.4394068,1.266225,-0.2151409,-0.4133016,1.209781,0.3006892,-0.4156056,1.222273,0.03383951,-0.01096282,1.323434,0.03232834,-0.3272963,1.329735,-0.1407681,0.1739428,1.309007,-0.03436938,-0.3157834,1.294821,-0.1906696,-0.09132063,1.338124,0.2650863,-0.1087712,1.360485,NA,NA,NotTracked,NotTracked,
0.9213867,-0.3378906,0.0703125,0.8945313,0.3051758,0.06835938,-1,1,-1,-2,-2,0,-2,-2,6,0,-3,0,0,-1,-2,-6,2.75,2.75,2.75,17.8125,17.8125,17.8125,2.940699,3.104647,5.897394,7.078619,3.064189,5.387086,-0.1790102,-0.4180548,1.235288,0.2584997,-0.4194934,1.24858,0.05129236,0.4394316,1.266251,-0.2194137,-0.4095412,1.218449,0.3003043,-0.4106314,1.229048,0.0341317,-0.0109598,1.323654,0.03244313,-0.3273027,1.329867,-0.1407442,0.1740423,1.309088,-0.03423561,-0.3157797,1.294972,-0.1905071,-0.09128588,1.338118,0.2658465,-0.1092148,1.358956,NA,NA,NotTracked,NotTracked,
0.8964844,-0.3261719,0.08544922,0.9663086,0.3686523,0.1098633,-1,-1,-2,0,0,-1,-1,-1,0,16,-2,-1,0,-3,2,12,-6.25,-6.25,-6.25,21.0625,21.0625,21.0625,2.946788,3.110916,5.885915,7.068602,3.100775,5.438373,-0.1784779,-0.4177366,1.233514,0.2579939,-0.4200663,1.244666,0.05136962,0.4394206,1.266333,-0.2205491,-0.4149069,1.222504,0.2932393,-0.4108535,1.214296,0.03436184,-0.01099087,1.323836,0.03254313,-0.3273289,1.329986,-0.1407802,0.1740333,1.309219,-0.03412844,-0.3157992,1.295102,-0.1904785,-0.09123935,1.338149,0.2664557,-0.109317,1.357375,NA,NA,NotTracked,NotTracked,
0.9130859,-0.3564453,0.1279297,1.062012,0.4443359,0.1279297,-2,0,-2,-1,0,-2,0,-1,8,7,5,1,0,-2,-1,-5,-2.3125,-2.3125,-2.3125,4.625,4.625,4.625,2.953974,3.123098,5.873099,7.057043,3.123272,5.453751,-0.1787621,-0.4182979,1.230758,0.2586991,-0.4180816,1.239468,0.05145121,0.4394569,1.266447,-0.2023159,-0.417944,1.190689,0.3131791,-0.4152474,1.226875,0.03450767,-0.01104177,1.323927,0.03257413,-0.3273396,1.330005,-0.1408151,0.1741197,1.309604,-0.03408481,-0.3158052,1.295145,-0.1903538,-0.09127338,1.338192,0.2673152,-0.1097279,1.35522,NA,NA,NotTracked,NotTracked,
0.9814453,-0.4135742,0.1181641,0.9511719,0.5180664,0.1523438,0,-2,0,-1,-1,-3,-1,-2,3,5,-2,1,1,-2,0,-3,15.625,15.625,15.625,-0.1875,-0.1875,-0.1875,2.964756,3.135628,5.874702,7.009192,3.174169,5.50311,-0.1797717,-0.4168077,1.228921,0.2582126,-0.4168036,1.231803,0.05159247,0.4395806,1.266803,-0.2027505,-0.4182644,1.187881,0.2959609,-0.4012096,1.208667,0.03465438,-0.01100557,1.324196,0.03263694,-0.3273353,1.330079,-0.1406947,0.1744551,1.310169,-0.0340082,-0.3157955,1.295228,-0.1902402,-0.09131851,1.338291,0.2677602,-0.1093317,1.353892,NA,NA,NotTracked,NotTracked,
0.9296875,-0.3994141,0.1142578,0.862793,0.5664063,0.07275391,1,-1,-1,-2,-2,0,-1,0,-33,-23,-61,8,2,0,1,6,7.8125,7.8125,7.8125,-13.5625,-13.5625,-13.5625,2.976472,3.137036,5.874922,6.966418,3.264971,5.541485,-0.1788772,-0.416087,1.227559,0.2609783,-0.4087029,1.203924,0.05184443,0.4400473,1.268214,-0.2216133,-0.4051267,1.215,0.3083897,-0.3998829,1.203222,0.03492043,-0.01099269,1.324434,0.03278705,-0.3273243,1.330028,-0.1408768,0.1746058,1.310928,-0.03384196,-0.3157795,1.29519,-0.1897382,-0.09106021,1.338426,0.2690427,-0.1079302,1.349002,NA,NA,NotTracked,NotTracked,
0.9267578,-0.3974609,0.09423828,0.9272461,0.480957,0.2202148,-1,-1,-2,-1,-2,-2,-1,0,29,-3,-28,-12,-2,-3,-4,-3,4,4,4,20.25,20.25,20.25,2.977516,3.136708,5.875944,6.910686,3.388957,5.614691,-0.1786713,-0.4160761,1.227892,0.2601124,-0.4011886,1.183903,0.05190537,0.4402115,1.268678,-0.2015465,-0.4150037,1.189073,0.3092012,-0.3950771,1.190889,0.03505402,-0.01092963,1.32471,0.03285271,-0.3273226,1.33006,-0.1408982,0.1746532,1.311191,-0.033766,-0.3157708,1.295226,-0.1894239,-0.09061725,1.338386,0.270203,-0.1066519,1.346034,NA,NA,NotTracked,Unknown,
0.8613281,-0.2871094,0.05761719,0.8276367,0.6303711,0.3359375,-2,-2,-1,-1,-1,0,-1,-3,-17,5,11,7,2,2,1,-3,-6.625,-6.625,-6.625,63.3125,63.3125,63.3125,2.976044,3.130269,5.873554,6.908938,3.557226,5.687545,-0.1794483,-0.4169005,1.226414,0.2572166,-0.3886394,1.155073,0.05194677,0.4403241,1.269229,-0.1993819,-0.4125215,1.185861,0.304863,-0.4025954,1.15725,0.03517187,-0.01095239,1.325019,0.03287565,-0.3273265,1.330086,-0.1410015,0.1746969,1.311434,-0.03374297,-0.3157685,1.295239,-0.1891257,-0.09063438,1.338513,0.2713557,-0.1056776,1.343544,NA,NA,NotTracked,Unknown,
0.8720703,-0.362793,0.1176758,0.78125,0.753418,0.3637695,0,0,-1,-3,-2,-2,-1,1,-30,-3,18,-3,-2,-2,-5,-18,-18.25,-18.25,-18.25,59.125,59.125,59.125,2.960866,3.135037,5.867906,6.918659,3.651067,5.717162,-0.1816873,-0.4173872,1.224042,0.2560649,-0.3677447,1.12226,0.05197573,0.4405042,1.269995,-0.1997418,-0.4253625,1.183314,0.2668971,-0.3476053,1.081743,0.03526527,-0.0109137,1.325381,0.03289302,-0.3273024,1.33013,-0.1410959,0.1746876,1.311951,-0.03372451,-0.3157458,1.295252,-0.1890943,-0.09056696,1.338532,0.2723053,-0.1034645,1.339727,NA,NA,NotTracked,Unknown,
0.9609375,-0.4262695,0.1689453,0.7827148,0.8261719,0.3027344,-2,-2,-3,0,-1,1,1,-1,25,4,-1,-1,-5,-1,-2,1,1.0625,1.0625,1.0625,33.4375,33.4375,33.4375,2.955011,3.14597,5.870683,6.933299,3.84184,5.761429,-0.1832144,-0.417255,1.22282,0.251434,-0.3361312,1.096518,0.05203133,0.4405933,1.270803,-0.2064154,-0.418745,1.190741,0.2151633,-0.3363065,1.066968,0.03533116,-0.01088218,1.325675,0.03288699,-0.3272732,1.330137,-0.1410698,0.1748714,1.312245,-0.0337283,-0.315729,1.295251,-0.18903,-0.09050712,1.338511,0.2731399,-0.1009913,1.334798,NA,NA,NotTracked,Unknown,
0.9321289,-0.3920898,0.1152344,0.6313477,0.7807617,0.2480469,-2,-1,-1,-3,0,0,-1,0,-25,19,2,-3,-2,-2,-3,-10,13.875,13.875,13.875,26.4375,26.4375,26.4375,2.953906,3.151169,5.886446,6.942883,4.046595,5.797453,-0.1855835,-0.4175946,1.220421,0.2476595,-0.2986486,1.074162,0.05230985,0.4406167,1.272101,-0.199783,-0.4178421,1.179735,0.2050454,-0.3220896,1.077,0.03531465,-0.01087246,1.325925,0.0327884,-0.3272154,1.330109,-0.141001,0.1748924,1.31261,-0.03385728,-0.3156812,1.295141,-0.1888483,-0.09060472,1.338413,0.2730312,-0.09698256,1.329932,NA,NA,NotTracked,Unknown,
0.9389648,-0.3681641,0.07373047,0.6088867,0.7875977,0.2929688,-2,-2,-1,0,-2,-1,0,-2,6,-4,-1,-4,-1,1,0,0,17.125,17.125,17.125,25.4375,25.4375,25.4375,2.953059,3.1529,5.897142,6.954905,4.24444,5.827724,-0.1860226,-0.4165093,1.219107,0.2453891,-0.2659216,1.045776,0.05258715,0.4407842,1.273463,-0.2214513,-0.4065511,1.203952,0.258871,-0.3206013,1.057077,0.03527783,-0.01076176,1.326257,0.032425,-0.3269904,1.330096,-0.1409535,0.17493,1.312914,-0.03424191,-0.3154534,1.295063,-0.1887563,-0.09050282,1.338337,0.2718244,-0.09000042,1.325079,NA,NA,NotTracked,Unknown,
0.9887695,-0.3212891,0.08886719,0.5546875,0.7670898,0.3046875,-1,-3,-2,-3,1,0,-3,-1,38,2,-7,-7,-1,0,4,27,-4.3125,-4.3125,-4.3125,34.0625,34.0625,34.0625,2.950993,3.151556,5.901981,6.966782,4.336155,5.843584,-0.1874591,-0.4143838,1.218278,0.2379224,-0.2283427,1.021481,0.05288716,0.4407658,1.274703,-0.195303,-0.4496342,1.23675,0.1901137,-0.2464079,1.027,0.03494445,-0.01048301,1.326799,0.0317497,-0.3265828,1.329976,-0.1409113,0.175021,1.313184,-0.034895,-0.3150718,1.294928,-0.1887307,-0.09048968,1.338297,0.270642,-0.08252136,1.322327,NA,NA,NotTracked,Unknown,
0.9155273,-0.4228516,0.1166992,0.4379883,0.7788086,0.2324219,1,-3,0,-2,-1,-1,-1,-1,-30,2,5,4,0,1,-2,-8,-18.3125,-18.3125,-18.3125,29.625,29.625,29.625,2.94534,3.156274,5.88533,6.993402,4.507515,5.871404,-0.1873234,-0.4128664,1.217135,0.2331374,-0.193308,1.007215,0.0531933,0.4408613,1.275603,-0.1670855,-0.4114587,1.248693,0.1911546,-0.2185982,1.026188,0.03480977,-0.01035009,1.32715,0.03116044,-0.3263388,1.329845,-0.1408647,0.1751433,1.313567,-0.03543766,-0.3148633,1.294786,-0.1887294,-0.09042589,1.338247,0.2694589,-0.07548381,1.319171,NA,NA,NotTracked,Unknown,
0.8999023,-0.3574219,0.105957,0.3579102,0.7133789,0.2807617,-2,-3,0,-1,0,1,0,-1,-13,-8,-2,-1,0,2,2,-10,7,7,7,15.8125,15.8125,15.8125,2.957117,3.164951,5.873347,7.004029,4.650602,5.897835,-0.1868494,-0.4117297,1.216718,0.2270308,-0.1538869,0.9860848,0.05343663,0.4409234,1.27664,-0.185049,-0.4496344,1.246,0.1963097,-0.1453874,0.9744446,0.03464028,-0.01012943,1.327681,0.03068405,-0.3259851,1.329692,-0.1408808,0.1752941,1.314061,-0.03580619,-0.3145937,1.294684,-0.1887292,-0.09042605,1.338246,0.2686096,-0.07084248,1.316259,NA,NA,NotTracked,Unknown,
0.8793945,-0.3232422,0.1044922,0.215332,0.7089844,0.2602539,-3,0,-2,-1,1,-2,-3,-1,23,2,-3,-1,-1,-2,0,-2,3.875,3.875,3.875,17.4375,17.4375,17.4375,2.964861,3.167861,5.867385,7.015083,4.749197,5.919091,-0.1881401,-0.4106063,1.214855,0.2245111,-0.1038495,0.9726584,0.05358218,0.4414662,1.279832,-0.2233026,-0.4135351,1.201177,0.1793021,-0.107834,0.991,0.03431994,-0.009710131,1.328747,0.02974517,-0.3254836,1.329588,-0.1408823,0.1757915,1.316029,-0.03667864,-0.3142138,1.294722,-0.188879,-0.09015245,1.338307,0.2673006,-0.05628131,1.308368,NA,NA,NotTracked,Unknown,
0.8359375,-0.3769531,0.1210938,0.1914063,0.7006836,0.2553711,-1,0,-1,0,-2,0,0,-1,2,9,2,0,1,2,0,2,-0.8125,-0.8125,-0.8125,0.0625,0.0625,0.0625,2.969345,3.179171,5.86232,7.014996,4.80956,5.929751,-0.1886594,-0.4103472,1.213685,0.2264325,-0.09202839,0.9760644,0.05348586,0.4415971,1.280908,-0.2142143,-0.4216895,1.207706,0.1762749,-0.09473883,0.9814286,0.03420401,-0.009551325,1.329372,0.02958866,-0.325435,1.329547,-0.1410692,0.1757799,1.317105,-0.03685252,-0.3141963,1.294772,-0.1888986,-0.09015208,1.338365,0.2689038,-0.05033736,1.305529,NA,NA,NotTracked,Unknown,
0.8818359,-0.3959961,0.1459961,0.1381836,0.7680664,0.3051758,-1,-3,-2,0,-2,0,-2,-1,5,-10,-4,-7,-3,-2,3,15,8.3125,8.3125,8.3125,-5.6875,-5.6875,-5.6875,2.971806,3.186215,5.864967,7.005366,4.835375,5.933573,-0.1897576,-0.409946,1.213237,0.2262328,-0.08401283,0.9802026,0.05330466,0.441736,1.281834,-0.1675317,-0.4141571,1.2438,0.1728091,-0.09063519,0.9646842,0.03406569,-0.009503681,1.329829,0.02928742,-0.3254066,1.329467,-0.141057,0.1757258,1.318439,-0.03712894,-0.3142042,1.294801,-0.1890013,-0.09026151,1.33865,0.2689104,-0.04625405,1.305238,NA,NA,NotTracked,Unknown,
0.8818359,-0.3701172,0.1489258,0.08691406,0.8613281,0.3276367,-2,0,-2,-2,-2,1,0,0,5,-6,-3,2,0,-1,-3,-4,11.875,11.875,11.875,0.75,0.75,0.75,2.976044,3.189875,5.867959,6.997025,4.836156,5.931185,-0.1900603,-0.4110071,1.21355,0.2276343,-0.08312295,0.982923,0.05299246,0.4419134,1.282803,-0.1810946,-0.4172652,1.247875,0.1735438,-0.08508033,0.9713499,0.03390703,-0.009402587,1.330215,0.02908751,-0.3253664,1.32933,-0.1411882,0.1754988,1.319683,-0.03729019,-0.3141856,1.294737,-0.1890418,-0.09023031,1.338765,0.2706515,-0.04524871,1.304793,NA,NA,NotTracked,Unknown,
0.8745117,-0.3623047,0.1240234,0.1157227,0.8735352,0.2539063,-1,-1,-2,-3,0,-4,-2,-2,5,-3,1,2,1,3,7,6,14.3125,14.3125,14.3125,-18.5,-18.5,-18.5,2.979763,3.193699,5.873006,6.986789,4.817594,5.923339,-0.1898011,-0.4113583,1.214685,0.2275525,-0.08215506,0.9786301,0.05248575,0.4422396,1.284112,-0.1572039,-0.3994715,1.200711,0.1728307,-0.08663084,0.9652106,0.03366549,-0.009322871,1.330825,0.02896724,-0.3253682,1.329293,-0.1413953,0.1752665,1.321164,-0.037424,-0.3141988,1.294764,-0.1890186,-0.09046043,1.339159,0.2714001,-0.0449784,1.304141,NA,NA,NotTracked,Unknown,
0.8745117,-0.3623047,0.1240234,0.159668,0.9042969,0.3208008,-1,-1,3,-2,-2,-2,-1,-1,31,5,2,-2,-1,2,2,19,14.3125,14.3125,14.3125,-14.1875,-14.1875,-14.1875,2.979763,3.193699,5.873006,6.978752,4.803892,5.92047,-0.190235,-0.4115519,1.216305,0.2273045,-0.08653824,0.9791107,0.05198169,0.4426082,1.285333,-0.156235,-0.4028191,1.22865,0.173586,-0.09288337,0.9670076,0.03346557,-0.009285661,1.33118,0.02878197,-0.3253963,1.329212,-0.1415016,0.1750139,1.322188,-0.03763133,-0.3142183,1.294727,-0.1889393,-0.09090707,1.339571,0.2811039,-0.04271349,1.297252,NA,NA,NotTracked,Unknown,
0.9111328,-0.3637695,0.1425781,0.2080078,0.9472656,0.3413086,0,-1,-3,0,-2,-1,0,-3,10,2,4,-3,-3,-1,0,10,-0.25,-0.25,-0.25,3.5625,3.5625,3.5625,2.995169,3.187212,5.897121,6.978765,4.777857,5.917266,-0.1894227,-0.4118142,1.216884,0.2276449,-0.09225575,0.9766238,0.05166383,0.4427164,1.286158,-0.1721617,-0.4301146,1.246667,0.1731246,-0.09512496,0.9697973,0.03336653,-0.009301988,1.331436,0.0286294,-0.3254541,1.329047,-0.1417426,0.1747569,1.323218,-0.03776117,-0.3142965,1.294655,-0.1888855,-0.09120253,1.340015,0.278993,-0.04284168,1.299002,NA,NA,NotTracked,Unknown,
0.8930664,-0.4135742,0.1416016,0.1401367,1.01123,0.3242188,-2,-3,-1,-1,-1,-1,-3,0,31,3,-1,1,-2,0,1,10,0.1875,0.1875,0.1875,0.8125,0.8125,0.8125,2.998012,3.185375,5.893013,6.982069,4.769107,5.914621,-0.1891101,-0.4111859,1.21894,0.2274682,-0.09538269,0.979147,0.05131277,0.4429707,1.28717,-0.1518831,-0.3898653,1.24325,0.1736946,-0.09936845,0.972888,0.03332396,-0.009310125,1.331707,0.02857658,-0.3254566,1.328993,-0.1418138,0.1745634,1.324201,-0.03780129,-0.3143115,1.294646,-0.1887401,-0.09120195,1.340706,0.2777252,-0.04308584,1.300525,NA,NA,NotTracked,Unknown,
0.9135742,-0.4018555,0.1435547,0.1147461,0.9946289,0.2963867,-3,-1,0,-2,-1,0,-1,1,-2,-1,-3,-1,0,-1,-1,-5,6.125,6.125,6.125,-3.25,-3.25,-3.25,3.000647,3.183942,5.893872,6.98196,4.766932,5.910516,-0.1884205,-0.4119858,1.219393,0.2266896,-0.09831733,0.9798881,0.05113817,0.4432215,1.287902,-0.1778387,-0.4333626,1.243,0.1743963,-0.1024996,0.9729459,0.03326375,-0.009281012,1.33195,0.02843631,-0.3254472,1.328855,-0.1417738,0.1744369,1.324923,-0.03788735,-0.3143071,1.294616,-0.188516,-0.09140243,1.341294,0.2765572,-0.04352032,1.30241,NA,NA,NotTracked,Unknown,
0.9018555,-0.4013672,0.1254883,0.09228516,0.9550781,0.3017578,-3,-2,-3,-2,0,-2,-1,-1,7,-4,-5,-2,0,2,2,0,5.75,5.75,5.75,-6.0625,-6.0625,-6.0625,3.010338,3.177847,5.89679,6.976915,4.771866,5.907466,-0.1888556,-0.411947,1.221587,0.2264598,-0.09860206,0.9809936,0.05102489,0.443345,1.288548,-0.1537924,-0.4061073,1.204,0.1785188,-0.1018955,0.941875,0.03326116,-0.009265456,1.33212,0.028365,-0.3254508,1.328779,-0.1416748,0.1743658,1.325484,-0.03794464,-0.3143072,1.29457,-0.1882268,-0.09123142,1.341971,0.274914,-0.04411223,1.303664,NA,NA,NotTracked,Unknown,
0.921875,-0.4082031,0.1401367,0.08691406,0.9433594,0.2973633,-2,-1,-3,-2,-3,-1,-1,-1,34,12,2,1,-2,-2,-4,0,0.8125,0.8125,0.8125,-3.4375,-3.4375,-3.4375,3.01148,3.173624,5.898498,6.976276,4.776019,5.904726,-0.1873404,-0.414036,1.22517,0.2277362,-0.09899974,0.98349,0.05122284,0.4434787,1.289555,-0.1809198,-0.4134632,1.186025,0.174767,-0.1050077,0.9729524,0.03322921,-0.009108411,1.332678,0.02819786,-0.3253406,1.328637,-0.1412063,0.1744881,1.326553,-0.03809432,-0.3142212,1.294524,-0.1875893,-0.09083421,1.34353,0.2735642,-0.04422194,1.30579,NA,NA,NotTracked,Unknown,
0.925293,-0.4121094,0.1484375,0.09082031,0.9575195,0.3168945,-1,-2,0,-1,-2,0,0,-1,16,2,0,-2,-4,-2,1,12,-2.625,-2.625,-2.625,4.125,4.125,4.125,3.011578,3.171865,5.897103,6.98138,4.783544,5.899117,-0.1863067,-0.4135143,1.225286,0.2279433,-0.09975258,0.9850374,0.0514542,0.443506,1.29008,-0.1799218,-0.4135545,1.186282,0.1754913,-0.1059328,0.9853498,0.0332504,-0.009089828,1.332801,0.02815077,-0.3253248,1.328555,-0.1412562,0.1743837,1.326988,-0.03814339,-0.3142031,1.294465,-0.1873814,-0.0910041,1.344129,0.2728365,-0.04441023,1.306266,NA,NA,NotTracked,Unknown,
0.8984375,-0.418457,0.1313477,0.109375,0.9423828,0.3183594,-1,1,0,0,-2,-1,-1,-3,-71,-9,-3,-3,-3,-3,-5,-16,-2.5,-2.5,-2.5,-2.5625,-2.5625,-2.5625,3.010068,3.169836,5.894886,6.981812,4.789344,5.8957,-0.1850806,-0.4168175,1.226454,0.2304152,-0.09907397,0.9837912,0.0518493,0.4435483,1.29096,-0.1518967,-0.4098504,1.20627,0.1779527,-0.1027257,0.9791868,0.03328595,-0.009045913,1.332995,0.02812462,-0.3252984,1.32851,-0.1411299,0.1744414,1.327355,-0.0381784,-0.314151,1.294427,-0.1872095,-0.0907701,1.344626,0.2719381,-0.04477612,1.307275,NA,NA,NotTracked,Unknown,
0.8896484,-0.409668,0.1235352,0.1430664,0.9311523,0.3232422,-2,0,-1,-2,0,-1,-1,0,14,-12,-9,-3,0,-2,-2,-13,-0.0625,-0.0625,-0.0625,1.25,1.25,1.25,3.010161,3.1697,5.8944,6.980781,4.793003,5.892836,-0.1854446,-0.4150277,1.226409,0.2309127,-0.09983476,0.9833137,0.05217253,0.4435947,1.291526,-0.183062,-0.4134965,1.18728,0.1765014,-0.1044744,0.973462,0.03333263,-0.009038887,1.33327,0.02809657,-0.3253006,1.328494,-0.1408953,0.17438,1.327702,-0.0382022,-0.314145,1.294421,-0.1869585,-0.0907475,1.344897,0.2715164,-0.04520335,1.30778,NA,NA,NotTracked,Unknown,
0.8959961,-0.4125977,0.1381836,0.1494141,0.9453125,0.3271484,-3,-1,-1,-1,-2,-2,0,-2,-19,-4,-3,-3,-1,-1,0,-1,-5.375,-5.375,-5.375,-2.75,-2.75,-2.75,3.007498,3.172989,5.891846,6.979642,4.799048,5.892155,-0.184975,-0.4147044,1.226648,0.2309714,-0.09966983,0.9820712,0.05293589,0.4436628,1.292416,-0.1512922,-0.4068153,1.208639,0.1772645,-0.1063017,0.9658288,0.03340597,-0.009035877,1.333611,0.02808928,-0.3253067,1.328491,-0.1408094,0.1743239,1.328105,-0.03821508,-0.3141453,1.294415,-0.1868614,-0.09069686,1.345214,0.2703592,-0.04705923,1.30888,NA,NA,NotTracked,Unknown,
0.8989258,-0.4121094,0.1308594,0.1499023,0.9467773,0.3603516,0,-2,-2,0,1,0,0,0,-57,-17,-8,-3,-3,-4,-7,-12,0.25,0.25,0.25,-0.1875,-0.1875,-0.1875,3.005372,3.180519,5.891912,6.977985,4.805511,5.892439,-0.1846928,-0.4148068,1.225325,0.2322967,-0.09891808,0.9846015,0.05357657,0.4436,1.293288,-0.1785675,-0.409368,1.18839,0.1778987,-0.107443,0.9625999,0.03353963,-0.00901864,1.334039,0.02806281,-0.3253095,1.328499,-0.1406565,0.1743636,1.328457,-0.03824373,-0.3141297,1.294409,-0.1865417,-0.09046278,1.345463,0.27012,-0.04712533,1.309181,NA,NA,NotTracked,Unknown,
0.9711914,-0.4150391,0.140625,0.09521484,1.070801,0.3393555,-2,0,0,0,-1,-1,-3,-2,29,13,3,-6,-5,-1,-2,12,1.5625,1.5625,1.5625,5.25,5.25,5.25,3.005132,3.18385,5.893412,6.983483,4.821022,5.891639,-0.18468,-0.4146106,1.224176,0.2336222,-0.09518263,0.9846107,0.05410139,0.4436924,1.294147,-0.1789976,-0.4522544,1.177455,0.1775877,-0.1027292,0.9656945,0.03355877,-0.009021983,1.334428,0.02801575,-0.3253258,1.328498,-0.1405146,0.1744396,1.328759,-0.03829975,-0.3141328,1.294404,-0.1864637,-0.09041957,1.345594,0.2693192,-0.04712451,1.310367,NA,NA,NotTracked,Unknown,
1.047852,-0.453125,0.1552734,0.1269531,0.9912109,0.1865234,0,-3,-1,-1,0,-1,0,0,-17,-10,8,47,7,3,-1,3,-3.375,-3.375,-3.375,13,13,13,3.002933,3.185215,5.894037,7.003714,4.831867,5.895226,-0.1855733,-0.4124611,1.222327,0.2358062,-0.09017044,0.9912713,0.05461218,0.4438628,1.294736,-0.1523257,-0.3866213,1.213556,0.1791844,-0.09061852,0.9588751,0.03365792,-0.008935385,1.334636,0.02799471,-0.325284,1.328463,-0.1403048,0.1748343,1.328892,-0.03833802,-0.3140396,1.294319,-0.1863825,-0.09005719,1.345702,0.2725855,-0.04861144,1.309114,NA,NA,NotTracked,Unknown,
1.033691,-0.4765625,0.168457,0.07861328,1.012207,0.3676758,0,-2,-1,-1,-1,1,-1,-1,-38,2,-1,-8,1,3,5,3,-6.5,-6.5,-6.5,35.3125,35.3125,35.3125,3.000208,3.184181,5.89326,7.035634,4.871402,5.907637,-0.1845022,-0.4114277,1.222198,0.2360823,-0.0770312,0.992035,0.05515131,0.4440341,1.295159,-0.1825351,-0.3984183,1.184667,0.1802908,-0.07424026,0.9578799,0.03379835,-0.008790702,1.33493,0.02798644,-0.3252491,1.328475,-0.14029,0.1749081,1.328946,-0.03834736,-0.3139839,1.294316,-0.1864329,-0.09009976,1.345746,0.2702901,-0.04637153,1.310963,NA,NA,NotTracked,Unknown,
0.8139648,-0.324707,0.04101563,0.08154297,1.045898,0.300293,1,0,-2,-2,0,-3,-2,0,87,-5,13,4,0,3,6,44,-22.875,-22.875,-22.875,27.25,27.25,27.25,2.990773,3.178657,5.877134,7.06858,4.944911,5.918001,-0.1841826,-0.4103153,1.21874,0.2414776,-0.03828265,0.9963953,0.05630949,0.4443165,1.295617,-0.2180154,-0.4034986,1.199429,0.1782015,-0.0368255,0.965,0.03416758,-0.008678551,1.335437,0.02798963,-0.3252269,1.328531,-0.1388243,0.1752716,1.328318,-0.03834144,-0.3139783,1.294323,-0.187271,-0.0896327,1.345692,0.2604519,-0.04781358,1.304657,NA,NA,NotTracked,Unknown,
0.7749023,-0.3051758,0.1166992,0.1342773,0.9536133,0.425293,-2,-1,-2,0,-1,1,-2,0,75,36,13,5,7,14,24,37,-42.75,-42.75,-42.75,3.625,3.625,3.625,2.971722,3.186489,5.850212,7.064085,5.025901,5.935342,-0.1861781,-0.4080876,1.216672,0.2406867,-0.01057543,1.00303,0.0570623,0.4442402,1.295714,-0.2013461,-0.4129474,1.175345,0.1807542,-0.01111704,0.9797369,0.03436531,-0.008645069,1.33579,0.02796623,-0.3252318,1.328602,-0.1386686,0.1753552,1.328312,-0.03834967,-0.313979,1.294359,-0.1874867,-0.08954251,1.345635,0.2664429,-0.1084229,1.251603,NA,NA,NotTracked,Open,
0.9165039,-0.4394531,0.2275391,-0.01367188,0.9858398,0.2919922,-1,-1,-1,5,2,1,-1,1,-6,17,-3,-7,-3,-7,-7,-4,3.5,3.5,3.5,19.1875,19.1875,19.1875,2.945534,3.216841,5.855351,7.082305,5.145769,5.951849,-0.1896983,-0.4083013,1.213846,0.2399001,0.01725005,1.013471,0.0580138,0.4441092,1.295878,-0.2263888,-0.4046293,1.204235,0.1787854,0.01870056,0.9919446,0.03474351,-0.008756976,1.336271,0.02805635,-0.325273,1.328736,-0.1381622,0.1756878,1.328519,-0.03829053,-0.3139902,1.294393,-0.1875614,-0.08935801,1.345587,0.269165,-0.1030879,1.2471,NA,NA,NotTracked,Open,
0.972168,-0.4526367,0.09716797,-0.09765625,0.9726563,0.2739258,-2,0,-2,-4,-1,-2,0,0,23,14,-15,-14,-7,-11,-10,-48,38.1875,38.1875,38.1875,-8.8125,-8.8125,-8.8125,2.945392,3.229111,5.895061,7.081656,5.262399,5.973441,-0.191276,-0.4068814,1.213273,0.2387565,0.04122885,1.025746,0.05922844,0.4440211,1.296035,-0.2126375,-0.4083583,1.175781,0.1773192,0.04100729,1.013522,0.03529545,-0.008878775,1.336636,0.02814161,-0.3253658,1.328778,-0.1368257,0.1758724,1.327981,-0.03822854,-0.3140614,1.294354,-0.1876358,-0.08936497,1.345508,0.2690874,-0.09108508,1.245989,NA,NA,NotTracked,Open,
0.921875,-0.3076172,0.08398438,-0.1254883,0.9023438,0.2998047,0,-1,-3,-1,-2,-3,-2,0,-4,30,-7,-6,-4,2,6,23,17.0625,17.0625,17.0625,-2.0625,-2.0625,-2.0625,2.950397,3.221875,5.922459,7.078982,5.382278,5.985846,-0.1923176,-0.4069809,1.212271,0.2388469,0.06023835,1.041351,0.06048153,0.4438667,1.296096,-0.2141605,-0.4057379,1.175292,0.1700212,0.06151538,1.0122,0.03560321,-0.009002135,1.336874,0.02819535,-0.3254777,1.328856,-0.1366874,0.1759669,1.328054,-0.03819916,-0.314117,1.294346,-0.1877292,-0.08926289,1.345336,0.2719178,-0.08423422,1.255391,NA,NA,NotTracked,Open,
0.9291992,-0.3349609,0.06298828,-0.293457,0.8623047,0.1323242,-1,-2,2,0,-1,0,0,-1,-56,-22,-2,5,4,4,2,9,-5.875,-5.875,-5.875,-5.9375,-5.9375,-5.9375,2.943016,3.218995,5.926282,7.083041,5.476188,5.994131,-0.1929992,-0.405685,1.214182,0.2363551,0.08063514,1.056875,0.06216946,0.4437658,1.29598,-0.212778,-0.408252,1.173923,0.2720691,0.1306389,1.09825,0.03584794,-0.009015582,1.337068,0.02821161,-0.3255075,1.328909,-0.1363669,0.1763576,1.328168,-0.03819382,-0.3141212,1.294351,-0.1878525,-0.08916175,1.34525,0.2720183,-0.02496748,1.20573,NA,NA,NotTracked,Open,
0.9287109,-0.3579102,0.1333008,-0.359375,0.7822266,0.1289063,1,-1,-2,1,0,0,-2,-4,-58,3,12,2,2,4,-1,-22,-22.75,-22.75,-22.75,-18.375,-18.375,-18.375,2.926114,3.212325,5.917862,7.077106,5.512466,5.998305,-0.1935985,-0.40521,1.213487,0.2354822,0.09659292,1.069067,0.0635123,0.443793,1.295969,-0.2129558,-0.405996,1.175843,0.2880422,0.1488571,1.092714,0.03616665,-0.00904867,1.337191,0.02827685,-0.3255442,1.328995,-0.1360619,0.176557,1.328172,-0.038161,-0.3141356,1.294357,-0.1879258,-0.08910771,1.345186,0.2743519,-0.04752276,1.243018,NA,NA,NotTracked,Open,
0.8725586,-0.409668,0.1079102,-0.4262695,0.7573242,0.1342773,-2,-2,-1,-5,0,0,-1,-1,27,-3,3,2,4,0,1,2,-3.3125,-3.3125,-3.3125,-12.4375,-12.4375,-12.4375,2.928025,3.210524,5.904177,7.067866,5.549942,6.008729,-0.1913851,-0.4034068,1.21456,0.2323089,0.1057545,1.081302,0.06593793,0.4433361,1.295537,-0.2280669,-0.3982044,1.203437,0.1695507,0.09871729,1.070593,0.03701114,-0.009051431,1.337517,0.02835078,-0.3254888,1.329128,-0.1350119,0.177325,1.327977,-0.03810238,-0.3140664,1.294354,-0.1879824,-0.08874451,1.345205,0.2734736,-0.04909419,1.246418,NA,NA,NotTracked,Open,
0.8867188,-0.3867188,0.1494141,-0.4067383,0.7768555,0.1982422,-1,0,0,-1,-1,0,3,6,50,38,-5,-6,-5,-7,-1,15,11,11,11,-0.875,-0.875,-0.875,2.94406,3.210958,5.898891,7.068613,5.553323,6.013653,-0.191916,-0.4057182,1.215761,0.2325733,0.107635,1.082278,0.06672919,0.4430879,1.295406,-0.2063453,-0.4016629,1.174516,0.164772,0.1044561,1.061417,0.03734142,-0.009153928,1.337605,0.02838265,-0.3255013,1.329146,-0.134756,0.1774941,1.32792,-0.03805017,-0.3140641,1.294312,-0.1880428,-0.0886988,1.345192,0.2733075,-0.0497757,1.247611,NA,NA,NotTracked,Open,
0.8979492,-0.4106445,0.1337891,-0.347168,0.8720703,0.2363281,-1,-2,0,-1,0,-1,-3,-3,23,-15,-8,-7,-4,-6,-13,-19,9.75,9.75,9.75,0.875,0.875,0.875,2.948293,3.210888,5.900299,7.070437,5.530823,6.011789,-0.1908145,-0.4049482,1.217568,0.2317611,0.1065047,1.080355,0.06739164,0.4427518,1.295534,-0.2142684,-0.4019959,1.184061,0.1652772,0.1038309,1.056,0.0377168,-0.009310068,1.337787,0.02847967,-0.3255624,1.329176,-0.1344797,0.1776402,1.327944,-0.03794468,-0.3141049,1.294231,-0.1880666,-0.08861361,1.34527,0.2726308,-0.05045265,1.248398,NA,NA,NotTracked,Open,
0.8813477,-0.4560547,0.1303711,-0.2861328,0.9580078,0.3076172,0,-1,-1,0,1,0,-2,2,15,1,-2,-4,0,5,9,13,3.6875,3.6875,3.6875,3.3125,3.3125,3.3125,2.946347,3.211044,5.907966,7.066845,5.503411,6.004416,-0.1919385,-0.4053546,1.218602,0.2318602,0.103686,1.078229,0.06782744,0.442683,1.295764,-0.1969209,-0.3981264,1.17775,0.1691446,0.1166841,1.05,0.03811049,-0.009468201,1.338063,0.02863714,-0.3256413,1.329216,-0.134202,0.1776185,1.327966,-0.03776756,-0.3141657,1.294143,-0.1880573,-0.08859757,1.345321,0.2726189,-0.05082399,1.248512,NA,NA,NotTracked,Open,
0.8876953,-0.4365234,0.1157227,-0.3383789,1.005859,0.2827148,-1,-1,-1,0,3,0,1,-1,18,-10,2,12,8,2,3,11,-3.375,-3.375,-3.375,-7.625,-7.625,-7.625,2.933392,3.208991,5.921929,7.060343,5.488499,6.001543,-0.1920105,-0.40461,1.218547,0.231414,0.1013872,1.075577,0.06808987,0.4426128,1.295931,-0.2203084,-0.4104698,1.202433,0.1683965,0.1007594,1.048167,0.03832341,-0.009525574,1.338104,0.02887722,-0.325782,1.329045,-0.1337284,0.1776907,1.327898,-0.03745271,-0.3142977,1.293639,-0.1880352,-0.08851149,1.345343,0.272164,-0.05124337,1.248431,NA,NA,NotTracked,Open,
0.909668,-0.4433594,0.1391602,-0.3227539,0.8955078,0.2495117,-1,-1,0,0,-1,0,1,4,51,-2,2,-6,1,-1,-1,16,-10,-10,-10,-8.4375,-8.4375,-8.4375,2.91952,3.210058,5.927059,7.04801,5.486909,5.997812,-0.1929094,-0.4053568,1.219832,0.2323848,0.09880321,1.075239,0.06822999,0.4427283,1.296354,-0.1951004,-0.4460773,1.2455,0.1692746,0.09971138,1.043778,0.03859469,-0.009541162,1.338263,0.02893964,-0.3258248,1.329042,-0.1332183,0.1777972,1.328032,-0.03737831,-0.3143241,1.29353,-0.1880206,-0.08792374,1.345621,0.2720767,-0.05134838,1.248396,NA,NA,NotTracked,Open,
0.909668,-0.4355469,0.1420898,-0.3027344,0.9345703,0.2797852,2,-1,-1,-1,-2,-1,0,1,6,2,2,2,-1,0,0,8,-7.875,-7.875,-7.875,5.5,5.5,5.5,2.914591,3.212421,5.928354,7.04946,5.485831,5.996289,-0.1924328,-0.4040153,1.218915,0.2325025,0.09852443,1.073492,0.06819052,0.4428672,1.296628,-0.1532036,-0.396279,1.251,0.169911,0.105676,1.04,0.03891074,-0.00956559,1.338415,0.0290962,-0.3258563,1.32898,-0.1329349,0.1778203,1.328122,-0.03722398,-0.3143252,1.293398,-0.188021,-0.08790526,1.345654,0.2720169,-0.0518126,1.248627,NA,NA,NotTracked,Open,
0.8920898,-0.4291992,0.1225586,-0.3222656,0.9423828,0.2626953,-1,-2,-3,-3,-2,-2,0,-1,-3,-9,-1,2,-3,1,0,-1,-4.75,-4.75,-4.75,1.3125,1.3125,1.3125,2.911283,3.215632,5.929068,7.050932,5.484584,5.997618,-0.192601,-0.4028055,1.217271,0.2330807,0.09708574,1.073162,0.06764205,0.443539,1.297397,-0.1516605,-0.3895175,1.2401,0.1689965,0.0992956,1.040125,0.03916797,-0.009611154,1.338453,0.02923488,-0.3258985,1.328902,-0.1325828,0.1779429,1.328216,-0.03707457,-0.3143378,1.293199,-0.1880103,-0.08786153,1.34566,0.2718848,-0.05197817,1.248571,NA,NA,NotTracked,Open,
0.8964844,-0.4228516,0.1171875,-0.3466797,0.9003906,0.2587891,-1,-1,0,-2,-3,-1,-2,-1,0,0,-2,-3,-3,2,2,3,-1.4375,-1.4375,-1.4375,-12.8125,-12.8125,-12.8125,2.909255,3.225527,5.929175,7.04272,5.478782,6.004713,-0.1927982,-0.4026715,1.214488,0.232139,0.09596865,1.070753,0.06641651,0.4444171,1.298618,-0.153442,-0.3989964,1.241399,0.1687823,0.09932655,1.03903,0.03940373,-0.009621376,1.338439,0.02936904,-0.3259417,1.328714,-0.1324371,0.1779446,1.328271,-0.03695245,-0.3143516,1.292847,-0.1880489,-0.08780098,1.345667,0.2716044,-0.05239159,1.248277,NA,NA,NotTracked,Open,
0.8813477,-0.4287109,0.1333008,-0.3095703,0.8652344,0.2749023,0,-1,-2,-1,-3,0,-2,-2,13,-4,1,-3,-25,-17,3,11,-4.1875,-4.1875,-4.1875,-4,-4,-4,2.915923,3.241249,5.914729,7.035644,5.466015,6.010144,-0.1925049,-0.4017888,1.211084,0.2321854,0.09191275,1.064906,0.06280991,0.4462111,1.302292,-0.1741453,-0.4154726,1.223632,0.169821,0.08711787,1.042937,0.03966516,-0.009649058,1.338559,0.02942292,-0.3260051,1.328625,-0.132122,0.1778928,1.329034,-0.0369133,-0.314399,1.292669,-0.1877924,-0.08764161,1.345757,0.2730285,-0.06895083,1.278131,NA,NA,NotTracked,Open,
0.8916016,-0.402832,0.1220703,-0.328125,0.8876953,0.2514648,-2,0,-1,-2,0,-3,-1,-2,-20,-2,0,2,4,-23,-5,2,5.5625,5.5625,5.5625,10.75,10.75,10.75,2.930076,3.251943,5.904159,7.044339,5.447939,6.012494,-0.1920232,-0.4026096,1.208771,0.2315336,0.08659802,1.058618,0.06075768,0.4464863,1.304397,-0.1522854,-0.3892747,1.2465,0.1671007,0.08210119,1.0282,0.03974593,-0.009721225,1.338617,0.02949883,-0.3261295,1.328544,-0.1321296,0.177648,1.32959,-0.03686374,-0.3145092,1.292586,-0.1876804,-0.08767823,1.345713,0.2724892,-0.0698422,1.278403,NA,NA,NotTracked,Open,
0.9389648,-0.4145508,0.1342773,-0.3413086,0.9057617,0.1821289,-2,-1,-1,0,1,-1,-2,-1,-8,2,0,0,-6,-4,1,2,1.25,1.25,1.25,-5.75,-5.75,-5.75,2.944701,3.256717,5.892106,7.045449,5.404142,6.005256,-0.1910469,-0.4033467,1.205883,0.2319605,0.07698215,1.04814,0.05918277,0.4465049,1.305739,-0.1576924,-0.3986145,1.236325,0.2575487,0.1326295,1.0862,0.03986892,-0.009876402,1.338646,0.02958006,-0.3263157,1.328345,-0.1321703,0.1773743,1.329914,-0.03680832,-0.3147123,1.292374,-0.1875632,-0.08774454,1.345608,0.2729287,-0.07271463,1.278078,NA,NA,NotTracked,Open,
0.9101563,-0.4228516,0.09863281,-0.1582031,0.8393555,0.1176758,-1,0,-1,-3,-2,-1,-1,0,10,-1,0,-2,-20,-23,-6,-5,-3.375,-3.375,-3.375,-16.8125,-16.8125,-16.8125,2.956064,3.254672,5.875695,7.031857,5.30649,5.976926,-0.1902539,-0.4027579,1.205986,0.2355999,0.05615828,1.034749,0.05703749,0.4465406,1.307421,-0.1791244,-0.4367373,1.22875,0.288509,0.1022415,1.101333,0.03988602,-0.01001083,1.338705,0.02955952,-0.3264844,1.328278,-0.1324047,0.1769757,1.330393,-0.03684096,-0.314876,1.29233,-0.1872676,-0.0881788,1.345533,0.2764015,-0.1149561,1.297792,NA,NA,NotTracked,Open,
0.8930664,-0.4042969,0.1005859,-0.06445313,0.8017578,0.2036133,1,-1,-1,-1,-1,-2,-1,-2,-2,-1,-3,-1,14,16,-2,-3,-13.3125,-13.3125,-13.3125,-13.5625,-13.5625,-13.5625,2.966045,3.24549,5.849442,7.005202,5.166306,5.93016,-0.1882632,-0.4026529,1.205808,0.2384151,0.02882664,1.018393,0.05518011,0.446675,1.308247,-0.1799589,-0.4074636,1.2418,0.2741942,0.02448007,0.9642728,0.03987143,-0.01001825,1.338732,0.02956054,-0.3264864,1.328277,-0.1325534,0.1767653,1.330616,-0.03683819,-0.3149045,1.292338,-0.1871865,-0.08817932,1.345506,0.2688736,-0.07744865,1.267296,NA,NA,NotTracked,Open,
0.8364258,-0.3754883,0.09521484,0.1616211,0.6567383,0.2211914,1,-1,0,0,-1,-1,-1,-1,-1,-5,-5,0,-5,-13,4,1,-17.625,-17.625,-17.625,10.3125,10.3125,10.3125,2.974735,3.234578,5.817398,7.004528,4.982122,5.866166,-0.1855711,-0.4017934,1.20662,0.2442562,-0.007355925,1.002897,0.05265899,0.4472404,1.308775,-0.1669988,-0.4423509,1.224,0.2810444,-0.02064134,0.9643334,0.03980733,-0.009971924,1.338773,0.02955651,-0.3264321,1.328354,-0.1331413,0.1765652,1.330903,-0.03684185,-0.3148936,1.292476,-0.1870694,-0.08817077,1.345475,0.265682,-0.0799261,1.270028,NA,NA,NotTracked,Unknown,
0.8818359,-0.3984375,0.1303711,0.3447266,0.7436523,0.3237305,-3,-1,-1,-2,-3,-1,1,-1,-2,-1,1,2,14,35,-1,-6,-9.25,-9.25,-9.25,-16.9375,-16.9375,-16.9375,2.981218,3.23023,5.795487,6.995199,4.762578,5.80338,-0.1830088,-0.4023702,1.212099,0.2572546,-0.1009688,0.9643866,0.04556401,0.4493464,1.309152,-0.2166766,-0.4001588,1.196133,0.2777233,-0.1184046,0.9079375,0.0393508,-0.009713911,1.339172,0.02941291,-0.3261275,1.329699,-0.13522,0.1761463,1.331864,-0.03716129,-0.3149394,1.29456,-0.1867204,-0.08791754,1.345813,0.278618,-0.07987831,1.274745,NA,NA,NotTracked,Unknown,
0.9101563,-0.4355469,0.1367188,0.4365234,0.6601563,0.3310547,0,-1,-2,-1,0,-1,-1,-1,-9,-1,-1,2,-2,-11,-3,-1,8.25,8.25,8.25,-6.4375,-6.4375,-6.4375,2.989575,3.227312,5.789767,6.99919,4.51376,5.7363,-0.1839236,-0.4033718,1.212067,0.2634246,-0.1515632,0.9610909,0.04115685,0.4494578,1.308597,-0.1914952,-0.4468676,1.233667,0.2916194,-0.1820662,0.9364545,0.03867883,-0.009538392,1.339396,0.02928241,-0.3259867,1.330236,-0.1368934,0.1754495,1.332682,-0.03738577,-0.3149562,1.295543,-0.1865774,-0.08820321,1.346082,0.2810463,-0.08112223,1.273489,NA,NA,NotTracked,Unknown,
0.9047852,-0.4311523,0.1079102,0.4575195,0.6108398,0.2753906,0,-1,-1,-1,-2,-1,-2,-1,-4,-1,8,-1,0,0,-1,3,29.75,29.75,29.75,-25.8125,-25.8125,-25.8125,3.002902,3.225698,5.804321,6.995287,4.37325,5.703944,-0.184349,-0.4040572,1.213717,0.2737732,-0.2023143,0.9885764,0.03614711,0.4495517,1.307876,-0.1632234,-0.4412985,1.228714,0.2976385,-0.2376527,0.9575,0.03802138,-0.00941741,1.339562,0.02885334,-0.3259291,1.33104,-0.1392933,0.1746616,1.333919,-0.03796721,-0.3151352,1.296894,-0.1866075,-0.08857232,1.346334,0.2853247,-0.08235256,1.275348,NA,NA,NotTracked,Unknown,
0.8979492,-0.3828125,0.09570313,0.7739258,0.6289063,0.3051758,-3,-3,-1,0,0,0,0,-2,-1,-3,-9,-4,-4,-5,1,-1,25.0625,25.0625,25.0625,-39.75,-39.75,-39.75,3.015702,3.219478,5.823661,6.982174,4.067064,5.636549,-0.1861717,-0.4055564,1.217637,0.2822569,-0.2531195,1.019262,0.03076885,0.4498477,1.308131,-0.1526271,-0.4000696,1.193774,0.3084536,-0.2663641,1.039889,0.03661417,-0.009299604,1.339967,0.02811427,-0.3259833,1.332316,-0.141482,0.1738366,1.335571,-0.03890366,-0.3155257,1.299001,-0.186689,-0.08943803,1.34716,0.2913124,-0.08234602,1.29307,NA,NA,NotTracked,Unknown,
0.9116211,-0.4057617,0.1166992,0.8935547,0.4614258,0.3354492,-1,1,-2,-3,-1,-1,0,1,-3,-2,-3,1,1,3,-2,-1,15.375,15.375,15.375,-10.3125,-10.3125,-10.3125,3.016285,3.216719,5.832492,7.003988,3.77529,5.56119,-0.1871098,-0.4060539,1.220296,0.292303,-0.3115618,1.051768,0.02542898,0.4496785,1.308315,-0.1782501,-0.428825,1.2434,0.3083304,-0.378642,1.11875,0.03525238,-0.009434951,1.34033,0.02735515,-0.3263941,1.33365,-0.1434659,0.1726333,1.33703,-0.03986194,-0.3163636,1.301446,-0.187118,-0.09109935,1.348504,0.2871519,-0.0839344,1.297813,NA,NA,NotTracked,Lasso,
0.9233398,-0.4331055,0.1391602,1.099609,0.6201172,0.1728516,-1,-2,1,1,0,1,1,0,-3,-2,-6,-4,-3,0,-5,-1,9.5625,9.5625,9.5625,65.4375,65.4375,65.4375,3.013139,3.213784,5.841723,7.150433,3.496037,5.437016,-0.189823,-0.4079291,1.22303,0.2943642,-0.3566851,1.084957,0.01997219,0.4493987,1.308293,-0.1552625,-0.3950315,1.211065,0.2981908,-0.3948202,1.1148,0.03392764,-0.009713408,1.340579,0.0262717,-0.3269272,1.334832,-0.1460023,0.171487,1.338467,-0.04108106,-0.3172211,1.303217,-0.1877315,-0.09188396,1.349534,0.2840123,-0.09039546,1.299941,NA,NA,NotTracked,Lasso,
0.9506836,-0.4355469,0.1357422,1.199707,0.6674805,0.0546875,-2,-2,-1,1,0,0,-1,-1,1,-2,-4,-3,1,-8,-2,3,12.5,12.5,12.5,79.5625,79.5625,79.5625,3.004736,3.205609,5.864758,7.391479,3.259821,5.257197,-0.1918878,-0.4105736,1.227725,0.2990782,-0.3902591,1.129819,0.01524549,0.4492947,1.308422,-0.1688491,-0.4458254,1.246333,0.2953644,-0.4154865,1.163429,0.03211642,-0.009811895,1.341049,0.02504156,-0.3273912,1.336376,-0.1486338,0.1705534,1.340339,-0.04248171,-0.3179967,1.305734,-0.188639,-0.09347876,1.351341,0.2828511,-0.0986252,1.302137,NA,NA,NotTracked,Lasso,
0.9321289,-0.4213867,0.09814453,1.19043,0.6108398,-0.06298828,0,-2,1,-2,-1,-2,-1,-2,-1,-3,-1,-6,5,23,-5,-2,8.1875,8.1875,8.1875,68.9375,68.9375,68.9375,2.986431,3.187356,5.905799,7.529701,3.17312,5.146697,-0.1939547,-0.4092089,1.229645,0.3010167,-0.4133385,1.174002,0.0111071,0.4492005,1.3081,-0.1602629,-0.3980472,1.213862,0.2629314,-0.411094,1.198091,0.03067184,-0.00988524,1.341306,0.02392427,-0.3277734,1.337471,-0.1510461,0.1703147,1.341341,-0.04364024,-0.3185806,1.307424,-0.1896555,-0.09443837,1.353046,0.2814424,-0.1038254,1.304186,NA,NA,Unknown,Lasso,
0.921875,-0.4208984,0.08935547,1.149902,0.4882813,-0.1513672,-1,-2,-2,-2,-2,0,1,0,-2,-3,-1,0,0,-2,0,-2,3.375,3.375,3.375,26.4375,26.4375,26.4375,2.97802,3.181671,5.916605,7.756708,3.068152,4.947148,-0.1959679,-0.4097803,1.235138,0.302416,-0.4244797,1.215052,0.007255335,0.449486,1.307866,-0.1615624,-0.4007643,1.214672,0.2646045,-0.4180739,1.238214,0.02893045,-0.009821602,1.341499,0.02270299,-0.3280134,1.338455,-0.1532919,0.1704114,1.342299,-0.04476976,-0.3188973,1.308726,-0.1908242,-0.09476908,1.354762,0.2806447,-0.1078007,1.306964,NA,NA,Unknown,NotTracked,
0.9106445,-0.4199219,0.08886719,1.082031,0.3432617,-0.1040039,-1,-1,0,0,-1,-2,-2,-2,-4,0,0,-11,5,-2,0,-2,-2,-2,-2,30.5625,30.5625,30.5625,2.9681,3.176007,5.925405,7.850102,3.012706,4.880201,-0.1982726,-0.4098795,1.238646,0.3001801,-0.4253153,1.245387,0.004530742,0.4497022,1.307385,-0.164166,-0.4282902,1.226111,0.2582684,-0.4178177,1.2545,0.02595367,-0.009534378,1.341747,0.02048772,-0.3281972,1.339778,-0.1554119,0.1708527,1.342806,-0.04679026,-0.3189469,1.310161,-0.1921074,-0.09481066,1.356021,0.2790342,-0.1106275,1.310325,NA,NA,Unknown,NotTracked,
0.8857422,-0.4189453,0.1137695,0.9189453,0.4057617,0.004394531,-1,-1,-1,-1,-1,-1,0,-3,-1,-1,-2,-2,-4,-6,0,2,-15.3125,-15.3125,-15.3125,40.4375,40.4375,40.4375,2.937533,3.163841,5.935854,7.826057,2.99368,4.948617,-0.1971824,-0.4084813,1.244273,0.2980354,-0.4219014,1.265939,0.001879369,0.4502176,1.307119,-0.1420397,-0.4137478,1.249438,0.2631837,-0.3994883,1.279455,0.02375079,-0.009071276,1.341782,0.01826427,-0.3279897,1.340717,-0.1577148,0.1720002,1.343235,-0.04871436,-0.3187125,1.311145,-0.1945261,-0.09450092,1.357818,0.277977,-0.1120236,1.315403,NA,NA,Unknown,NotTracked,
0.8710938,-0.4233398,0.1196289,0.8398438,0.4350586,0.07080078,-1,0,-3,0,0,-2,1,-1,-1,-1,-1,1,0,3,-1,-1,-15.3125,-15.3125,-15.3125,36.125,36.125,36.125,2.918177,3.157351,5.938398,7.796323,2.994349,4.999049,-0.1979691,-0.4097606,1.250125,0.293124,-0.4189779,1.277891,0.0003261002,0.4505594,1.306699,-0.1428517,-0.4011875,1.252687,0.2469003,-0.4269702,1.274,0.02142666,-0.008712385,1.341948,0.01585253,-0.3277922,1.341784,-0.1596642,0.1727191,1.34314,-0.05093815,-0.3184445,1.312164,-0.1973953,-0.09443175,1.359483,0.2765933,-0.1120632,1.324483,NA,NA,NotTracked,NotTracked,
0.887207,-0.4345703,0.1318359,0.8007813,0.4672852,0.0859375,1,-1,0,1,1,0,-1,-2,-1,-1,-1,-3,-2,-7,-3,-2,-16.1875,-16.1875,-16.1875,-0.5,-0.5,-0.5,2.898061,3.152061,5.941629,7.756798,3.007141,5.049892,-0.1970199,-0.4085994,1.253977,0.2886185,-0.421882,1.282307,-0.000989796,0.4505532,1.30605,-0.1460239,-0.4100138,1.245712,0.244648,-0.4125176,1.282458,0.01848604,-0.008684191,1.342214,0.01301465,-0.3279001,1.342913,-0.1618538,0.1730761,1.343261,-0.05355907,-0.3184641,1.313136,-0.2008698,-0.09497952,1.361084,0.2754877,-0.112126,1.331755,NA,NA,NotTracked,NotTracked,
0.8896484,-0.4155273,0.1079102,0.8383789,0.5024414,0.09619141,-1,0,-2,0,-2,-1,-2,1,0,-1,0,2,2,9,-1,-1,-14.4375,-14.4375,-14.4375,-54,-54,-54,2.877292,3.1457,5.946805,7.702106,3.0354,5.057123,-0.2046382,-0.4119433,1.258864,0.2801899,-0.4254301,1.280625,-0.003510449,0.4505583,1.305755,-0.1546508,-0.4100698,1.251351,0.2364259,-0.4166683,1.275842,0.01227035,-0.0092621,1.342978,0.006146243,-0.3289113,1.344646,-0.1673948,0.1728811,1.342814,-0.05994945,-0.3191559,1.314451,-0.2091245,-0.09479926,1.363091,0.2704234,-0.1122319,1.343981,NA,NA,NotTracked,NotTracked,
