ALX,ALY,ALZ,ARX,ARY,ARZ,EMG0L,EMG1L,EMG2L,EMG3L,EMG4L,EMG5L,EMG6L,EMG7L,EMG0R,EMG1R,EMG2R,EMG3R,EMG4R,EMG5R,EMG6R,EMG7R,GLX,GLY,GLZ,GRX,GRY,GRZ,ORL,OPL,OYL,ORR,OPR,OYR,LHNX,LHNY,LHNZ,RHNX,RHNY,RHNZ,HX,HY,HZ,LTX,LTY,LTZ,RTX,RTY,RTZ,SpineMidX,SpineMidY,SpineMidZ,SpineBaseX,SpineBaseY,SpineBaseZ,ShoulderLeftX,ShoulderLeftY,ShoulderLeftZ,ShoulderRightX,ShoulderRightY,ShoulderRightZ,ElbowLeftX,ElbowLeftY,ElbowLeftZ,ElbowRightX,ElbowRightY,ElbowRightZ,Myo_Pose_left,Myo_Pose_Right,Kinect_pose_left,Kinect_pose_right
0.918457,-0.3710938,0.1347656,0.8994141,0.3676758,0.09960938,-2,-1,-2,0,-2,-1,-1,-2,1,1,-2,-1,-1,-1,0,0,-0.4375,-0.4375,-0.4375,1.25,1.25,1.25,3.052032,3.150448,2.202104,7.089676,3.152961,3.24068,-0.2335459,-0.4233103,1.319968,0.2082743,-0.4157506,1.336576,-0.01947568,0.4410326,1.378802,-0.2769911,-0.4193752,1.305146,0.2500467,-0.4214147,1.334286,-0.02945921,-0.02723754,1.418386,-0.02933387,-0.3574489,1.416427,-0.2045071,0.1689045,1.404383,-0.1128563,-0.3460619,1.378789,-0.251306,-0.09725912,1.433135,0.195397,-0.1098584,1.45938,NA,NA,NotTracked,NotTracked,
0.9179688,-0.3676758,0.140625,0.9018555,0.3691406,0.09716797,-1,-1,0,-1,0,-3,-1,-1,1,-1,-2,-1,-1,-1,-2,1,0,0,0,0.8125,0.8125,0.8125,3.051618,3.150624,2.202216,7.0867,3.153187,3.247042,-0.2335972,-0.4227192,1.319232,0.2075857,-0.4151988,1.3352,-0.01920368,0.4411472,1.379161,-0.2807139,-0.4274797,1.307762,0.2447133,-0.4219179,1.324407,-0.02931786,-0.02714936,1.418622,-0.02923855,-0.3573809,1.416596,-0.2043449,0.1689761,1.404733,-0.112759,-0.3459998,1.378903,-0.2513486,-0.09713935,1.43323,0.1954007,-0.109943,1.459575,NA,NA,NotTracked,NotTracked,
0.9121094,-0.371582,0.1411133,0.8989258,0.3608398,0.1025391,1,-1,-1,-2,-1,-2,0,-2,0,0,-1,0,-3,-1,0,0,-1.5,-1.5,-1.5,1.0625,1.0625,1.0625,3.046122,3.15197,2.205691,7.082913,3.152328,3.252358,-0.2337906,-0.4241284,1.319812,0.2076398,-0.415358,1.335276,-0.01892575,0.4411325,1.379584,-0.2776355,-0.4190461,1.306221,0.2478187,-0.4215279,1.33009,-0.02921916,-0.02712428,1.418811,-0.0292122,-0.3573454,1.416734,-0.2042009,0.1690575,1.405017,-0.1127432,-0.3459421,1.379025,-0.2514343,-0.09791631,1.433805,0.1954386,-0.1099973,1.459656,NA,NA,NotTracked,NotTracked,
0.9145508,-0.371582,0.1381836,0.9013672,0.3686523,0.1030273,-1,-1,-2,-1,-1,-2,1,0,-2,-2,-1,-2,-1,1,-1,0,-2.5625,-2.5625,-2.5625,0.5625,0.5625,0.5625,3.03992,3.150464,2.207257,7.082799,3.151853,3.253305,-0.2344524,-0.4232529,1.319456,0.2070793,-0.4151124,1.335751,-0.01859358,0.4411997,1.379948,-0.279524,-0.4185787,1.306874,0.2099154,-0.451396,1.3609,-0.02913232,-0.02705587,1.419036,-0.02918404,-0.3572795,1.416913,-0.2041516,0.1693551,1.404908,-0.1127174,-0.3458654,1.379152,-0.251402,-0.09814966,1.433843,0.195466,-0.1100201,1.459845,NA,NA,NotTracked,NotTracked,
0.9155273,-0.3725586,0.1342773,0.8979492,0.3642578,0.09521484,-1,-1,-1,-1,-2,-1,-1,1,-1,-2,0,0,-1,-2,0,0,-1.125,-1.125,-1.125,-0.5,-0.5,-0.5,3.038365,3.15062,2.206533,7.083038,3.151361,3.253066,-0.2349819,-0.4233902,1.319853,0.2074257,-0.4149155,1.336402,-0.01829299,0.4412597,1.380493,-0.2785967,-0.4217677,1.301878,0.2097786,-0.4512881,1.360938,-0.02903428,-0.02691121,1.419338,-0.02915513,-0.3571539,1.417166,-0.2042052,0.1695513,1.404842,-0.1126827,-0.3457293,1.379399,-0.2514377,-0.09792051,1.434157,0.1954418,-0.1099974,1.460097,NA,NA,NotTracked,NotTracked,
0.9135742,-0.3696289,0.140625,0.8955078,0.3740234,0.09423828,-1,2,0,0,-2,-2,-2,-1,-1,-2,-1,-2,-2,-2,-1,-1,-2.125,-2.125,-2.125,-0.1875,-0.1875,-0.1875,3.038032,3.150538,2.205032,7.082668,3.15123,3.253425,-0.2344771,-0.4239983,1.320263,0.2069345,-0.4151938,1.337278,-0.01799223,0.4412898,1.38074,-0.2783824,-0.4181675,1.306665,0.2090342,-0.4522071,1.36,-0.02891594,-0.02686242,1.419602,-0.02906235,-0.3571268,1.417447,-0.2039714,0.1695418,1.405226,-0.1125819,-0.3457038,1.379681,-0.2514697,-0.09759738,1.434359,0.1954356,-0.1098248,1.46033,NA,NA,NotTracked,NotTracked,
0.9145508,-0.3735352,0.1357422,0.9160156,0.3686523,0.1040039,0,-4,-2,-1,-1,-2,-1,-1,-1,0,-2,0,-1,1,-2,0,-0.5625,-0.5625,-0.5625,-1.5625,-1.5625,-1.5625,3.038195,3.150521,2.203058,7.084054,3.149323,3.250156,-0.2344818,-0.4241606,1.319541,0.206906,-0.415057,1.338673,-0.01785375,0.4412612,1.380848,-0.2797,-0.4185888,1.310509,0.2090707,-0.4521253,1.360227,-0.02889991,-0.02684863,1.419701,-0.02902132,-0.3570798,1.417633,-0.203837,0.1695752,1.405422,-0.1125486,-0.3456443,1.379786,-0.2515724,-0.0975839,1.434418,0.1954336,-0.1098996,1.460506,NA,NA,NotTracked,NotTracked,
0.9111328,-0.3647461,0.1235352,0.8886719,0.3579102,0.08837891,0,-1,-1,-1,1,0,-1,-1,-1,0,-1,-2,-1,-2,-1,-2,1.4375,1.4375,1.4375,-3,-3,-3,3.039301,3.150319,2.202504,7.092338,3.144523,3.237964,-0.2350012,-0.4238086,1.31959,0.207222,-0.415709,1.340033,-0.01762411,0.4414036,1.380916,-0.2783435,-0.419239,1.306307,0.2435433,-0.4206768,1.328478,-0.02885758,-0.02676546,1.419788,-0.02904559,-0.3570281,1.417781,-0.2035239,0.1697211,1.405649,-0.1125573,-0.3455824,1.379856,-0.2516465,-0.09775166,1.434406,0.195436,-0.1100465,1.460654,NA,NA,NotTracked,NotTracked,
0.9360352,-0.3823242,0.1513672,0.8950195,0.3725586,0.1020508,-3,-1,-2,-1,-1,-1,1,-2,0,0,-1,-1,-2,1,-1,0,-1.625,-1.625,-1.625,0.5,0.5,0.5,3.040695,3.148125,2.199755,7.099068,3.139735,3.228743,-0.2333202,-0.4232576,1.320484,0.2075914,-0.4154648,1.340415,-0.01740664,0.4418506,1.380789,-0.2771768,-0.4159192,1.304429,0.2452042,-0.4177862,1.332588,-0.02879283,-0.02670252,1.419735,-0.02910617,-0.3569995,1.41789,-0.203654,0.1699952,1.4051,-0.1126036,-0.3455412,1.379946,-0.2516225,-0.09787878,1.434356,0.1954251,-0.1102132,1.460996,NA,NA,NotTracked,NotTracked,
0.9160156,-0.3686523,0.1191406,0.9008789,0.3515625,0.09033203,0,0,-1,0,0,-1,-2,1,-25,0,0,-7,-12,-3,-8,-30,2.875,2.875,2.875,5.625,5.625,5.625,3.041298,3.142728,2.199026,7.109254,3.131792,3.222892,-0.2335878,-0.4239722,1.321305,0.207946,-0.4167151,1.344169,-0.01716376,0.4431037,1.381119,-0.2791454,-0.4182995,1.31342,0.2442364,-0.4179486,1.331636,-0.0287183,-0.0264798,1.419648,-0.02913441,-0.3569325,1.418108,-0.2034147,0.1702425,1.40502,-0.1126038,-0.3454865,1.380019,-0.2516741,-0.09804238,1.434427,0.1953734,-0.1103819,1.461326,NA,NA,NotTracked,NotTracked,
0.9155273,-0.3754883,0.1416016,0.9130859,0.4599609,0.08105469,-1,0,-1,-1,-1,-3,-1,-1,9,1,-1,6,23,0,6,13,-1.5,-1.5,-1.5,-10.75,-10.75,-10.75,3.044708,3.139498,2.198604,7.112177,3.137441,3.224329,-0.233384,-0.4228505,1.321546,0.2044788,-0.4162899,1.341627,-0.01709427,0.4442044,1.381745,-0.2810733,-0.4246886,1.316515,0.2441975,-0.4176416,1.331704,-0.02870331,-0.02615495,1.419452,-0.02917174,-0.3568615,1.418193,-0.203225,0.1704714,1.404832,-0.1126238,-0.3453788,1.380055,-0.2517025,-0.09747991,1.434373,0.1953335,-0.1104685,1.461397,NA,NA,NotTracked,NotTracked,
0.9160156,-0.3808594,0.1459961,0.8925781,0.6420898,0.2060547,-1,-2,-2,-1,-3,0,0,-1,-12,-7,15,-14,0,-6,-9,-14,-0.4375,-0.4375,-0.4375,-23.25,-23.25,-23.25,3.042624,3.147583,2.206583,6.977392,3.235841,3.299582,-0.2348579,-0.4234436,1.31996,0.201982,-0.4109018,1.326929,-0.01708529,0.4454876,1.382421,-0.2816756,-0.4236759,1.312284,0.1990485,-0.4304908,1.354956,-0.02864254,-0.02584391,1.419337,-0.02928421,-0.3566981,1.418518,-0.2031249,0.1707576,1.404722,-0.1126624,-0.345195,1.380242,-0.251753,-0.09726007,1.434126,0.195363,-0.1105416,1.461454,NA,NA,NotTracked,NotTracked,
0.890625,-0.3720703,0.1357422,0.8505859,0.8305664,0.3408203,-2,-6,-13,-5,-1,-2,-2,-2,-43,0,-6,-30,-2,-1,-2,-42,-1.25,-1.25,-1.25,-35.8125,-35.8125,-35.8125,3.041879,3.156842,2.207751,6.836979,3.44478,3.393648,-0.2347655,-0.422459,1.317944,0.2056195,-0.3841375,1.280907,-0.0170754,0.4462923,1.382837,-0.2814544,-0.4238763,1.309558,0.1838034,-0.4361189,1.301769,-0.0286036,-0.02558651,1.419224,-0.02938478,-0.3566082,1.418646,-0.2030876,0.1709258,1.404539,-0.1127759,-0.3450414,1.38026,-0.2516771,-0.09736418,1.433737,0.196327,-0.1094162,1.460524,NA,NA,NotTracked,NotTracked,
0.9135742,-0.3876953,0.1494141,0.8535156,0.9799805,0.5219727,-3,-2,-3,-1,-1,-3,-2,-1,7,1,-22,-9,-1,4,2,-7,-21.5,-21.5,-21.5,-40.75,-40.75,-40.75,3.031728,3.161708,2.19123,6.723719,3.777619,3.44934,-0.2352329,-0.4225945,1.314468,0.2176814,-0.3158867,1.206697,-0.01689253,0.4467301,1.383336,-0.2791625,-0.4129185,1.288125,0.1988187,-0.3738746,1.219111,-0.02883291,-0.02528739,1.419285,-0.03015142,-0.3563721,1.418869,-0.2030162,0.1710292,1.404449,-0.1135813,-0.3446627,1.380291,-0.2517088,-0.09736907,1.433062,0.1989897,-0.1030715,1.450873,NA,NA,NotTracked,Lasso,
0.9331055,-0.3579102,0.1455078,0.6669922,0.9995117,0.6416016,0,-2,-7,-3,-1,0,1,-1,-8,-3,-8,-5,11,-2,-5,-25,-4.1875,-4.1875,-4.1875,-25.5,-25.5,-25.5,3.038904,3.172065,2.165582,6.611302,4.390262,3.526651,-0.2377486,-0.4200172,1.306446,0.2243222,-0.2187313,1.13439,-0.01625347,0.4469186,1.384397,-0.2798872,-0.4181745,1.297583,0.1988492,-0.275948,1.106143,-0.02923792,-0.02482551,1.419781,-0.03118829,-0.3558947,1.419198,-0.2030663,0.1711009,1.404442,-0.1145983,-0.3440888,1.380314,-0.2519648,-0.09727771,1.432236,0.1968154,-0.07605934,1.436074,NA,NA,NotTracked,Lasso,
0.9291992,-0.3867188,0.1533203,0.3139648,0.8662109,0.6679688,-3,-13,-46,-5,-3,-1,-1,-2,-24,2,3,-11,29,-6,-21,-13,-7.4375,-7.4375,-7.4375,-42.0625,-42.0625,-42.0625,3.047297,3.187429,2.144449,6.542062,4.941757,3.595373,-0.2396125,-0.4197539,1.298009,0.2211187,-0.05592604,1.072541,-0.01532923,0.4466927,1.385774,-0.2803804,-0.4293908,1.301638,0.2380325,-0.06468734,1.042778,-0.02956523,-0.02456385,1.420191,-0.03177103,-0.3556581,1.419135,-0.203016,0.1711287,1.404515,-0.1152553,-0.3438222,1.380069,-0.2524393,-0.09693702,1.431242,0.1947208,-0.06691279,1.423092,NA,NA,NotTracked,Unknown,
0.9023438,-0.3525391,0.1411133,-0.1577148,0.5390625,0.6132813,-1,1,-4,-3,0,0,-1,-3,17,-4,6,-3,-30,-5,-6,-14,-0.9375,-0.9375,-0.9375,-44.125,-44.125,-44.125,3.071098,3.207296,2.12408,6.457438,5.693333,3.73843,-0.2386021,-0.4190292,1.294886,0.2040808,0.09625647,1.086069,-0.01407919,0.4463334,1.38775,-0.2815553,-0.4192389,1.293833,0.24099,0.09351625,1.0985,-0.02978974,-0.02443223,1.420889,-0.03226457,-0.3556008,1.419177,-0.203413,0.1712504,1.404094,-0.1157604,-0.3436877,1.379943,-0.2525203,-0.09704841,1.430441,0.2296856,-0.08902056,1.370854,NA,NA,NotTracked,Unknown,
0.9057617,-0.3798828,0.1704102,-0.3657227,0.440918,0.5161133,-1,2,12,1,1,-1,-1,2,-12,18,8,14,-8,-1,2,38,0.5625,0.5625,0.5625,-35.8125,-35.8125,-35.8125,3.07615,3.213476,2.11982,6.499062,6.180561,3.924118,-0.237563,-0.4188109,1.294249,0.1726498,0.206097,1.128834,-0.01316515,0.4460311,1.389498,-0.2492034,-0.4206206,1.25038,0.212244,0.1978383,1.120667,-0.02991903,-0.02474155,1.421733,-0.03336982,-0.3563582,1.419088,-0.2025027,0.1711547,1.404849,-0.1172143,-0.3441603,1.379735,-0.2523009,-0.09667765,1.42987,0.24388,-0.03671136,1.296437,NA,NA,NotTracked,Unknown,
0.9174805,-0.3725586,0.1635742,-0.4980469,0.3305664,0.3535156,3,2,12,3,1,2,2,4,-6,-16,-12,-9,11,5,5,-27,5.4375,5.4375,5.4375,-31.125,-31.125,-31.125,3.083098,3.211821,2.122844,6.659945,6.549741,4.212593,-0.2364911,-0.420018,1.297011,0.1506452,0.2545752,1.179317,-0.01275246,0.4458778,1.390647,-0.2768344,-0.4301402,1.294733,0.1033133,0.2552853,1.23775,-0.02807093,-0.02244732,1.422648,-0.03442683,-0.352708,1.41847,-0.2005569,0.1710889,1.40607,-0.1193286,-0.3391392,1.379193,-0.2513478,-0.0942077,1.429737,0.2461192,0.01388674,1.241255,NA,NA,NotTracked,Unknown,
0.890625,-0.3989258,0.1279297,-0.6499023,0.3681641,0.1103516,0,1,6,4,-1,0,0,2,-30,2,7,1,2,-4,-4,15,10.9375,10.9375,10.9375,-24.9375,-24.9375,-24.9375,3.091033,3.206794,2.127501,7.051944,6.803598,4.730122,-0.2352963,-0.4193433,1.300553,0.13183,0.2719775,1.210344,-0.01188937,0.4450778,1.39074,-0.2735553,-0.4312623,1.295313,0.1030236,0.2579147,1.263375,-0.02699971,-0.02140968,1.422881,-0.03541218,-0.3511775,1.417591,-0.1989143,0.1712867,1.406614,-0.1209718,-0.3372326,1.378956,-0.2497891,-0.08976237,1.429572,0.2446531,0.03697748,1.213815,NA,NA,NotTracked,Unknown,
0.8920898,-0.4326172,0.1645508,-0.7202148,0.4643555,0.07666016,-1,2,30,4,2,0,-1,-3,15,4,0,4,9,6,5,-8,4.375,4.375,4.375,-29,-29,-29,3.106554,3.197321,2.132191,7.265847,6.83292,5.015268,-0.2346999,-0.4184954,1.305051,0.1199143,0.2704319,1.224237,-0.01117886,0.4442033,1.390722,-0.2720986,-0.4346213,1.304882,0.09535986,0.2542524,1.275878,-0.02600828,-0.02083399,1.423082,-0.03609877,-0.3506649,1.417043,-0.1980879,0.1712901,1.406938,-0.1218871,-0.3365932,1.378907,-0.24916,-0.08840433,1.43011,0.2424823,0.0408583,1.203474,NA,NA,NotTracked,Unknown,
0.9003906,-0.4389648,0.1484375,-0.8364258,0.5014648,0.06298828,-5,-2,-6,-2,-2,-3,0,1,9,-21,-3,-1,-9,-7,1,22,6.375,6.375,6.375,-15,-15,-15,3.100131,3.197622,2.150372,7.330571,6.829874,5.130349,-0.234675,-0.418251,1.307143,0.1638906,0.1725132,1.216919,-0.01096282,0.4435977,1.390751,-0.2736028,-0.4315763,1.301697,0.1534455,0.1052149,1.199357,-0.02550005,-0.02074196,1.423095,-0.03645119,-0.3504846,1.416266,-0.1979372,0.1711318,1.407251,-0.1221738,-0.3364803,1.378797,-0.248708,-0.08772969,1.430617,0.2384036,0.03864657,1.195254,NA,NA,NotTracked,Unknown,
0.9023438,-0.3886719,0.171875,-0.9355469,0.456543,0.05566406,-2,-3,-3,0,1,0,-1,-5,-8,-16,-7,-7,-14,1,-5,2,-3.125,-3.125,-3.125,-12.1875,-12.1875,-12.1875,3.094501,3.193536,2.158973,7.345241,6.827314,5.172642,-0.2359086,-0.4190543,1.310402,0.1604589,0.1720231,1.219254,-0.01093749,0.4433647,1.390791,-0.2745516,-0.4277965,1.317077,0.1494137,0.1054981,1.203905,-0.02521279,-0.02080216,1.423081,-0.03655102,-0.3505751,1.415664,-0.1976168,0.1709623,1.408354,-0.1222661,-0.3365361,1.37871,-0.2482516,-0.08568956,1.432098,0.2321554,0.03642323,1.190451,NA,NA,NotTracked,Unknown,
0.8935547,-0.4213867,0.1733398,-0.9248047,0.4462891,0.04833984,0,-2,3,4,1,-1,-4,-5,42,12,-3,-2,-16,0,7,5,-5.25,-5.25,-5.25,5.125,5.125,5.125,3.076717,3.194289,2.16889,7.362711,6.806145,5.199791,-0.2374884,-0.4201635,1.311107,0.159026,0.168078,1.220404,-0.01104438,0.4429206,1.39075,-0.2776235,-0.4207003,1.302875,0.1459986,0.09421794,1.199,-0.02502987,-0.0208433,1.42305,-0.03667176,-0.3506208,1.415302,-0.1980777,0.1711607,1.40813,-0.1223675,-0.3365901,1.378613,-0.2482617,-0.08529571,1.432697,0.228147,0.03460196,1.187911,NA,NA,NotTracked,Unknown,
0.9145508,-0.3852539,0.1713867,-0.9277344,0.4482422,0.07519531,-1,0,14,4,1,0,5,8,2,-25,-7,1,-7,-5,-4,-14,-2.0625,-2.0625,-2.0625,-0.1875,-0.1875,-0.1875,3.072399,3.199202,2.173734,7.371504,6.795062,5.19933,-0.2389206,-0.4213668,1.309907,0.1591561,0.1729519,1.221581,-0.01127606,0.4424817,1.390655,-0.2767176,-0.4309734,1.309587,0.1477946,0.1098949,1.209833,-0.02489637,-0.0210025,1.422963,-0.03672183,-0.3507808,1.414649,-0.1977957,0.1710976,1.408677,-0.1224588,-0.3367177,1.378304,-0.2483473,-0.08581167,1.433138,0.2272779,0.03376946,1.186988,NA,NA,NotTracked,Unknown,
0.9038086,-0.4038086,0.1665039,-0.9169922,0.4199219,0.06933594,-1,2,18,3,-3,-2,-3,0,-6,6,-6,-9,6,4,1,-3,-4.1875,-4.1875,-4.1875,5.5625,5.5625,5.5625,3.06969,3.2032,2.168509,7.373304,6.805461,5.186835,-0.2383511,-0.4206599,1.308779,0.1607737,0.1718023,1.223417,-0.0113692,0.442235,1.390643,-0.2781509,-0.432858,1.308215,0.1570212,0.1015341,1.194786,-0.02483201,-0.02105885,1.422915,-0.03679773,-0.3508787,1.414181,-0.1984684,0.1710721,1.408126,-0.1225572,-0.3368369,1.37806,-0.2484049,-0.0859684,1.433196,0.2272812,0.03271084,1.186898,NA,NA,NotTracked,Unknown,
0.9052734,-0.3833008,0.159668,-0.8994141,0.40625,0.05761719,-4,-3,8,2,-2,-4,-7,-9,7,4,-2,-9,-14,-7,-12,0,-5.5,-5.5,-5.5,9.1875,9.1875,9.1875,3.074364,3.206133,2.156861,7.374454,6.813993,5.179659,-0.2385885,-0.4200365,1.306975,0.1633898,0.1681917,1.224423,-0.01146513,0.442035,1.390578,-0.2787497,-0.4329076,1.312873,0.1504961,0.1042417,1.207873,-0.0247971,-0.0210877,1.422838,-0.03692158,-0.3509409,1.413702,-0.1982945,0.1710307,1.408225,-0.1227442,-0.3368652,1.377599,-0.2484367,-0.08596397,1.433175,0.2269904,0.03200977,1.186702,NA,NA,NotTracked,Unknown,
0.9086914,-0.3959961,0.1669922,-0.8984375,0.3984375,0.06201172,-2,-3,5,-3,-1,-1,-3,-3,3,5,0,8,25,3,3,-1,-4.5625,-4.5625,-4.5625,2.6875,2.6875,2.6875,3.078467,3.209223,2.142992,7.3601,6.814456,5.159131,-0.2379096,-0.4192836,1.304054,0.1628754,0.1714649,1.226225,-0.01145967,0.4418598,1.390607,-0.2770258,-0.4445352,1.3106,0.147915,0.1056525,1.224,-0.02476119,-0.02111215,1.422766,-0.03702246,-0.3509598,1.413272,-0.1982331,0.1709902,1.408251,-0.1228688,-0.3368858,1.377255,-0.2486757,-0.08573241,1.432531,0.2269982,0.03154307,1.186469,NA,NA,NotTracked,Unknown,
0.90625,-0.3725586,0.1474609,-0.8681641,0.4311523,0.09228516,-2,-2,-5,-1,-1,0,1,4,9,-2,3,9,-11,3,12,28,-0.25,-0.25,-0.25,9.5625,9.5625,9.5625,3.088813,3.213577,2.132488,7.304162,6.806101,5.093425,-0.2366771,-0.4199415,1.302485,0.1638606,0.1694143,1.227215,-0.01151174,0.4418152,1.390598,-0.2759302,-0.4493334,1.308091,0.1497248,0.1018311,1.222234,-0.02467519,-0.02105253,1.422671,-0.03718309,-0.3508362,1.412919,-0.1987753,0.1710499,1.40753,-0.1230516,-0.336767,1.376931,-0.2488733,-0.08573886,1.432004,0.2270665,0.02916091,1.187589,NA,NA,NotTracked,Unknown,
0.9038086,-0.3837891,0.1489258,-0.8261719,0.4125977,0.1967773,3,0,7,0,1,2,1,7,-25,-42,-5,8,-5,-9,-10,7,4.4375,4.4375,4.4375,58.3125,58.3125,58.3125,3.096064,3.219777,2.122716,7.173547,6.813454,4.864453,-0.2376297,-0.4204065,1.300113,0.1673346,0.164928,1.2293,-0.01162569,0.4417693,1.390585,-0.2755923,-0.4515505,1.309154,0.1522769,0.09857734,1.2298,-0.02464554,-0.02093796,1.422465,-0.03739744,-0.3507601,1.412578,-0.1993577,0.1709272,1.406936,-0.1233104,-0.3366659,1.376579,-0.2491408,-0.08575332,1.431638,0.2272611,0.02510465,1.189921,NA,NA,NotTracked,Unknown,
0.9072266,-0.3901367,0.1538086,-0.9501953,0.2163086,0.0703125,-3,-1,8,3,-1,-2,-4,-11,-2,1,0,0,10,-1,-10,20,4.9375,4.9375,4.9375,149.4375,149.4375,149.4375,3.102871,3.222526,2.123144,7.176398,6.849213,4.650617,-0.2382552,-0.4197369,1.299395,0.0528841,0.3317277,1.225997,-0.01214912,0.4418634,1.390561,-0.277034,-0.440888,1.308275,0.03466406,0.3112393,1.167923,-0.02461222,-0.02067122,1.422256,-0.03742669,-0.3503668,1.41227,-0.1991289,0.1706844,1.407417,-0.1233902,-0.3363713,1.37621,-0.2494248,-0.08544413,1.431149,0.231444,0.01790657,1.206711,NA,NA,NotTracked,Unknown,
0.90625,-0.3823242,0.1518555,-0.9379883,0.4033203,-0.08496094,2,1,2,0,-2,1,-1,6,4,-2,1,-5,-14,-1,0,-34,1.5,1.5,1.5,148.125,148.125,148.125,3.111666,3.221761,2.128671,7.282954,6.781461,4.490398,-0.2386769,-0.4205485,1.300263,0.1181571,0.2758736,1.220659,-0.01408463,0.4418718,1.390824,-0.2775855,-0.4409228,1.307945,0.1321328,0.2972227,1.14942,-0.02482278,-0.02015772,1.422218,-0.03737215,-0.3493908,1.411904,-0.2005196,0.1706933,1.40651,-0.12336,-0.3355941,1.375747,-0.2494694,-0.08549899,1.431124,0.2334188,0.0002390644,1.227282,NA,NA,NotTracked,Unknown,
0.8881836,-0.4047852,0.1650391,-0.8935547,0.9692383,0.1420898,-1,0,0,9,1,-1,-2,-6,-22,-7,-8,-9,-9,-4,1,-31,-2.9375,-2.9375,-2.9375,-2.25,-2.25,-2.25,3.106909,3.214202,2.130021,7.189273,6.657563,4.244736,-0.2393684,-0.4195019,1.303463,0.1367061,0.2641556,1.206962,-0.01640365,0.4422675,1.391698,-0.2770445,-0.4419822,1.307992,0.1582322,0.2714108,1.144151,-0.02508057,-0.01943029,1.421709,-0.03722931,-0.348464,1.411696,-0.2018405,0.1707531,1.40603,-0.1232333,-0.3349785,1.375518,-0.2495556,-0.08553172,1.431158,0.2340928,-0.02798702,1.270424,NA,NA,NotTracked,Unknown,
0.9233398,-0.3955078,0.1679688,-0.8837891,0.1254883,0.4072266,1,0,-19,-3,1,3,6,10,12,9,5,7,18,4,7,58,0.3125,0.3125,0.3125,-116.5,-116.5,-116.5,3.096081,3.197609,2.137901,6.6844,6.563336,3.970928,-0.2392612,-0.4208141,1.306633,0.1548753,0.2526127,1.191746,-0.01864873,0.4428994,1.392568,-0.2789292,-0.4237142,1.307429,0.156472,0.2558155,1.130867,-0.02563471,-0.01968342,1.421373,-0.03723675,-0.3488284,1.411616,-0.2030386,0.1706504,1.4055,-0.1231197,-0.335525,1.375217,-0.2499137,-0.08659185,1.431395,0.2227193,-0.05112987,1.312383,NA,NA,NotTracked,Closed,
0.9106445,-0.3959961,0.1591797,-0.8564453,0.2275391,0.3110352,-1,1,13,1,-1,-4,-7,-14,1,-16,-7,0,-4,-5,-5,3,-4.625,-4.625,-4.625,92.625,92.625,92.625,3.088449,3.188625,2.145701,6.597325,6.570235,3.821263,-0.2390033,-0.4207811,1.310267,0.1727958,0.2485017,1.185003,-0.02002832,0.4431163,1.392835,-0.2801547,-0.4187574,1.298976,0.1756581,0.2107962,1.154182,-0.02794006,-0.0217304,1.421579,-0.03723782,-0.3505305,1.4117,-0.2042653,0.1700416,1.406091,-0.1228647,-0.3375823,1.375024,-0.2501202,-0.08816364,1.431831,0.2236796,-0.05192844,1.311405,NA,NA,NotTracked,Closed,
0.8881836,-0.4125977,0.1650391,-0.9609375,0.6635742,0.2709961,1,0,-5,-2,3,4,6,12,6,-3,-4,-5,3,1,2,19,-8.375,-8.375,-8.375,155.1875,155.1875,155.1875,3.077919,3.185316,2.140825,6.764826,6.578085,3.753058,-0.2367627,-0.4205045,1.314035,0.1818643,0.2514881,1.191545,-0.02076602,0.4431011,1.392835,-0.2799923,-0.4265137,1.314153,0.2024704,0.2216051,1.146167,-0.02910953,-0.02287165,1.421855,-0.03727227,-0.3519681,1.412049,-0.2045205,0.1700212,1.406103,-0.1226696,-0.3392588,1.375078,-0.250436,-0.08861122,1.432025,0.2230885,-0.05137022,1.311759,NA,NA,NotTracked,Unknown,
0.909668,-0.4125977,0.1694336,-0.8525391,0.2573242,0.1918945,-2,-3,-13,-1,-1,-2,-1,-1,-1,-20,6,3,3,9,22,80,-4.0625,-4.0625,-4.0625,-264.0625,-264.0625,-264.0625,3.066142,3.188299,2.138416,6.573237,6.524427,3.782179,-0.2372152,-0.4200103,1.313304,0.1791383,0.2470697,1.183225,-0.02094427,0.4429975,1.392972,-0.2808965,-0.4213696,1.299355,0.1847434,0.2311108,1.138341,-0.02979356,-0.02364454,1.421973,-0.03723976,-0.3528472,1.412076,-0.2047164,0.1696451,1.406615,-0.1225339,-0.3402278,1.374798,-0.2508537,-0.0903401,1.432454,0.2231392,-0.05266637,1.311805,NA,NA,NotTracked,Closed,
0.9106445,-0.3842773,0.1430664,-0.8588867,-0.1723633,0.4008789,-1,0,5,-2,0,0,-1,1,12,9,9,9,20,-7,6,2,3.875,3.875,3.875,121.4375,121.4375,121.4375,3.07076,3.199921,2.137838,6.49419,6.556349,3.766604,-0.2384045,-0.4185593,1.309275,0.1774602,0.246476,1.187109,-0.02096221,0.4429852,1.393052,-0.2775555,-0.4395596,1.312636,0.1839,0.2317076,1.138182,-0.03001793,-0.02403796,1.422191,-0.03715384,-0.3533005,1.412127,-0.2047944,0.1695432,1.407284,-0.1223799,-0.3406695,1.374669,-0.251029,-0.09077932,1.432437,0.2232433,-0.05367678,1.312528,NA,NA,NotTracked,Closed,
0.8999023,-0.3881836,0.1586914,-0.6772461,1.532227,0.184082,-4,-2,6,2,-3,-3,-5,-9,-10,49,14,2,19,2,-7,-23,-0.75,-0.75,-0.75,24.3125,24.3125,24.3125,3.07677,3.214456,2.133428,6.910966,6.516378,3.739512,-0.2382172,-0.4178419,1.305583,0.177191,0.248927,1.191487,-0.0209308,0.4429804,1.393041,-0.2813063,-0.4293163,1.305442,0.2046613,0.1905288,1.167923,-0.03012192,-0.02417861,1.422241,-0.0370752,-0.3535253,1.412159,-0.2048248,0.1694382,1.40774,-0.1222551,-0.340885,1.374587,-0.2513313,-0.09120318,1.432136,0.2222398,-0.0548901,1.313615,NA,NA,NotTracked,Unknown,
0.8935547,-0.3955078,0.1679688,-0.9282227,-0.2802734,0.4213867,0,-3,-1,2,1,1,7,15,-7,-11,-4,8,-64,-9,-7,-19,-3,-3,-3,-236.625,-236.625,-236.625,3.078871,3.222954,2.129398,6.546695,6.489583,3.847342,-0.2403923,-0.4174284,1.301263,0.1701608,0.2430389,1.186122,-0.02082147,0.4430151,1.393266,-0.2815173,-0.4420492,1.306679,0.172376,0.2387173,1.125857,-0.0302167,-0.02431515,1.422326,-0.03699804,-0.353629,1.412178,-0.2049009,0.1694976,1.407615,-0.122146,-0.3410074,1.374491,-0.2513536,-0.09201332,1.431949,0.2213528,-0.05591623,1.315138,NA,NA,NotTracked,Closed,
0.9165039,-0.3657227,0.1391602,-0.8642578,0.5488281,0.1933594,-6,-9,-6,-10,-5,-2,-3,-8,5,2,8,7,9,1,8,18,7.5625,7.5625,7.5625,223.5,223.5,223.5,3.087044,3.234281,2.130533,6.659975,6.522568,3.754268,-0.2407579,-0.4165731,1.298953,0.1724745,0.2430463,1.187084,-0.02063956,0.4431381,1.393848,-0.2796946,-0.4394835,1.307266,0.1825057,0.2195851,1.138062,-0.0299648,-0.02432457,1.422316,-0.03689492,-0.3537776,1.412257,-0.2048444,0.1695635,1.408046,-0.1220202,-0.3411286,1.374454,-0.2514675,-0.09246586,1.431819,0.2209662,-0.05640309,1.31579,NA,NA,NotTracked,Unknown,
0.8964844,-0.409668,0.1464844,-0.8149414,0.7617188,0.2392578,-3,3,17,-9,-1,-2,-8,-8,-5,-5,-3,0,6,-2,-2,-20,-2.3125,-2.3125,-2.3125,-79.375,-79.375,-79.375,3.083341,3.236777,2.133639,6.757852,6.493099,3.785234,-0.2409724,-0.4159953,1.298473,0.1724214,0.243004,1.187935,-0.0204688,0.4431469,1.394368,-0.2797046,-0.4436645,1.307841,0.1952144,0.1996391,1.155231,-0.03010266,-0.02443856,1.422552,-0.03680319,-0.3538873,1.412352,-0.205087,0.1696829,1.407647,-0.121917,-0.3412362,1.374454,-0.251603,-0.0927825,1.432011,0.2197399,-0.0576788,1.31779,NA,NA,NotTracked,Unknown,
0.8916016,-0.4033203,0.1679688,-0.8432617,0.2563477,0.3242188,-7,-9,-91,-7,-2,-1,-4,-1,-5,-4,1,4,22,-1,-2,-1,-1.5625,-1.5625,-1.5625,-2.875,-2.875,-2.875,3.084446,3.233644,2.128602,6.656928,6.493155,3.7955,-0.2407564,-0.4155651,1.301504,0.1712806,0.2406078,1.186935,-0.02030259,0.4433248,1.395177,-0.2794111,-0.4432449,1.308516,0.1840608,0.2253946,1.134045,-0.03019862,-0.02462288,1.422896,-0.03675903,-0.353962,1.41249,-0.2044347,0.1698223,1.409291,-0.1218859,-0.3412656,1.374488,-0.2515859,-0.09278378,1.43208,0.2190738,-0.05880616,1.320561,NA,NA,NotTracked,Unknown,
0.9057617,-0.4023438,0.1625977,-0.7939453,0.5942383,0.2626953,-3,-4,13,-2,-4,0,-1,-4,0,-3,-1,-2,3,-2,0,-9,-1.0625,-1.0625,-1.0625,-4.375,-4.375,-4.375,3.081819,3.226043,2.132265,6.71393,6.460097,3.788125,-0.2397221,-0.4154532,1.304126,0.1705528,0.2363861,1.187742,-0.02032089,0.4432545,1.395655,-0.2794391,-0.4393066,1.30838,0.1832697,0.2314832,1.124034,-0.03041759,-0.02471192,1.423225,-0.03673678,-0.3539985,1.412681,-0.2047875,0.1700211,1.408792,-0.1218768,-0.341291,1.374612,-0.2515503,-0.09275219,1.432385,0.2179734,-0.06008467,1.323697,NA,NA,NotTracked,Unknown,
0.9008789,-0.4116211,0.1616211,-0.7451172,0.4433594,0.2416992,0,-3,-7,-2,-3,-2,-1,2,14,5,2,-1,-2,-2,-1,-4,1.625,1.625,1.625,5.6875,5.6875,5.6875,3.081184,3.219764,2.133615,6.687458,6.413872,3.766447,-0.2394748,-0.4160379,1.307173,0.1729139,0.2314611,1.183477,-0.02041107,0.4433289,1.396151,-0.2803744,-0.4251164,1.307652,0.1897938,0.2135622,1.127595,-0.0298898,-0.02444645,1.423233,-0.03667057,-0.3540585,1.413012,-0.2045168,0.1700072,1.410639,-0.1218058,-0.3413359,1.374828,-0.2514644,-0.09239611,1.433482,0.2174519,-0.06135067,1.327549,NA,NA,NotTracked,Unknown,
