ALX,ALY,ALZ,ARX,ARY,ARZ,EMG0L,EMG1L,EMG2L,EMG3L,EMG4L,EMG5L,EMG6L,EMG7L,EMG0R,EMG1R,EMG2R,EMG3R,EMG4R,EMG5R,EMG6R,EMG7R,GLX,GLY,GLZ,GRX,GRY,GRZ,ORL,OPL,OYL,ORR,OPR,OYR,LHNX,LHNY,LHNZ,RHNX,RHNY,RHNZ,HX,HY,HZ,LTX,LTY,LTZ,RTX,RTY,RTZ,SpineMidX,SpineMidY,SpineMidZ,SpineBaseX,SpineBaseY,SpineBaseZ,ShoulderLeftX,ShoulderLeftY,ShoulderLeftZ,ShoulderRightX,ShoulderRightY,ShoulderRightZ,ElbowLeftX,ElbowLeftY,ElbowLeftZ,ElbowRightX,ElbowRightY,ElbowRightZ,Myo_Pose_left,Myo_Pose_Right,Kinect_pose_left,Kinect_pose_right
-0.4316406,-0.7504883,0.5141602,-0.6015625,0.6069336,0.5883789,-3,4,-7,1,1,-1,0,-5,-1,-5,-1,0,-2,-2,-4,-5,-1.3125,-1.3125,-1.3125,-0.25,-0.25,-0.25,3.358057,5.751439,7.938354,6.302051,6.014448,7.727865,0.0257607,0.1107912,1.225839,0.0873041,0.1191201,1.121299,0.04163587,0.4523023,1.472876,0.0747374,0.0993465,1.197837,0.1165911,0.1328891,1.09054,0.01789291,-0.02384673,1.47438,0.01659458,-0.3581327,1.46303,-0.1484336,0.1796792,1.447409,-0.06668231,-0.3467053,1.431993,-0.1867316,-0.0468842,1.354736,0.2046466,-0.05973459,1.356785,NA,NA,NotTracked,NotTracked,
-0.4746094,-0.769043,0.480957,-0.605957,0.6108398,0.5800781,-3,9,37,3,-8,-4,5,2,5,8,0,0,-1,-1,1,12,3.0625,3.0625,3.0625,3.375,3.375,3.375,3.371883,5.752067,7.952031,6.303005,6.011599,7.723026,0.0258757,0.1067029,1.225322,0.08761805,0.1189537,1.122071,0.04148557,0.452215,1.472867,0.07414342,0.1012258,1.195357,0.1168322,0.1327416,1.091256,0.01796964,-0.02384028,1.474309,0.01685272,-0.3580219,1.462761,-0.1485629,0.1796466,1.447392,-0.06639266,-0.3466238,1.431652,-0.1880739,-0.04742575,1.356818,0.2049502,-0.05989464,1.357569,NA,NA,NotTracked,NotTracked,
-0.4560547,-0.7685547,0.5097656,-0.5976563,0.6049805,0.5947266,5,-7,-30,-5,-5,-3,-2,2,14,11,2,-1,0,-1,-1,-1,4.5625,4.5625,4.5625,0.5625,0.5625,0.5625,3.382866,5.757335,7.952003,6.299888,6.010064,7.716013,0.02376874,0.1059338,1.225462,0.08765624,0.1188739,1.122489,0.04132349,0.4520197,1.472797,0.07328387,0.1012112,1.195035,0.1168587,0.1326881,1.091537,0.01834683,-0.02327141,1.474236,0.01713574,-0.3579383,1.462361,-0.1487299,0.1796315,1.447362,-0.06605886,-0.3465158,1.430992,-0.1884405,-0.04769223,1.35764,0.204978,-0.05989752,1.358027,NA,NA,NotTracked,NotTracked,
-0.4511719,-0.7719727,0.5014648,-0.5883789,0.6137695,0.5947266,0,5,-5,-6,-2,1,-6,-4,-5,1,0,-2,-2,-2,-4,-8,2.8125,2.8125,2.8125,5.5625,5.5625,5.5625,3.386818,5.76183,7.947102,6.299859,6.012004,7.704614,0.02469522,0.1067056,1.226525,0.08785613,0.1187233,1.123099,0.04093777,0.4515273,1.472748,0.0727219,0.1003086,1.196101,0.1170219,0.1325523,1.092158,0.01833767,-0.02333951,1.47417,0.01720356,-0.3579379,1.462238,-0.1489238,0.1795839,1.44735,-0.0660285,-0.3465301,1.430918,-0.1880569,-0.04798228,1.358041,0.2051691,-0.06010869,1.35862,NA,NA,NotTracked,NotTracked,
-0.4448242,-0.7548828,0.4882813,-0.5869141,0.6108398,0.5786133,0,-2,2,-8,-5,-3,-5,0,-1,-3,-6,-2,-2,2,-1,-4,1.5625,1.5625,1.5625,3.625,3.625,3.625,3.391418,5.763153,7.942632,6.304076,6.010591,7.701005,0.02365799,0.1067056,1.226859,0.06351046,0.1111686,1.164289,0.04067573,0.4513867,1.472848,0.03370633,0.07948085,1.221231,0.09372336,0.1247682,1.135475,0.01832793,-0.02334672,1.474129,0.01729262,-0.3578951,1.462107,-0.1490656,0.179516,1.447306,-0.06593902,-0.3465073,1.430798,-0.1880572,-0.04815485,1.358237,0.2052268,-0.06010451,1.359042,NA,NA,NotTracked,NotTracked,
-0.4599609,-0.753418,0.4731445,-0.6123047,0.612793,0.5795898,-3,0,-3,0,3,11,-5,-4,5,-5,-4,-4,-1,1,0,-1,-1.4375,-1.4375,-1.4375,6.75,6.75,6.75,3.39266,5.760338,7.940679,6.309208,6.008769,7.698411,0.02480363,0.1072722,1.225659,0.06333309,0.1115376,1.163918,0.04043119,0.4511032,1.47294,0.07242426,0.1020777,1.195998,0.09370801,0.1247911,1.135455,0.01833341,-0.0233564,1.474045,0.01752677,-0.3577599,1.461779,-0.1492083,0.1794817,1.447246,-0.06568033,-0.3464378,1.430353,-0.1879902,-0.04805751,1.357673,0.2051486,-0.05971486,1.359078,NA,NA,NotTracked,NotTracked,
-0.4921875,-0.7773438,0.4477539,-0.7133789,0.7231445,0.4882813,3,0,0,-2,-8,-13,3,3,16,-7,-4,-1,-2,-1,-2,7,-12.5,-12.5,-12.5,23.875,23.875,23.875,3.382979,5.757572,7.958475,6.34456,6.024049,7.689983,0.02300593,0.1068508,1.223601,0.06330518,0.1114032,1.163914,0.04010919,0.450802,1.473394,0.0713595,0.1021854,1.195421,0.09370826,0.1247818,1.135457,0.01827965,-0.02335837,1.47401,0.01753894,-0.3576734,1.461666,-0.1494251,0.1793863,1.447225,-0.06564014,-0.3463525,1.430185,-0.1879263,-0.04810223,1.357356,0.2051683,-0.0596146,1.359285,NA,NA,NotTracked,NotTracked,
-0.4892578,-0.7329102,0.3530273,-0.8305664,0.734375,0.5170898,-2,-4,-2,-1,0,3,-1,-2,-5,-6,0,1,0,0,-1,-6,-36.1875,-36.1875,-36.1875,71.6875,71.6875,71.6875,3.361255,5.755803,8.020577,6.40823,6.098824,7.626797,0.01829379,0.1013503,1.207926,0.08256598,0.1179539,1.195503,0.03961527,0.4507838,1.474019,0.06925157,0.09064653,1.1817,0.1066448,0.1274974,1.173727,0.01815975,-0.02331138,1.473967,0.01753771,-0.3576277,1.461653,-0.1495851,0.1793279,1.44725,-0.06564112,-0.3463286,1.430236,-0.1880011,-0.04831507,1.357799,0.2056881,-0.05847468,1.359296,NA,NA,NotTracked,NotTracked,
-0.440918,-0.7753906,0.328125,-0.78125,0.4785156,0.4482422,-3,1,5,19,1,-2,-3,-1,11,4,3,3,-11,-30,10,29,-49.6875,-49.6875,-49.6875,134.625,134.625,134.625,3.311306,5.697209,8.122957,6.544737,6.222155,7.543361,0.04996831,0.1060324,1.173423,0.09297262,0.1987077,1.190094,0.03869908,0.4512546,1.475316,0.0592181,0.06599429,1.150571,0.1168575,0.2066955,1.16854,0.01775524,-0.02339368,1.473858,0.01746126,-0.3577363,1.461752,-0.1497356,0.1799898,1.448874,-0.06585237,-0.346541,1.430657,-0.1880585,-0.04662693,1.356389,0.2079369,-0.05574983,1.356035,NA,NA,NotTracked,NotTracked,
-0.2211914,-0.7573242,0.3969727,-0.6381836,0.5141602,0.2832031,3,-1,0,-17,4,4,3,6,-4,1,0,-1,-1,5,-6,-22,-113.1875,-113.1875,-113.1875,162.25,162.25,162.25,3.193837,5.499771,8.279388,6.912179,6.266057,7.560049,0.02770366,0.04889742,1.142105,0.02606191,0.05828719,1.138659,0.03760046,0.4507595,1.477593,0.03464973,0.02303535,1.109964,0.06075933,0.0838998,1.1088,0.0173299,-0.02448232,1.474109,0.01725418,-0.3584055,1.462221,-0.1495849,0.1795663,1.448827,-0.06617362,-0.3473968,1.43156,-0.1955662,-0.04332011,1.350271,0.2126938,-0.05138231,1.350127,NA,NA,NotTracked,NotTracked,
-0.09765625,-0.9018555,0.4150391,-0.5058594,0.6787109,0.2368164,2,-1,4,-4,-9,-11,-9,-14,-12,-8,-3,-1,-7,-2,-5,-17,-105.1875,-105.1875,-105.1875,59.8125,59.8125,59.8125,3.02255,5.317524,8.330515,7.118835,6.135107,7.618282,0.03628715,0.004889481,1.117384,0.01914679,0.002425244,1.122313,0.03714892,0.4495416,1.479715,0.02596799,-0.01872266,1.083667,-0.03485334,-0.002026034,1.1305,0.01722466,-0.02478409,1.475065,0.01704265,-0.3577034,1.463159,-0.1481276,0.179203,1.450671,-0.06614241,-0.3468408,1.43248,-0.1989205,-0.04189203,1.350333,0.2209249,-0.04180433,1.331199,NA,NA,NotTracked,NotTracked,
0.07324219,-1.130371,0.387207,-0.3955078,0.6264648,0.2075195,4,2,0,-18,-20,-21,10,1,15,22,9,1,-3,7,22,31,-105.6875,-105.6875,-105.6875,-9.0625,-9.0625,-9.0625,2.83619,5.16407,8.321905,7.161036,5.894644,7.655076,0.03384103,-0.0323508,1.1218,0.01437733,-0.03082569,1.128084,0.03730281,0.4485013,1.482389,0.00825391,-0.04724292,1.09244,0.05213279,-0.04732476,1.07264,0.0177404,-0.02465093,1.47692,0.01788942,-0.356014,1.465033,-0.1474179,0.1774063,1.450973,-0.06483846,-0.3456854,1.432818,-0.208003,-0.04022988,1.348461,0.2226056,-0.03628628,1.324053,NA,NA,NotTracked,NotTracked,
-0.02783203,-1.074219,0.2807617,-0.1582031,0.7885742,0.3242188,0,-6,-6,-8,0,-1,17,5,15,7,-1,2,6,12,-11,11,4.8125,4.8125,4.8125,24.5,24.5,24.5,2.784642,5.035231,8.273881,7.185648,5.645543,7.679179,0.02076319,-0.04515739,1.133522,0.02000087,-0.05616805,1.139595,0.03688261,0.4486316,1.484306,0.05210838,-0.06685212,1.094208,0.05890277,-0.07573761,1.088679,0.018624,-0.02251943,1.478894,0.02014504,-0.3482259,1.468064,-0.1473124,0.1771392,1.450727,-0.06135843,-0.3386754,1.432148,-0.2126024,-0.04146425,1.354164,0.2226569,-0.03663289,1.326339,NA,NA,NotTracked,NotTracked,
0.006347656,-1.050293,0.1767578,-0.08251953,1.094238,0.2626953,-2,-5,-16,3,-16,-23,-2,-5,18,-16,-5,-1,13,-13,12,-33,-29.5625,-29.5625,-29.5625,-14.25,-14.25,-14.25,2.763834,4.936574,8.22684,7.234515,5.341871,7.731289,0.02440277,-0.04398139,1.110927,0.04492083,-0.03049368,1.117415,0.03620147,0.4486295,1.485634,0.01098335,0.009469318,1.108179,0.08349758,-0.08497542,1.104889,0.0191601,-0.02096434,1.48019,0.02078144,-0.3446871,1.469595,-0.1461278,0.1774941,1.452628,-0.06017779,-0.3352864,1.432513,-0.2142864,-0.04078573,1.357596,0.230772,-0.04423107,1.341479,NA,NA,NotTracked,NotTracked,
0.03662109,-1.151855,0.1928711,-0.1230469,1.014648,0.3129883,-4,9,12,13,4,3,33,6,18,11,6,-23,4,-6,26,28,49,49,49,-0.75,-0.75,-0.75,2.81032,4.912557,8.269956,7.218019,5.155041,7.788952,0.01490993,-0.06841066,1.132343,0.04461517,-0.06179855,1.134196,0.03525911,0.4485233,1.486118,0.03987047,-0.02723729,1.138067,0.07857645,-0.09674773,1.098542,0.01954292,-0.01957298,1.483575,0.02085041,-0.3445536,1.469761,-0.1460237,0.177217,1.453234,-0.06008003,-0.3351628,1.432547,-0.2156545,-0.04217699,1.362594,0.2586334,-0.04179007,1.353323,NA,NA,NotTracked,NotTracked,
0.07470703,-0.4946289,0.046875,-0.2817383,0.9985352,0.06738281,-2,2,-11,4,19,30,21,2,18,-6,0,3,-3,-11,-2,12,79.625,79.625,79.625,-134.75,-134.75,-134.75,2.906337,4.845433,8.261001,7.152774,5.103182,7.761944,0.02143411,-0.08246885,1.138826,0.04373117,-0.07977808,1.140832,0.03412881,0.4484192,1.486141,0.05773595,-0.04063908,1.140875,0.08076774,-0.1202809,1.109191,0.01966261,-0.01931829,1.485128,0.02093742,-0.3446797,1.46994,-0.1465404,0.1768807,1.452955,-0.05993897,-0.3352965,1.432734,-0.2166547,-0.04425069,1.367952,0.2598967,-0.04515604,1.361349,NA,NA,NotTracked,NotTracked,
-0.01806641,-1.381836,0.2314453,-0.05322266,1.035645,0.1855469,3,-2,7,-10,3,7,64,13,-9,-6,-2,-8,-7,0,4,2,30.1875,30.1875,30.1875,15.4375,15.4375,15.4375,2.850717,4.863011,8.275994,7.124843,5.111401,7.753212,0.02333478,-0.08586211,1.139864,0.0408956,-0.07987757,1.144305,0.03282117,0.4485551,1.486297,0.05645787,-0.04268512,1.147087,0.08329966,-0.1176953,1.1146,0.01974169,-0.01915107,1.485862,0.02098958,-0.3447193,1.470039,-0.1467205,0.1760731,1.454665,-0.05985923,-0.335337,1.432891,-0.2383536,-0.04166528,1.352232,0.259255,-0.04822615,1.366117,NA,NA,NotTracked,NotTracked,
0.1152344,-0.9916992,0.1948242,-0.06787109,1.037598,0.1884766,-3,-2,-9,-3,3,-4,-4,2,3,2,-2,-9,-5,4,-14,26,22.1875,22.1875,22.1875,-6.25,-6.25,-6.25,2.904235,4.884434,8.286227,7.152859,5.140893,7.752851,0.02541398,-0.08372913,1.137948,0.0419205,-0.07858948,1.14109,0.03173592,0.4484695,1.486133,0.05866747,-0.04098996,1.141607,0.08443926,-0.1158027,1.111273,0.01973414,-0.01905128,1.486765,0.02115497,-0.3447971,1.4703,-0.1468485,0.1756756,1.455832,-0.05966638,-0.3354124,1.433194,-0.240703,-0.04444104,1.355495,0.2582889,-0.04977646,1.368423,NA,NA,NotTracked,NotTracked,
0.0703125,-0.9746094,0.2539063,-0.109375,0.9174805,0.2636719,6,-11,-5,-2,3,5,-19,0,-3,11,2,-5,-1,-5,7,-66,0.75,0.75,0.75,10.9375,10.9375,10.9375,2.897672,4.914929,8.29573,7.15363,5.158122,7.757432,0.02739251,-0.08029781,1.135338,0.03622983,-0.07547859,1.138477,0.0309345,0.448423,1.486361,0.05748636,-0.0385741,1.141434,0.08405428,-0.1131674,1.111751,0.01967704,-0.01899724,1.487567,0.02128343,-0.34487,1.470544,-0.1470054,0.1750462,1.458293,-0.0595385,-0.3355274,1.433469,-0.2402952,-0.04660048,1.353385,0.2575703,-0.04959513,1.370671,NA,NA,NotTracked,NotTracked,
0.08642578,-0.9248047,0.2578125,-0.06054688,0.925293,0.2470703,-4,-1,-2,13,3,3,-14,-5,-3,-5,-1,-6,-2,5,-6,28,1.125,1.125,1.125,5.5,5.5,5.5,2.906052,4.922915,8.300814,7.164031,5.163125,7.761118,0.02668224,-0.0790707,1.134012,0.03632822,-0.07395186,1.136555,0.02983889,0.4483968,1.486685,0.06021421,-0.03747245,1.139314,0.08502676,-0.110083,1.110067,0.0196315,-0.01893025,1.488103,0.02132643,-0.3449154,1.470699,-0.1475188,0.1748033,1.458055,-0.05946026,-0.3356142,1.433736,-0.241217,-0.04691646,1.353701,0.2573796,-0.04960427,1.370823,NA,NA,NotTracked,NotTracked,
0.08837891,-0.9326172,0.2758789,-0.09277344,0.9443359,0.2070313,-2,1,8,15,1,1,-9,1,-8,-3,0,-1,0,1,7,-6,2.75,2.75,2.75,5,5,5,2.910103,4.917465,8.306297,7.172077,5.156038,7.769246,0.02578267,-0.08096164,1.133914,0.0379898,-0.07307068,1.137711,0.02923309,0.4482429,1.486994,0.05800425,-0.03535028,1.137222,0.08242711,-0.1111104,1.110323,0.01963339,-0.0188824,1.488569,0.02144005,-0.3449327,1.47089,-0.1479014,0.174343,1.459697,-0.05929469,-0.33568,1.434021,-0.2401857,-0.04736236,1.352377,0.2573253,-0.05044906,1.371059,NA,NA,NotTracked,NotTracked,
0.078125,-0.9550781,0.2451172,-0.06738281,0.9072266,0.1923828,-3,4,-9,6,-1,0,1,-2,4,-1,-1,-4,-3,-4,-9,-3,4.3125,4.3125,4.3125,-11.5625,-11.5625,-11.5625,2.923366,4.893001,8.321568,7.164658,5.133386,7.768615,0.02088438,-0.0857814,1.134825,0.03706457,-0.0788709,1.13766,0.02870657,0.4481261,1.487318,0.05638611,-0.03965748,1.135404,0.08180209,-0.113411,1.111306,0.01948422,-0.01891326,1.489035,0.02147795,-0.345035,1.471116,-0.1483605,0.1743607,1.45824,-0.05922993,-0.3358048,1.434291,-0.2409706,-0.04755934,1.354783,0.257232,-0.05084966,1.370797,NA,NA,NotTracked,NotTracked,
0.1108398,-0.8774414,0.2158203,-0.05566406,0.7368164,0.1928711,-1,3,3,0,-1,0,-1,-2,16,-5,-1,-1,-2,-1,-5,1,10.1875,10.1875,10.1875,-49.25,-49.25,-49.25,2.929349,4.852435,8.353938,7.081273,5.00493,7.71885,0.01410083,-0.0973423,1.130698,0.02750524,-0.09449968,1.13236,0.02837392,0.4481355,1.487411,0.07488437,-0.06238523,1.1345,0.06680661,-0.1336774,1.111667,0.01936957,-0.01896316,1.489389,0.02139955,-0.3453053,1.471456,-0.1485999,0.1743526,1.457283,-0.05930469,-0.3361458,1.434824,-0.2409382,-0.04892686,1.354043,0.2591171,-0.04978368,1.372576,NA,NA,NotTracked,NotTracked,
0.1655273,-0.7695313,0.2675781,0.1669922,0.6665039,0.2700195,-8,-3,-3,-6,0,0,1,-2,4,1,0,-1,-2,-1,-1,0,4,4,4,-50.4375,-50.4375,-50.4375,2.937084,4.751102,8.409081,6.998834,4.787645,7.636541,0.00944564,-0.1368444,1.120534,0.02263785,-0.1321364,1.122193,0.02807893,0.4480789,1.487335,0.06079917,-0.09428229,1.120867,0.04891612,-0.176281,1.110381,0.01903401,-0.01915229,1.489871,0.02100032,-0.3461,1.472308,-0.1489251,0.1730779,1.459863,-0.05962026,-0.3369744,1.435998,-0.2367757,-0.05231778,1.352304,0.2414425,-0.05204196,1.353216,NA,NA,NotTracked,NotTracked,
0.2558594,-0.7612305,0.2939453,0.5297852,0.6918945,0.2851563,2,15,-1,-8,-3,-1,1,2,-1,-1,1,1,-1,-2,-1,-2,46.6875,46.6875,46.6875,-97.4375,-97.4375,-97.4375,2.962412,4.555747,8.50165,6.89192,4.384287,7.459913,0.009475595,-0.2079976,1.120898,0.03896529,-0.2002853,1.118092,0.02776632,0.448009,1.48686,0.06189402,-0.1594069,1.104722,0.07312257,-0.2117266,1.096143,0.01902471,-0.0195196,1.490983,0.02144603,-0.3477551,1.475662,-0.1498463,0.1724126,1.461701,-0.05869616,-0.338656,1.43939,-0.2214873,-0.07441848,1.357435,0.2456241,-0.05940451,1.361852,NA,NA,NotTracked,NotTracked,
0.6787109,-0.6806641,0.2236328,0.9824219,0.5834961,0.2675781,1,3,4,-3,-1,-1,-2,0,5,1,0,-1,-1,1,5,7,100,100,100,-12.3125,-12.3125,-12.3125,3.06949,4.171155,8.716167,6.848732,3.926564,7.277337,-0.05875691,-0.2902434,1.165855,0.09873541,-0.2741448,1.139402,0.02726994,0.4477772,1.485636,-0.03407736,-0.2658247,1.163618,0.1079709,-0.3042189,1.115462,0.01900094,-0.01992727,1.49041,0.02170817,-0.34903,1.473494,-0.1517325,0.1718667,1.463435,-0.06022819,-0.3405383,1.436826,-0.2193306,-0.07908178,1.36611,0.2408977,-0.06166438,1.381038,NA,NA,NotTracked,NotTracked,
0.8222656,-0.8364258,0.222168,0.9501953,0.7202148,0.2353516,1,-2,-2,0,-2,0,-2,-3,-2,-3,1,0,-1,-1,-1,-7,34.625,34.625,34.625,0.25,0.25,0.25,3.03634,3.873418,8.888637,6.949508,3.635965,7.152932,-0.1098229,-0.3613017,1.223197,0.1478364,-0.3303819,1.193409,0.02659705,0.4473785,1.483433,-0.08047444,-0.392104,1.289,0.1642738,-0.3469652,1.160647,0.01829226,-0.02067807,1.488299,0.02039885,-0.3508776,1.4688,-0.1552839,0.1696305,1.465156,-0.06350004,-0.3434068,1.432249,-0.1982721,-0.06794654,1.429469,0.2127214,-0.07165708,1.421339,NA,NA,Unknown,Unknown,
1.032227,-0.5922852,0.1884766,1.046875,0.5444336,0.2358398,-2,-3,-1,-2,0,-2,-3,0,7,1,-1,0,0,1,0,-1,103.0625,103.0625,103.0625,-55.875,-55.875,-55.875,3.03376,3.571993,9.096872,7.025548,3.403649,6.977007,-0.1586122,-0.4005542,1.278811,0.1815341,-0.3838112,1.248087,0.02565434,0.4473426,1.478724,-0.1349506,-0.4065097,1.3075,0.155314,-0.3692825,1.22084,0.01764786,-0.02116669,1.487435,0.01972437,-0.3514938,1.469144,-0.1585763,0.1680233,1.465684,-0.06416937,-0.3437147,1.432753,-0.1974628,-0.07396926,1.439075,0.2139312,-0.08932988,1.431775,NA,NA,Unknown,Unknown,
1.024902,-0.5444336,0.1464844,1.013672,0.4296875,0.1728516,-3,-1,-1,0,-2,-1,0,-1,0,-2,-1,-2,-1,-1,-3,-3,45.0625,45.0625,45.0625,-55.1875,-55.1875,-55.1875,2.874347,3.261157,9.440758,7.077288,3.185673,6.753026,-0.192925,-0.4284501,1.333747,0.2123016,-0.4059864,1.308638,0.02455454,0.4472076,1.472565,-0.2310515,-0.4217721,1.340286,0.1856871,-0.3975813,1.280393,0.0171225,-0.02157806,1.486681,0.01891387,-0.3524693,1.470396,-0.1595476,0.1679935,1.465372,-0.06479109,-0.3441421,1.433974,-0.2033729,-0.08578224,1.453139,0.2206155,-0.100648,1.447091,NA,NA,Unknown,Unknown,
1.003906,-0.4599609,0.1264648,0.9394531,0.496582,0.1806641,-2,-1,-1,-2,0,-1,-1,0,-8,0,-1,-1,0,0,-2,-3,53.1875,53.1875,53.1875,-52.8125,-52.8125,-52.8125,2.755536,3.128489,9.668654,7.151813,3.088082,6.577896,-0.2151499,-0.4348434,1.380002,0.2337898,-0.4237302,1.357019,0.02363063,0.4466865,1.465546,-0.2560667,-0.4412657,1.374616,0.1740326,-0.3735048,1.38775,0.01677565,-0.02206167,1.485474,0.01893463,-0.3533751,1.471838,-0.1605935,0.1680243,1.464928,-0.06462227,-0.344623,1.435192,-0.2120944,-0.09550186,1.469849,0.2309231,-0.1097922,1.470162,NA,NA,NotTracked,Unknown,
0.9384766,-0.4472656,0.2158203,0.9042969,0.3979492,0.2060547,-1,1,-2,-1,0,1,-1,-1,-6,0,-2,-1,-1,-2,-4,-3,38.9375,38.9375,38.9375,-33.4375,-33.4375,-33.4375,2.700278,3.043718,9.838741,7.20775,3.016903,6.43509,-0.2236094,-0.4312637,1.412195,0.2382068,-0.428603,1.403557,0.02293021,0.446573,1.458267,-0.269172,-0.434903,1.399818,0.1822187,-0.4301839,1.392937,0.01620931,-0.0224515,1.483379,0.01894084,-0.3535751,1.472396,-0.1614678,0.1683535,1.464599,-0.06454365,-0.3446951,1.435747,-0.2179167,-0.09792196,1.483978,0.2381838,-0.1126482,1.491751,NA,NA,NotTracked,NotTracked,
0.8955078,-0.4238281,0.190918,0.9101563,0.3500977,0.1762695,-3,-1,-1,0,-1,0,-1,-1,-7,0,-2,-2,-1,-2,-4,-4,35.3125,35.3125,35.3125,3.4375,3.4375,3.4375,2.725566,3.013319,9.881989,7.276355,2.955774,6.346454,-0.226194,-0.4261528,1.430329,0.2448783,-0.4322097,1.431083,0.02258021,0.4458869,1.45014,-0.2692937,-0.4185128,1.4251,0.2049137,-0.4452896,1.384286,0.01594868,-0.0228451,1.480922,0.01896234,-0.3536675,1.472637,-0.1620661,0.1690245,1.463646,-0.06447921,-0.3446988,1.43616,-0.2224601,-0.1011046,1.495226,0.2418303,-0.1129974,1.506154,NA,NA,NotTracked,NotTracked,
0.890625,-0.390625,0.1484375,0.9272461,0.3452148,0.1083984,-1,-2,-1,-1,0,0,-1,-2,-4,2,0,0,-1,0,1,1,31.5625,31.5625,31.5625,-2.1875,-2.1875,-2.1875,2.784772,3.002535,9.883592,7.284486,2.913934,6.342833,-0.2252844,-0.4243864,1.439261,0.2488275,-0.4280848,1.450013,0.02251512,0.444857,1.443505,-0.2652921,-0.3984731,1.445727,0.2156605,-0.4416283,1.378625,0.015908,-0.02317214,1.479203,0.01902438,-0.3537272,1.47301,-0.1623356,0.1696325,1.462862,-0.06439483,-0.344663,1.436629,-0.2239021,-0.1016447,1.503191,0.2440777,-0.1152047,1.517604,NA,NA,NotTracked,NotTracked,
0.90625,-0.3867188,0.1337891,0.934082,0.3378906,0.05175781,0,-1,0,-1,-1,-1,0,-2,-9,-1,0,-3,-2,0,2,2,10.8125,10.8125,10.8125,-18.3125,-18.3125,-18.3125,2.885798,3.013005,9.819132,7.21226,2.923464,6.395466,-0.2192304,-0.422199,1.439728,0.246955,-0.4266046,1.458191,0.0227525,0.443478,1.439018,-0.2555823,-0.4141194,1.438765,0.2008503,-0.4351134,1.4025,0.0157256,-0.02348188,1.478151,0.01879722,-0.3538049,1.473662,-0.1624369,0.1700868,1.461847,-0.064658,-0.3446191,1.437314,-0.2237743,-0.1016539,1.5078,0.2446864,-0.1155484,1.525535,NA,NA,NotTracked,NotTracked,
0.9267578,-0.3662109,0.09765625,0.9228516,0.3056641,0.02148438,-2,-4,0,0,-1,-1,0,-1,11,1,-1,1,0,-3,-6,4,8.4375,8.4375,8.4375,-7.3125,-7.3125,-7.3125,2.970014,3.040023,9.746962,7.116682,2.967947,6.472452,-0.2112498,-0.4205811,1.431133,0.2422411,-0.4218553,1.453422,0.02306347,0.442578,1.435601,-0.2513297,-0.4233148,1.419444,0.1952985,-0.4233345,1.416095,0.01558837,-0.02381341,1.477359,0.01871635,-0.3539863,1.474422,-0.1622052,0.1704085,1.460279,-0.06477708,-0.3446598,1.438258,-0.2228479,-0.1012709,1.509337,0.2445637,-0.1149083,1.52945,NA,NA,NotTracked,NotTracked,
0.9541016,-0.3476563,0.07714844,0.9023438,0.3354492,0.06445313,-2,-1,-2,-2,0,0,-3,-2,4,1,1,0,-1,-3,-4,1,0.5,0.5,0.5,8,8,8,3.074118,3.093505,9.642945,7.048368,3.052903,6.561039,-0.2003545,-0.4153008,1.419537,0.2381871,-0.4161609,1.44162,0.02361218,0.4417804,1.432621,-0.2407103,-0.4238956,1.39638,0.1916066,-0.4231739,1.411423,0.01557824,-0.02399181,1.477018,0.0184516,-0.3541079,1.475664,-0.1619378,0.1705675,1.459117,-0.06506038,-0.3446238,1.439367,-0.2216864,-0.1001792,1.509296,0.2443191,-0.1136975,1.531614,NA,NA,NotTracked,NotTracked,
0.9365234,-0.3369141,0.08154297,0.8823242,0.3095703,0.06884766,-3,-3,-2,0,0,0,-1,-2,-3,0,0,0,-2,-1,-1,0,-6.125,-6.125,-6.125,-4.8125,-4.8125,-4.8125,3.137942,3.141878,9.565615,7.032555,3.103766,6.579588,-0.1924376,-0.4084395,1.406035,0.2362746,-0.4125476,1.430371,0.02412983,0.4412774,1.431393,-0.2340353,-0.412333,1.383658,0.1878767,-0.4041187,1.409977,0.0155153,-0.02407897,1.476876,0.01826007,-0.3540307,1.476627,-0.1617644,0.1707278,1.458257,-0.06522498,-0.3444571,1.439979,-0.220032,-0.09870389,1.508483,0.2443524,-0.1125438,1.532459,NA,NA,NotTracked,NotTracked,
0.9350586,-0.3291016,0.1147461,0.9082031,0.2724609,0.06982422,0,-2,-2,-2,-2,-2,-1,-2,-1,-2,0,0,-1,-1,-2,-3,-10.25,-10.25,-10.25,-10.125,-10.125,-10.125,3.179566,3.191453,9.501111,7.024189,3.131679,6.57199,-0.1860289,-0.4053182,1.391858,0.2369308,-0.4112589,1.419302,0.02471573,0.4410954,1.430525,-0.2289079,-0.3989452,1.37415,0.1844161,-0.3974637,1.406938,0.01554533,-0.02418783,1.476684,0.01822999,-0.3540742,1.47713,-0.160155,0.1713534,1.455209,-0.06530581,-0.3443891,1.440471,-0.218071,-0.09548246,1.506684,0.2444012,-0.1116521,1.5319,NA,NA,NotTracked,NotTracked,
0.9121094,-0.3491211,0.1401367,0.9248047,0.2744141,0.07128906,0,-1,-2,-1,-1,-1,-2,-1,0,-1,0,-1,-1,0,-3,-1,-2.75,-2.75,-2.75,-4.3125,-4.3125,-4.3125,3.198009,3.231899,9.467774,7.031761,3.138548,6.550917,-0.1833638,-0.4031781,1.381019,0.2396429,-0.4109,1.412534,0.02520619,0.4408628,1.42996,-0.2242011,-0.4008608,1.35275,0.2037068,-0.4331901,1.434538,0.01560783,-0.02423282,1.476547,0.01832835,-0.3539797,1.477487,-0.1600264,0.1713431,1.454879,-0.06525058,-0.3442368,1.440688,-0.2171215,-0.09407949,1.505185,0.2445697,-0.1113157,1.530942,NA,NA,NotTracked,NotTracked,
0.8911133,-0.3374023,0.1435547,0.918457,0.2939453,0.08300781,-2,0,0,0,-2,-3,-3,-3,1,1,-2,-1,-1,0,-2,2,4.625,4.625,4.625,-2.625,-2.625,-2.625,3.203732,3.253864,9.470156,7.033095,3.129142,6.543708,-0.1843545,-0.4039845,1.376086,0.2431421,-0.4116369,1.409164,0.02559398,0.440749,1.429795,-0.2045017,-0.3958757,1.32855,0.1940232,-0.4135587,1.419655,0.01566052,-0.02429724,1.476379,0.01830153,-0.354,1.477614,-0.1590277,0.1716691,1.453249,-0.06528755,-0.3442041,1.440733,-0.2158764,-0.09221362,1.50321,0.2447511,-0.1106425,1.529608,NA,NA,NotTracked,NotTracked,
0.8989258,-0.3574219,0.1416016,0.9174805,0.3046875,0.08935547,-2,-2,-2,-1,-1,0,0,0,0,0,-1,-1,-3,-2,-4,0,1.1875,1.1875,1.1875,0.625,0.625,0.625,3.180017,3.241969,9.499185,7.032012,3.109996,6.54501,-0.1869429,-0.4070775,1.375175,0.2427095,-0.4128032,1.409029,0.02600666,0.4406903,1.429649,-0.2344079,-0.4139678,1.365714,0.2025141,-0.4304779,1.429061,0.01574639,-0.0242958,1.476178,0.01830081,-0.3539932,1.477613,-0.1583125,0.1720956,1.452111,-0.06530119,-0.3441303,1.440723,-0.2154186,-0.09123684,1.501538,0.2449918,-0.1105937,1.528493,NA,NA,NotTracked,NotTracked,
0.9189453,-0.3564453,0.137207,0.9213867,0.3212891,0.0859375,-3,0,11,0,0,-1,-1,1,0,0,-1,-1,1,-3,1,-1,-0.0625,-0.0625,-0.0625,-2.4375,-2.4375,-2.4375,3.142372,3.212492,9.54127,7.030287,3.080693,6.544847,-0.1890969,-0.4090192,1.382105,0.2414344,-0.4131929,1.412671,0.02638434,0.4406663,1.429639,-0.2330482,-0.4082662,1.362549,0.1868048,-0.4140747,1.403962,0.01588161,-0.02432718,1.476058,0.01831119,-0.3539951,1.477648,-0.1583876,0.172108,1.452203,-0.06528857,-0.3441058,1.440755,-0.2152764,-0.09131904,1.501124,0.2448155,-0.110593,1.527782,NA,NA,NotTracked,NotTracked,
0.9467773,-0.3779297,0.1352539,0.9311523,0.3261719,0.08154297,-3,1,8,-5,-2,-1,-2,-1,1,1,-1,-1,-2,0,-1,2,-14.5625,-14.5625,-14.5625,-0.3125,-0.3125,-0.3125,3.051652,3.165207,9.625154,7.034468,3.061928,6.538409,-0.1910685,-0.4109052,1.389992,0.2388111,-0.4146088,1.416445,0.02690504,0.440689,1.429732,-0.2393985,-0.4082769,1.37992,0.1855077,-0.401906,1.403059,0.01599491,-0.02437912,1.47586,0.01831229,-0.3540031,1.477632,-0.1583579,0.1720529,1.452205,-0.06528133,-0.3440851,1.44068,-0.2152252,-0.09229111,1.500695,0.2445637,-0.1110018,1.527179,NA,NA,NotTracked,NotTracked,
0.934082,-0.3544922,0.1386719,0.9296875,0.3193359,0.07568359,-1,-2,0,8,1,1,1,-1,1,-3,-2,-2,-2,-1,0,-2,-4.0625,-4.0625,-4.0625,-1.1875,-1.1875,-1.1875,3.003886,3.130059,9.664283,7.038309,3.049801,6.534507,-0.1920454,-0.4111933,1.397607,0.236893,-0.4163486,1.418607,0.02759888,0.4406594,1.429755,-0.238923,-0.4086188,1.380913,0.1843327,-0.3997462,1.401735,0.01611919,-0.02436938,1.475652,0.0183317,-0.3539718,1.477581,-0.1582779,0.1720982,1.452209,-0.06525826,-0.3439688,1.440524,-0.2152091,-0.09250514,1.500568,0.244263,-0.1120022,1.526309,NA,NA,NotTracked,NotTracked,
0.9165039,-0.3764648,0.1430664,0.9355469,0.3222656,0.08544922,-2,-2,-1,0,0,-1,0,-1,0,0,-2,-1,0,1,-1,0,-6.1875,-6.1875,-6.1875,-0.75,-0.75,-0.75,2.989539,3.11441,9.668273,7.034898,3.050559,6.537695,-0.1935043,-0.4106564,1.402868,0.2351137,-0.4166371,1.419452,0.02811214,0.4406641,1.429897,-0.2398871,-0.4066725,1.388214,0.184086,-0.430036,1.397786,0.01616939,-0.02436706,1.475487,0.01832538,-0.3539553,1.477542,-0.1583003,0.1721087,1.45224,-0.06526478,-0.3438753,1.440392,-0.2153154,-0.09259492,1.500632,0.2441539,-0.1122157,1.526193,NA,NA,NotTracked,NotTracked,
