ALX,ALY,ALZ,ARX,ARY,ARZ,EMG0L,EMG1L,EMG2L,EMG3L,EMG4L,EMG5L,EMG6L,EMG7L,EMG0R,EMG1R,EMG2R,EMG3R,EMG4R,EMG5R,EMG6R,EMG7R,GLX,GLY,GLZ,GRX,GRY,GRZ,ORL,OPL,OYL,ORR,OPR,OYR,LHNX,LHNY,LHNZ,RHNX,RHNY,RHNZ,HX,HY,HZ,LTX,LTY,LTZ,RTX,RTY,RTZ,SpineMidX,SpineMidY,SpineMidZ,SpineBaseX,SpineBaseY,SpineBaseZ,ShoulderLeftX,ShoulderLeftY,ShoulderLeftZ,ShoulderRightX,ShoulderRightY,ShoulderRightZ,ElbowLeftX,ElbowLeftY,ElbowLeftZ,ElbowRightX,ElbowRightY,ElbowRightZ,Myo_Pose_left,Myo_Pose_Right,Kinect_pose_left,Kinect_pose_right
0.9223633,-0.3369141,0.1367188,0.9008789,0.3334961,0.1098633,-1,0,-2,0,1,-3,-2,-2,4,-1,-2,0,-1,0,2,6,-1,-1,-1,0.4375,0.4375,0.4375,3.090093,3.113629,2.337745,6.954699,3.111562,0.6638984,-0.158585,-0.4090369,1.289289,0.2428961,-0.39564,1.303619,0.04925689,0.4364697,1.332072,-0.1116649,-0.4009842,1.272846,0.2859719,-0.3888197,1.30175,0.03422664,-0.01629581,1.372657,0.03537621,-0.3356083,1.369561,-0.1407283,0.1669003,1.360058,-0.03970806,-0.3269029,1.336901,-0.1864173,-0.09917135,1.395052,0.2570797,-0.1070924,1.424569,NA,NA,NotTracked,NotTracked,
0.925293,-0.3378906,0.1391602,0.9125977,0.3466797,0.1118164,0,-1,0,-1,-3,-1,0,-1,6,0,1,0,9,-16,-3,-2,-2.6875,-2.6875,-2.6875,1.5,1.5,1.5,3.088151,3.113369,2.338106,6.956437,3.11308,0.6674252,-0.1595719,-0.4088263,1.290614,0.2422002,-0.3953876,1.304375,0.04934767,0.4364846,1.332042,-0.1133003,-0.3929686,1.279333,0.2850889,-0.404873,1.29153,0.03430848,-0.01626357,1.372683,0.03543279,-0.3355843,1.369585,-0.1407217,0.1670224,1.359849,-0.03964384,-0.3268713,1.33692,-0.1864271,-0.09927063,1.394911,0.2570777,-0.1070853,1.424566,NA,NA,NotTracked,NotTracked,
0.9243164,-0.3359375,0.1293945,0.9072266,0.3554688,0.1025391,0,-3,-1,0,0,-1,-2,0,5,-2,-2,-2,-2,1,-3,2,0.875,0.875,0.875,3.5625,3.5625,3.5625,3.087156,3.111995,2.337853,6.966095,3.112021,0.6648849,-0.1595178,-0.4092977,1.290219,0.2419589,-0.3944895,1.303252,0.04946901,0.4363951,1.331895,-0.1107457,-0.4098392,1.267925,0.2456363,-0.3854237,1.254607,0.03433613,-0.01625905,1.372682,0.03545485,-0.3355848,1.369584,-0.1406978,0.167025,1.359743,-0.03960792,-0.326864,1.336909,-0.1864612,-0.09930956,1.394842,0.2570606,-0.1071125,1.424561,NA,NA,NotTracked,NotTracked,
0.9248047,-0.3422852,0.1459961,0.9121094,0.3417969,0.1147461,0,-1,0,-2,0,-3,-2,-2,-3,-2,0,-2,1,2,-2,-5,-1.875,-1.875,-1.875,2,2,2,3.087052,3.111107,2.336037,6.970439,3.110759,0.6631077,-0.1594909,-0.4097338,1.290482,0.2419043,-0.3948704,1.304306,0.0494791,0.4363766,1.331849,-0.1135524,-0.3906506,1.279691,0.2874416,-0.4132884,1.296125,0.03436318,-0.01625956,1.372688,0.03552161,-0.3355852,1.369607,-0.1407318,0.1669688,1.359695,-0.03954522,-0.3268654,1.336914,-0.1864529,-0.09938221,1.394804,0.2570114,-0.107101,1.424582,NA,NA,NotTracked,NotTracked,
0.9345703,-0.3364258,0.140625,0.909668,0.347168,0.1137695,0,-2,1,0,0,0,-2,1,-5,-3,0,-2,-2,-13,-3,1,1.5,1.5,1.5,0.0625,0.0625,0.0625,3.08853,3.109988,2.336164,6.978349,3.109181,0.6570958,-0.1597012,-0.4092868,1.290935,0.2421528,-0.3952249,1.304085,0.04954695,0.4363681,1.331721,-0.1131494,-0.3908014,1.278911,0.2497636,-0.3872146,1.255119,0.0343678,-0.01625953,1.372694,0.03552544,-0.3355841,1.369609,-0.1407298,0.1670076,1.359637,-0.03953843,-0.3268619,1.336915,-0.1864656,-0.09937658,1.394806,0.2569425,-0.1071559,1.424562,NA,NA,NotTracked,NotTracked,
0.9316406,-0.3413086,0.1376953,0.9072266,0.340332,0.1181641,-1,-3,-1,0,-2,0,-1,1,-9,1,1,-1,-1,-13,-4,-1,-0.5625,-0.5625,-0.5625,0.75,0.75,0.75,3.088702,3.109871,2.336169,6.980049,3.107942,0.6554323,-0.1596158,-0.4096136,1.290778,0.2423258,-0.3948202,1.305155,0.04954494,0.4363612,1.331671,-0.1114369,-0.4016439,1.271769,0.2477362,-0.3867131,1.254192,0.03439819,-0.01626123,1.372708,0.03554089,-0.3355683,1.369638,-0.1407567,0.1669978,1.359578,-0.03951904,-0.3268464,1.336927,-0.1864998,-0.099303,1.394878,0.2569296,-0.1071346,1.424607,NA,NA,NotTracked,NotTracked,
0.925293,-0.3432617,0.1455078,0.9389648,0.3671875,0.1206055,0,-1,1,0,-1,0,-11,9,4,1,-2,0,0,-1,-6,-4,-0.125,-0.125,-0.125,-0.0625,-0.0625,-0.0625,3.088702,3.109871,2.336169,6.975565,3.109895,0.6614949,-0.1592231,-0.4106228,1.290361,0.2421424,-0.3944466,1.305243,0.04955717,0.4363708,1.331655,-0.1112865,-0.4031318,1.271298,0.2820311,-0.4188756,1.2895,0.03440425,-0.01625981,1.372713,0.03554418,-0.3355708,1.369635,-0.1407417,0.1669767,1.35953,-0.03951324,-0.3268486,1.336912,-0.1865425,-0.09923732,1.394993,0.2568957,-0.1071206,1.424693,NA,NA,NotTracked,NotTracked,
0.9814453,-0.3828125,0.1591797,0.9868164,0.4331055,0.1254883,1,2,2,1,2,5,6,12,-1,-2,2,-1,1,-4,-1,3,-5.125,-5.125,-5.125,-10.1875,-10.1875,-10.1875,3.109098,3.122753,2.309586,6.914813,3.137346,0.716671,-0.1575617,-0.4099292,1.285626,0.240339,-0.3920206,1.305366,0.04955463,0.4363506,1.33163,-0.1111562,-0.4038527,1.271134,0.2458264,-0.3844941,1.251413,0.03448689,-0.01627753,1.372622,0.03555233,-0.3355614,1.369577,-0.1407502,0.1670009,1.359484,-0.03950718,-0.3268239,1.336877,-0.1866346,-0.09894938,1.395242,0.2568674,-0.1068973,1.425008,NA,NA,NotTracked,NotTracked,
1.009766,-0.4589844,0.1791992,0.8881836,0.6625977,0.3232422,5,-9,-7,0,-2,6,28,11,-9,0,-3,0,3,4,0,3,3.125,3.125,3.125,-5.6875,-5.6875,-5.6875,3.200521,3.194126,2.213057,6.748526,3.319427,0.8771022,-0.1496281,-0.3957396,1.262152,0.2327761,-0.3859275,1.292447,0.0495894,0.4363905,1.331641,-0.115968,-0.3983392,1.279007,0.2422234,-0.36486,1.231035,0.03459799,-0.01620414,1.372509,0.03577004,-0.3354922,1.369427,-0.1407899,0.1670664,1.359446,-0.03930795,-0.3267649,1.336737,-0.1867392,-0.09764754,1.395913,0.2569059,-0.1054887,1.425997,NA,NA,NotTracked,NotTracked,
0.9116211,-0.7231445,0.4282227,0.8061523,0.7211914,0.4174805,-3,-7,-2,-3,3,-6,-19,-7,2,-9,-16,-8,-5,-2,3,0,16.8125,16.8125,16.8125,-46.375,-46.375,-46.375,3.319177,3.362227,2.08156,6.612834,3.552898,0.9751356,-0.1482072,-0.3520859,1.210555,0.2257489,-0.3682636,1.249696,0.04968094,0.4364251,1.331608,-0.1297693,-0.343251,1.2815,0.2448638,-0.31874,1.201607,0.03500491,-0.01610052,1.37226,0.03654568,-0.3352668,1.369091,-0.1407098,0.1670812,1.35947,-0.0386821,-0.3266866,1.336416,-0.1872522,-0.09305202,1.397589,0.2578027,-0.09977478,1.427564,NA,NA,NotTracked,NotTracked,
0.8320313,-0.7080078,0.4980469,0.6469727,0.6503906,0.484375,-3,-3,0,-5,-4,-5,-9,-10,-6,-2,-9,-4,-3,0,-1,-5,97.625,97.625,97.625,-44.1875,-44.1875,-44.1875,3.538122,3.603429,1.966431,6.43821,3.945147,1.047298,-0.1325127,-0.3050188,1.175404,0.2192616,-0.3116772,1.190072,0.04997896,0.4365177,1.331591,-0.1052204,-0.3166699,1.186895,0.2395163,-0.2949366,1.132545,0.03545002,-0.01596471,1.372083,0.03751185,-0.3349696,1.368422,-0.1403284,0.1673767,1.359517,-0.03798037,-0.3266154,1.335696,-0.1870313,-0.08547232,1.397533,0.2590008,-0.08946442,1.423194,NA,NA,NotTracked,Open,
0.5341797,-0.5107422,0.5546875,0.4726563,0.6132813,0.4316406,-12,-21,-9,4,3,6,-3,-4,-1,-2,-2,-2,-5,-7,-5,-5,45.125,45.125,45.125,-46.4375,-46.4375,-46.4375,3.838317,4.100736,1.889988,6.37417,4.247478,1.029702,-0.1304176,-0.2322625,1.127604,0.2259776,-0.2292211,1.137064,0.05042676,0.4364958,1.331687,-0.09086627,-0.2530653,1.1216,0.2531337,-0.1883144,1.102381,0.03556556,-0.01591735,1.372069,0.03772756,-0.3347635,1.368083,-0.1399092,0.167542,1.359765,-0.03779294,-0.3264779,1.335246,-0.1863908,-0.06562059,1.392678,0.2558442,-0.07499337,1.416043,NA,NA,Unknown,Unknown,
0.440918,-0.5375977,0.5385742,0.4355469,0.5473633,0.3896484,0,1,0,-3,0,1,-2,0,4,-4,-2,-6,-11,-26,-17,-10,12.9375,12.9375,12.9375,-24.125,-24.125,-24.125,3.852044,4.374454,1.924722,6.343728,4.469005,0.9738154,-0.1443811,-0.1658347,1.086368,0.2464695,-0.1594053,1.105743,0.05115099,0.4363964,1.331973,-0.1114592,-0.1722386,1.0959,0.2710423,-0.1338453,1.06953,0.03580264,-0.0156607,1.372545,0.03759631,-0.3343826,1.368272,-0.1387608,0.1684597,1.360234,-0.03788116,-0.3260798,1.335352,-0.1853108,-0.05852744,1.386569,0.2512542,-0.06529339,1.405816,NA,NA,Unknown,Unknown,
0.4941406,-0.4868164,0.5405273,0.4228516,0.5249023,0.3745117,-1,-18,-15,0,-2,-2,3,2,2,-2,-4,-7,-2,6,3,12,11.375,11.375,11.375,-11.75,-11.75,-11.75,3.85624,4.532402,1.972935,6.346146,4.552382,0.903922,-0.158073,-0.1322541,1.051359,0.2670133,-0.1291004,1.08577,0.05238804,0.4366859,1.333045,-0.1086447,-0.1423082,1.009,0.2926222,-0.1002894,1.067857,0.0361189,-0.01543016,1.373399,0.03729047,-0.3340362,1.368756,-0.1380448,0.1691308,1.360638,-0.03817428,-0.3256609,1.335805,-0.1950216,-0.06254131,1.368196,0.2564886,-0.08564316,1.373065,NA,NA,Unknown,Unknown,
0.46875,-0.4287109,0.581543,0.4506836,0.4604492,0.6210938,-5,-25,18,-4,-3,-2,0,-4,-14,-7,-2,3,1,6,-1,0,0.1875,0.1875,0.1875,-2.3125,-2.3125,-2.3125,3.854375,4.576852,2.01671,6.333677,4.491639,0.8405951,-0.1718705,-0.1269107,1.049692,0.2893843,-0.1310117,1.088644,0.05365114,0.4370158,1.334295,-0.1184988,-0.1323381,1.024143,0.3163095,-0.1036162,1.069895,0.03642271,-0.01524367,1.373969,0.0370498,-0.3338685,1.368978,-0.137035,0.1700493,1.361354,-0.03846084,-0.3253878,1.336048,-0.1970261,-0.06296374,1.368719,0.2577081,-0.0848511,1.386535,NA,NA,Unknown,Unknown,
0.3642578,-0.4291992,0.7070313,0.46875,0.6333008,0.9047852,11,9,8,4,2,1,-1,0,-21,-6,12,-5,-3,8,4,14,23,23,23,-20.75,-20.75,-20.75,3.88432,4.544558,2.035863,6.289974,4.394008,0.8595269,-0.1772549,-0.1402449,1.061956,0.2994236,-0.1519535,1.103611,0.05471201,0.4373625,1.335355,-0.1317291,-0.1462882,1.043643,0.3307574,-0.1280514,1.076375,0.03666848,-0.01515799,1.374181,0.03694909,-0.3338316,1.369027,-0.1361196,0.1704371,1.361703,-0.03858884,-0.3252909,1.336143,-0.199984,-0.0619879,1.370019,0.2600778,-0.08181517,1.399847,NA,NA,Unknown,Unknown,
0.2314453,-0.5546875,0.8432617,0.2207031,0.7695313,0.940918,-3,-3,-4,2,5,6,2,3,11,-4,-5,-7,-4,-9,-2,4,5.9375,5.9375,5.9375,-4.5,-4.5,-4.5,3.94231,4.48019,2.019888,6.21709,4.370741,0.9587643,-0.1696448,-0.1518058,1.078403,0.2830071,-0.1685842,1.112343,0.05570884,0.437717,1.336303,-0.1188123,-0.1600225,1.034778,0.3160151,-0.1455329,1.0839,0.03702149,-0.01500482,1.374335,0.03689139,-0.3337418,1.36901,-0.1355554,0.1706854,1.36222,-0.03867346,-0.3251113,1.336181,-0.2030196,-0.06116289,1.372251,0.2611204,-0.07015743,1.40334,NA,NA,Unknown,Unknown,
0.1689453,-0.7202148,0.9370117,0.06298828,0.8681641,0.7451172,-1,1,-4,-4,-3,-5,0,6,-24,10,2,0,-3,-1,-1,-7,2.125,2.125,2.125,14.8125,14.8125,14.8125,3.96503,4.495801,1.959733,6.179084,4.534738,1.11087,-0.1544957,-0.1464645,1.077362,0.2559818,-0.1542078,1.114607,0.05696213,0.4380075,1.336927,-0.1842363,-0.1304108,1.053445,0.2841107,-0.1308605,1.078632,0.03744311,-0.01483058,1.374355,0.03684868,-0.3335969,1.368876,-0.1346963,0.1709185,1.362608,-0.03870475,-0.3248743,1.336096,-0.203584,-0.06052939,1.372707,0.2587638,-0.06310721,1.40123,NA,NA,Unknown,Unknown,
0.1855469,-0.7851563,0.8447266,0.1655273,0.9008789,0.659668,0,-7,-5,-4,-6,-10,3,17,5,-6,-4,-3,-4,-2,-3,-3,-18.3125,-18.3125,-18.3125,9.9375,9.9375,9.9375,3.958109,4.574065,1.896767,6.218369,4.712335,1.152583,-0.1361078,-0.1230688,1.051349,0.2409616,-0.1181359,1.092686,0.05833378,0.4381776,1.337536,-0.1658175,-0.1078233,1.03595,0.2608087,-0.0962726,1.05475,0.03800061,-0.01473495,1.374528,0.0368421,-0.3335439,1.368806,-0.1337374,0.1710412,1.362737,-0.03869709,-0.3247692,1.336034,-0.2032892,-0.06059527,1.370253,0.2543977,-0.05624912,1.392512,NA,NA,Unknown,Unknown,
0.222168,-0.7558594,0.769043,0.2954102,0.7470703,0.5786133,3,4,-1,-1,0,3,1,-6,-17,4,0,0,-1,-1,0,-2,-15.25,-15.25,-15.25,12.1875,12.1875,12.1875,3.92743,4.687204,1.861665,6.252523,4.853917,1.12055,-0.1268265,-0.09197797,1.020037,0.2274202,-0.08118133,1.039009,0.06003314,0.4382832,1.338355,-0.1648118,-0.07896581,1.014154,0.264602,-0.05792438,1.014,0.03861424,-0.01480806,1.37484,0.03686937,-0.3335837,1.368759,-0.1324816,0.17094,1.362874,-0.03867576,-0.3247691,1.335998,-0.2022362,-0.05897628,1.327437,0.2551682,-0.07812177,1.314544,NA,NA,Unknown,Unknown,
0.2382813,-0.5737305,0.5908203,0.277832,0.5366211,0.4790039,1,1,-2,1,-1,-1,3,-3,0,-4,0,1,5,-14,2,5,-16.0625,-16.0625,-16.0625,29.8125,29.8125,29.8125,3.859751,4.832313,1.909964,6.31743,4.907052,1.014614,-0.136084,-0.07003756,1.005436,0.242331,-0.05786614,1.014516,0.06142454,0.4383048,1.339371,-0.1757466,-0.05023773,0.9887,0.286304,-0.02962731,1.0056,0.03919967,-0.0149021,1.375227,0.03687667,-0.3336037,1.368752,-0.131334,0.1711584,1.363058,-0.03867071,-0.324766,1.336,-0.2020105,-0.03582478,1.351701,0.2523892,-0.1065345,1.303962,NA,NA,Unknown,Unknown,
0.2382813,-0.5039063,0.5732422,0.3964844,0.4829102,0.4833984,1,6,3,-3,-1,2,2,0,15,1,1,2,-4,9,2,-10,-23.25,-23.25,-23.25,6.3125,6.3125,6.3125,3.814878,4.822824,1.980352,6.352291,4.802248,0.9248987,-0.1563957,-0.07779001,1.000319,0.2759241,-0.0661257,1.013139,0.06250791,0.4385136,1.340838,-0.1944712,-0.05379342,0.9847143,0.3107328,-0.03685576,1.005333,0.03966639,-0.01486937,1.37558,0.03688822,-0.333621,1.368658,-0.1306925,0.1714632,1.36341,-0.03866285,-0.3247556,1.335979,-0.1987744,-0.03646581,1.345094,0.2575353,-0.09032645,1.323954,NA,NA,Unknown,Unknown,
0.394043,-0.4956055,0.6279297,0.581543,0.590332,0.7729492,12,-14,-20,-11,-1,-2,-1,2,17,-1,-13,9,5,-9,-9,6,-1.4375,-1.4375,-1.4375,-4.9375,-4.9375,-4.9375,3.794971,4.703249,2.052937,6.338404,4.606685,0.8920487,-0.1832043,-0.1136433,1.01101,0.2970468,-0.1046207,1.051834,0.06272652,0.4390561,1.341926,-0.2122846,-0.09808935,0.9847779,0.3288057,-0.07631982,1.046059,0.03986086,-0.01482763,1.375635,0.03679049,-0.3337362,1.368104,-0.1304423,0.1716413,1.363637,-0.03872764,-0.3247944,1.335765,-0.200802,-0.04992984,1.344944,0.2631805,-0.09229103,1.361646,NA,NA,Unknown,Unknown,
0.4428711,-0.6967773,0.9155273,0.07958984,0.8735352,0.9619141,-4,-5,3,14,5,-2,-9,-14,2,-11,-8,-5,-7,-11,3,3,-25.5625,-25.5625,-25.5625,-7.5625,-7.5625,-7.5625,3.789732,4.474323,2.042982,6.266994,4.402803,1.002448,-0.1828386,-0.1547282,1.05614,0.2885467,-0.1459402,1.090402,0.06257031,0.4396108,1.343243,-0.2129932,-0.1384086,1.024191,0.3188072,-0.1210095,1.063,0.03997879,-0.01474468,1.375518,0.03660615,-0.3338505,1.366988,-0.1303934,0.1716319,1.363815,-0.03884596,-0.3248111,1.335344,-0.2115429,-0.0574437,1.352104,0.2648763,-0.08403383,1.394739,NA,NA,Open,Unknown,
0.09423828,-0.7236328,0.9169922,-0.1079102,0.8676758,0.8432617,-4,-1,1,4,2,6,-1,2,-3,6,0,-4,-6,-4,7,4,6,6,6,9.6875,9.6875,9.6875,3.824182,4.408248,1.973225,6.225996,4.426702,1.131138,-0.1707506,-0.1679664,1.073949,0.2557031,-0.163045,1.107528,0.06224133,0.4400919,1.343855,-0.2035495,-0.1470507,1.045542,0.2866004,-0.1377722,1.068778,0.04005033,-0.01447202,1.374785,0.03652684,-0.3336491,1.36528,-0.1304307,0.1715869,1.363812,-0.03894702,-0.3246738,1.334302,-0.2181516,-0.05637787,1.357946,0.2626316,-0.06920883,1.394481,NA,NA,Unknown,Unknown,
0.1083984,-0.8071289,0.793457,0.144043,0.8798828,0.6860352,-2,-1,2,-2,-1,1,0,-1,-5,-2,1,-1,5,9,-2,-4,10.0625,10.0625,10.0625,4.6875,4.6875,4.6875,3.83973,4.452803,1.9577,6.24179,4.505585,1.176085,-0.1672414,-0.1590646,1.069625,0.2365865,-0.1533811,1.10855,0.06193651,0.4404977,1.344162,-0.1996267,-0.1421484,1.043962,0.2649634,-0.1255413,1.073235,0.04023585,-0.01416537,1.374072,0.0364611,-0.3335032,1.364164,-0.1305524,0.1715861,1.363738,-0.03900912,-0.3245443,1.333335,-0.2194624,-0.05613047,1.359742,0.2596342,-0.06402095,1.392419,NA,NA,Unknown,Unknown,
0.3574219,-0.6484375,0.7006836,0.4331055,0.699707,0.5400391,-3,8,-3,-6,-6,-2,1,1,10,-3,-3,-4,3,-3,1,-3,11.8125,11.8125,11.8125,4.125,4.125,4.125,3.852242,4.505229,1.96983,6.272377,4.5698,1.159148,-0.1654194,-0.1486563,1.055576,0.2331446,-0.1380383,1.096192,0.0615263,0.4407432,1.34438,-0.1940238,-0.1365463,1.029852,0.2551959,-0.1094307,1.068059,0.04030424,-0.01399322,1.373732,0.03652461,-0.3333941,1.363646,-0.1307209,0.1716545,1.363461,-0.0389108,-0.3243958,1.332679,-0.2161849,-0.05777206,1.361251,0.2558094,-0.05928402,1.386671,NA,NA,Unknown,Unknown,
0.3793945,-0.5883789,0.6259766,0.3959961,0.6152344,0.559082,0,10,3,-1,-8,-9,-1,2,-4,3,2,-12,-8,4,7,-4,12.5,12.5,12.5,-1.875,-1.875,-1.875,3.862545,4.523607,1.981038,6.279071,4.556657,1.142557,-0.165713,-0.1458629,1.050825,0.2320118,-0.1312119,1.078714,0.06070387,0.4410718,1.344712,-0.1966589,-0.1294683,1.034897,0.2568403,-0.1056503,1.049526,0.04012987,-0.01374525,1.373366,0.03645072,-0.3332456,1.363083,-0.1312233,0.1716596,1.362805,-0.03897727,-0.3242289,1.332016,-0.2137336,-0.05848175,1.361889,0.2573526,-0.06851981,1.368731,NA,NA,Unknown,Unknown,
0.3349609,-0.6083984,0.7192383,0.3652344,0.6474609,0.6787109,-8,-7,2,2,0,-3,-2,2,-6,3,-3,-7,-4,-27,1,9,7.5,7.5,7.5,-4.4375,-4.4375,-4.4375,3.882619,4.511209,1.972293,6.275875,4.522148,1.135517,-0.1637766,-0.1513768,1.054152,0.2363759,-0.1368124,1.080689,0.05888486,0.4417379,1.345577,-0.198089,-0.1372945,1.034396,0.2617877,-0.1115848,1.050217,0.03981912,-0.01345714,1.373083,0.03641411,-0.333141,1.362686,-0.1321242,0.1714795,1.362435,-0.03900929,-0.3241576,1.331579,-0.2123292,-0.05955148,1.361919,0.2581425,-0.07015172,1.37034,NA,NA,Unknown,Unknown,
0.3100586,-0.6035156,0.7783203,0.3027344,0.6850586,0.7304688,-1,-24,3,2,1,-2,0,3,-6,-8,-3,3,6,-6,-2,1,10.875,10.875,10.875,0.4375,0.4375,0.4375,3.90829,4.497008,1.966535,6.269829,4.49158,1.129361,-0.1624952,-0.1550585,1.058909,0.2382447,-0.1458047,1.084319,0.05709718,0.4422662,1.346065,-0.1933946,-0.1419007,1.037714,0.2673625,-0.1195832,1.059708,0.03917592,-0.01310919,1.372706,0.03628034,-0.3329646,1.362173,-0.1328852,0.171239,1.362159,-0.03911875,-0.3240879,1.331141,-0.2109524,-0.06112682,1.362302,0.2590544,-0.0716821,1.370343,NA,NA,Unknown,Open,
0.3056641,-0.6367188,0.7763672,0.2963867,0.6713867,0.7089844,5,7,-2,-3,-2,-2,3,4,22,-7,-6,-3,-2,0,-6,9,11.6875,11.6875,11.6875,-1,-1,-1,3.930396,4.493298,1.969418,6.255463,4.474992,1.122846,-0.1617562,-0.1565273,1.058343,0.2389639,-0.1496776,1.087162,0.05575103,0.4422606,1.345999,-0.1945042,-0.1441798,1.037374,0.270503,-0.125696,1.051056,0.03860791,-0.0129688,1.372277,0.03604482,-0.3329,1.361657,-0.1341518,0.1709081,1.36187,-0.03936062,-0.324115,1.330609,-0.2095874,-0.06200211,1.363102,0.2595109,-0.07290594,1.373752,NA,NA,Unknown,Unknown,
0.2915039,-0.6191406,0.765625,0.2983398,0.6894531,0.65625,6,15,0,-1,-2,-1,6,1,8,1,3,-3,-1,-3,0,-1,1.1875,1.1875,1.1875,-5.25,-5.25,-5.25,3.935832,4.499706,1.97157,6.254798,4.475769,1.119902,-0.1605877,-0.156225,1.057089,0.2395316,-0.1502372,1.090542,0.05433106,0.4424819,1.34594,-0.1945034,-0.1412582,1.03509,0.2689134,-0.1252088,1.055863,0.03805524,-0.01290825,1.371841,0.0358132,-0.3328621,1.361226,-0.1347042,0.1707071,1.361558,-0.03959969,-0.3241083,1.330114,-0.2094842,-0.06212185,1.363215,0.2540804,-0.06677005,1.376907,NA,NA,Unknown,Unknown,
0.3222656,-0.5625,0.7456055,0.3237305,0.6728516,0.6396484,1,21,14,4,0,-2,-3,-5,0,3,-2,0,-1,0,1,3,1.4375,1.4375,1.4375,-2.9375,-2.9375,-2.9375,3.939663,4.496515,1.971433,6.250743,4.467754,1.118455,-0.1604175,-0.1578802,1.057977,0.2388898,-0.1526866,1.091427,0.0533412,0.4425701,1.345858,-0.1916845,-0.142101,1.039646,0.2674752,-0.128583,1.055166,0.03747537,-0.01279167,1.371527,0.03564134,-0.3328006,1.361053,-0.1352871,0.1706841,1.361296,-0.03973055,-0.3240908,1.329949,-0.2085815,-0.06383604,1.363017,0.2516055,-0.06280076,1.377765,NA,NA,Unknown,Unknown,
0.3496094,-0.5512695,0.7353516,0.3422852,0.6108398,0.6240234,-1,0,1,-3,-1,-2,-3,0,-4,1,0,0,2,-1,1,-2,0.9375,0.9375,0.9375,-7.75,-7.75,-7.75,3.941655,4.480036,1.977323,6.237077,4.427201,1.110691,-0.1617387,-0.160515,1.059488,0.2395426,-0.158358,1.089892,0.05262128,0.4425156,1.345554,-0.1941114,-0.1464087,1.036695,0.2716356,-0.1379961,1.05125,0.03704378,-0.01275514,1.371214,0.03537147,-0.3327355,1.360802,-0.1358348,0.1706463,1.361075,-0.03998063,-0.3240505,1.329666,-0.2083748,-0.06497174,1.362665,0.2505355,-0.06199067,1.377968,NA,NA,Open,Unknown,
0.3535156,-0.5073242,0.6860352,0.3544922,0.5361328,0.5537109,1,0,-1,-2,-1,2,-3,-1,-1,-1,1,0,-1,-1,-1,-4,-1.8125,-1.8125,-1.8125,10.375,10.375,10.375,3.943779,4.439544,1.984638,6.249883,4.351783,1.085295,-0.1610857,-0.1724988,1.066451,0.2428311,-0.1739528,1.093745,0.05213938,0.4424183,1.345029,-0.1947767,-0.1593041,1.039688,0.2746946,-0.1543366,1.053625,0.03666896,-0.01276542,1.370941,0.03526638,-0.3327347,1.360665,-0.1361356,0.1704663,1.360792,-0.04009248,-0.3240655,1.329464,-0.2078851,-0.06623786,1.362495,0.249731,-0.06160691,1.378825,NA,NA,Open,Unknown,
0.3452148,-0.4951172,0.6015625,0.4868164,0.5390625,0.4765625,-1,-2,-4,-1,1,-1,-1,-14,0,1,1,-1,-2,-2,-1,-2,-33.375,-33.375,-33.375,46.0625,46.0625,46.0625,3.899688,4.352082,1.998099,6.353566,4.149197,1.020382,-0.1577772,-0.2029731,1.084204,0.2441173,-0.2076663,1.109864,0.05158481,0.4421436,1.343867,-0.1887723,-0.1788756,1.052692,0.2772078,-0.1809385,1.070412,0.03654289,-0.01286665,1.370713,0.03524559,-0.332769,1.360546,-0.1366927,0.1700446,1.360458,-0.04009603,-0.3241339,1.329305,-0.1992586,-0.06172911,1.368177,0.2492979,-0.06184578,1.380909,NA,NA,Unknown,Unknown,
0.5371094,-0.4702148,0.5419922,0.6884766,0.5678711,0.4389648,-1,-1,-1,1,0,2,2,-2,0,-3,1,0,-1,0,1,1,-102.4375,-102.4375,-102.4375,89.875,89.875,89.875,3.736896,4.132105,2.031163,6.511716,3.941357,0.9588804,-0.1553462,-0.2554135,1.112879,0.2458567,-0.2697428,1.147212,0.05112963,0.4418951,1.342533,-0.1776761,-0.2206316,1.071533,0.2702981,-0.2241557,1.11013,0.03651302,-0.01301627,1.370468,0.03538803,-0.3328789,1.36044,-0.1370107,0.1698825,1.360387,-0.03993474,-0.3243178,1.329113,-0.1963585,-0.0621457,1.369248,0.2511311,-0.06705002,1.383312,NA,NA,Open,Open,
0.6933594,-0.6557617,0.5092773,0.8100586,0.5478516,0.3222656,-3,0,0,1,1,-1,-1,-4,-1,-2,0,-2,-1,-1,-1,-3,-113.25,-113.25,-113.25,80.25,80.25,80.25,3.512022,3.933972,2.082591,6.691278,3.72121,0.9098911,-0.160192,-0.3115346,1.131688,0.2522104,-0.3374508,1.166331,0.05016403,0.4412051,1.339535,-0.1579508,-0.2781417,1.094462,0.2661404,-0.3016648,1.120245,0.03660492,-0.01337196,1.370293,0.03559663,-0.3334254,1.360498,-0.1371198,0.1693843,1.360015,-0.03975778,-0.3248153,1.329106,-0.192402,-0.07722545,1.369046,0.2567222,-0.08231442,1.382515,NA,NA,Unknown,Unknown,
0.8330078,-0.5629883,0.34375,0.9702148,0.5341797,0.1689453,1,-1,-2,-1,-3,0,0,-2,-6,-4,-1,1,0,-1,0,1,-89.5,-89.5,-89.5,55.8125,55.8125,55.8125,3.324166,3.720798,2.122515,6.900071,3.402254,0.8288488,-0.1662699,-0.3604821,1.170401,0.260235,-0.3768624,1.200653,0.04833995,0.4403656,1.335214,-0.135391,-0.3497089,1.1397,0.2410915,-0.3656365,1.160792,0.03678223,-0.01410853,1.370026,0.03570508,-0.3342242,1.360786,-0.1370459,0.1691501,1.359745,-0.039634,-0.3254975,1.329434,-0.1904282,-0.0855032,1.369493,0.260643,-0.09240375,1.385476,NA,NA,Lasso,Lasso,
0.9316406,-0.5834961,0.2197266,1.023438,0.5258789,0.1459961,-2,-2,-2,0,-2,-2,-1,-1,-2,-1,0,-1,-2,-2,-3,0,-77.625,-77.625,-77.625,-5.9375,-5.9375,-5.9375,3.162862,3.505219,2.15212,7.04699,3.168906,0.6925156,-0.1719115,-0.4027891,1.218334,0.265084,-0.4093507,1.256428,0.04546886,0.4393861,1.331114,-0.1354417,-0.4022516,1.2,0.2296929,-0.39911,1.276667,0.0369247,-0.01513181,1.369744,0.03564017,-0.3352852,1.361244,-0.1371886,0.1686032,1.359696,-0.03964338,-0.3263771,1.329918,-0.1895014,-0.09142212,1.372093,0.2631445,-0.1004354,1.392352,NA,NA,Unknown,NotTracked,
0.9624023,-0.5825195,0.1987305,1.035156,0.3286133,0.1040039,-1,-1,-4,-1,-1,-3,-3,-3,1,-1,-1,0,-1,0,-1,0,-11.4375,-11.4375,-11.4375,-29.625,-29.625,-29.625,2.971294,3.25881,2.267794,7.185358,2.998076,0.4942128,-0.1750452,-0.4183009,1.259889,0.2614573,-0.427619,1.310333,0.04267942,0.4382579,1.327137,-0.1382357,-0.410097,1.264714,0.2090111,-0.4146403,1.292069,0.03716181,-0.01614133,1.369192,0.03557261,-0.3360638,1.361493,-0.137586,0.1680202,1.359721,-0.03970627,-0.3270656,1.330189,-0.1893539,-0.09557746,1.376539,0.2640299,-0.1070582,1.400073,NA,NA,NotTracked,NotTracked,
0.96875,-0.4169922,0.1767578,1.030273,0.2739258,0.08056641,-3,1,0,0,-2,-1,-2,1,-4,0,1,1,0,0,-4,-3,38,38,38,13.875,13.875,13.875,2.922186,3.14526,2.373842,7.343982,2.892501,0.3220093,-0.170122,-0.4156084,1.296798,0.2658277,-0.4306657,1.343671,0.03984028,0.4371962,1.3234,-0.1202733,-0.4119661,1.2716,0.2166305,-0.4232699,1.304179,0.03718294,-0.01678045,1.368796,0.03545986,-0.3366523,1.361925,-0.137958,0.1675979,1.359883,-0.03979235,-0.3276216,1.330764,-0.188914,-0.09701838,1.38328,0.2643113,-0.1136844,1.409164,NA,NA,NotTracked,NotTracked,
0.9135742,-0.3828125,0.1435547,0.9379883,0.3642578,0.08935547,-3,-1,-1,-2,-1,-1,0,1,-1,-2,-2,-1,0,-1,0,-1,2.1875,2.1875,2.1875,13.5625,13.5625,13.5625,2.90361,3.051879,2.445285,7.324649,2.845544,0.386716,-0.1692615,-0.4123644,1.314533,0.2653365,-0.4254315,1.363739,0.03793365,0.4365011,1.320248,-0.1205463,-0.4120377,1.27328,0.2206017,-0.4182184,1.311704,0.03714827,-0.01729411,1.368617,0.0352427,-0.3372239,1.363191,-0.1378944,0.1673656,1.360703,-0.0400277,-0.3281482,1.332224,-0.1881775,-0.09843573,1.393078,0.2642373,-0.1163269,1.420276,NA,NA,NotTracked,NotTracked,
0.918457,-0.4838867,0.1713867,0.9047852,0.3100586,0.1210938,-1,0,-2,0,-2,-1,0,-2,0,-1,-2,-2,-3,0,-1,2,8.0625,8.0625,8.0625,0.4375,0.4375,0.4375,2.903471,3.037318,2.451673,7.145601,2.858565,0.572518,-0.1675918,-0.4117906,1.320632,0.2618504,-0.4132446,1.371641,0.03640669,0.4358339,1.31731,-0.1228512,-0.3976294,1.284542,0.2232782,-0.4184901,1.321615,0.03702769,-0.01773077,1.368464,0.03453851,-0.3374143,1.364509,-0.1380067,0.1672459,1.360857,-0.04083905,-0.3283563,1.333999,-0.1871102,-0.09917267,1.400688,0.2635182,-0.1160582,1.427571,NA,NA,NotTracked,NotTracked,
0.9047852,-0.3637695,0.1132813,0.8950195,0.277832,0.1220703,-1,0,-2,-3,-2,-1,-1,1,-1,0,0,-1,-2,-1,-2,-1,25.9375,25.9375,25.9375,11.75,11.75,11.75,3.016899,3.054628,2.431705,6.969773,2.892951,0.7661458,-0.1667064,-0.4123907,1.321625,0.2543703,-0.4086709,1.365415,0.03499085,0.4349735,1.315032,-0.123566,-0.3989709,1.286708,0.2194978,-0.3849062,1.323517,0.03699743,-0.01807167,1.368593,0.03438764,-0.3375278,1.366809,-0.1383533,0.1669694,1.361117,-0.04089984,-0.3286033,1.336517,-0.1861698,-0.09982383,1.405309,0.2624648,-0.1147564,1.432171,NA,NA,NotTracked,NotTracked,
