ALX,ALY,ALZ,ARX,ARY,ARZ,EMG0L,EMG1L,EMG2L,EMG3L,EMG4L,EMG5L,EMG6L,EMG7L,EMG0R,EMG1R,EMG2R,EMG3R,EMG4R,EMG5R,EMG6R,EMG7R,GLX,GLY,GLZ,GRX,GRY,GRZ,ORL,OPL,OYL,ORR,OPR,OYR,LHNX,LHNY,LHNZ,RHNX,RHNY,RHNZ,HX,HY,HZ,LTX,LTY,LTZ,RTX,RTY,RTZ,SpineMidX,SpineMidY,SpineMidZ,SpineBaseX,SpineBaseY,SpineBaseZ,ShoulderLeftX,ShoulderLeftY,ShoulderLeftZ,ShoulderRightX,ShoulderRightY,ShoulderRightZ,ElbowLeftX,ElbowLeftY,ElbowLeftZ,ElbowRightX,ElbowRightY,ElbowRightZ,Myo_Pose_left,Myo_Pose_Right,Kinect_pose_left,Kinect_pose_right
0.9121094,-0.3774414,0.1240234,0.9077148,0.355957,0.07177734,0,-2,-4,0,-2,-1,-2,-1,-1,-1,-1,-2,3,4,1,-1,-1.5,-1.5,-1.5,-1,-1,-1,2.974909,3.170035,6.311552,7.167146,3.109529,0.5997891,-0.2288302,-0.4163952,1.335107,0.2214334,-0.4187631,1.360481,-0.004384035,0.441386,1.395323,-0.1821134,-0.3971343,1.340343,0.164445,-0.3678775,1.372715,-0.01822929,-0.02599364,1.429103,-0.01659827,-0.3560525,1.426751,-0.1906228,0.1695023,1.414378,-0.1003354,-0.3447844,1.388252,-0.2436061,-0.09753702,1.444333,0.2016183,-0.1161466,1.469588,NA,NA,NotTracked,NotTracked,
0.9121094,-0.3842773,0.1191406,0.9067383,0.3549805,0.06298828,-5,-6,-1,-2,-1,-1,1,-2,-1,-1,0,-7,-5,-2,1,0,0.0625,0.0625,0.0625,-0.75,-0.75,-0.75,2.974238,3.169359,6.311695,7.17028,3.10722,0.5948164,-0.2287747,-0.416864,1.335026,0.221378,-0.4178807,1.361056,-0.004106665,0.4413254,1.395461,-0.1809787,-0.4010267,1.338758,0.1646758,-0.368805,1.373467,-0.0181215,-0.0260375,1.429171,-0.01650066,-0.3560959,1.426766,-0.190578,0.1693484,1.414414,-0.100249,-0.3448142,1.388241,-0.2436198,-0.09749898,1.44437,0.2015375,-0.1161581,1.469846,NA,NA,NotTracked,NotTracked,
0.9121094,-0.3837891,0.1240234,0.9047852,0.3574219,0.07128906,-5,-5,-11,-2,-1,-2,0,-1,1,0,-1,-2,-1,-3,-1,-2,-2.75,-2.75,-2.75,1.25,1.25,1.25,2.97247,3.167831,6.311032,7.171668,3.105937,0.5944991,-0.2278224,-0.4168072,1.335406,0.2202015,-0.4194726,1.36244,-0.003915804,0.4413294,1.395519,-0.181971,-0.3979354,1.339954,0.1760594,-0.4222482,1.354562,-0.01800425,-0.02610837,1.429242,-0.01646588,-0.3561428,1.426781,-0.1905012,0.169299,1.41436,-0.1002312,-0.344846,1.388253,-0.2434519,-0.09777352,1.444605,0.2015422,-0.1162803,1.470143,NA,NA,NotTracked,NotTracked,
0.9174805,-0.3813477,0.1113281,0.9033203,0.3500977,0.07861328,2,-1,3,1,0,-1,0,-1,1,0,1,4,2,2,0,-2,1.5,1.5,1.5,0.375,0.375,0.375,2.970711,3.167085,6.313015,7.171668,3.105937,0.5944991,-0.2283176,-0.4171802,1.335322,0.2204519,-0.420003,1.363266,-0.003773823,0.4413121,1.395581,-0.18131,-0.3993449,1.338982,0.1627928,-0.3904223,1.365,-0.01794909,-0.02612744,1.429249,-0.01643992,-0.356163,1.426778,-0.190523,0.169175,1.41431,-0.1002157,-0.3448568,1.388249,-0.2433452,-0.09771022,1.444639,0.2015751,-0.1164427,1.470273,NA,NA,NotTracked,NotTracked,
0.9086914,-0.3886719,0.1245117,0.9052734,0.3535156,0.07373047,3,1,5,1,0,-1,-1,-1,0,0,0,0,-8,0,5,-3,1.0625,1.0625,1.0625,0.8125,0.8125,0.8125,2.969959,3.16648,6.313959,7.171277,3.104611,0.5972591,-0.2277595,-0.4173559,1.335311,0.2197543,-0.4212162,1.363892,-0.003499277,0.4412721,1.395532,-0.1810254,-0.3998829,1.338441,0.1731402,-0.4223394,1.359583,-0.01788075,-0.02615277,1.429252,-0.01634951,-0.3562223,1.426747,-0.1904541,0.1690028,1.414155,-0.1001229,-0.3449263,1.388217,-0.243242,-0.09770353,1.444676,0.201554,-0.1166049,1.470454,NA,NA,NotTracked,NotTracked,
0.9111328,-0.3793945,0.1147461,0.9116211,0.3662109,0.07910156,-3,-1,12,0,0,-1,-1,1,0,1,-1,0,-8,-1,0,0,1.1875,1.1875,1.1875,1.6875,1.6875,1.6875,2.969069,3.165151,6.318657,7.165552,3.104229,0.6061478,-0.2275533,-0.4165569,1.336314,0.2191843,-0.4211814,1.363748,-0.003286354,0.4412929,1.395501,-0.1809607,-0.3997974,1.338485,0.1704822,-0.4172129,1.3582,-0.01779592,-0.02616003,1.429243,-0.01632776,-0.3562281,1.426739,-0.1903344,0.1689301,1.413978,-0.1001014,-0.3449226,1.388194,-0.243154,-0.09763885,1.444709,0.2015768,-0.1167709,1.470549,NA,NA,NotTracked,NotTracked,
0.8876953,-0.5,0.1425781,0.8818359,0.4960938,0.08300781,-13,-3,-6,-2,-7,-3,-1,-1,1,-2,0,-2,3,1,2,1,33,33,33,-29.75,-29.75,-29.75,2.96824,3.175882,6.344431,7.148579,3.123379,0.6030755,-0.2298438,-0.417461,1.334557,0.2181088,-0.4209643,1.360507,-0.003111295,0.4412663,1.395485,-0.181633,-0.3983062,1.339538,0.1716879,-0.4145662,1.348357,-0.01771812,-0.02616037,1.429206,-0.01625206,-0.3561802,1.426687,-0.1902174,0.1687335,1.413716,-0.1000102,-0.3448602,1.388151,-0.243115,-0.09818271,1.444841,0.2015747,-0.1167758,1.47055,NA,NA,NotTracked,NotTracked,
0.9868164,-0.5351563,0.07226563,0.9711914,0.5605469,0.05957031,2,0,-18,-3,4,0,0,-2,-3,-13,-42,-3,-4,-5,-2,1,74.125,74.125,74.125,-55.75,-55.75,-55.75,3.013044,3.253002,6.470869,7.083926,3.219109,0.5450045,-0.2493919,-0.4097186,1.309729,0.2256629,-0.4177032,1.348575,-0.002892724,0.4413181,1.395449,-0.2080576,-0.4247939,1.337333,0.1810501,-0.4353915,1.369783,-0.01761229,-0.02615402,1.429161,-0.01618333,-0.3561702,1.426695,-0.1901513,0.1687011,1.413648,-0.09989708,-0.344851,1.388186,-0.2433523,-0.0989834,1.444905,0.2015996,-0.1167703,1.470531,NA,NA,NotTracked,NotTracked,
0.9111328,-0.6889648,0.2705078,0.890625,0.5595703,0.3051758,-5,-1,8,2,-6,-12,-6,-3,-2,14,4,16,-11,-3,-7,-5,33.1875,33.1875,33.1875,-65.6875,-65.6875,-65.6875,3.063289,3.407631,6.498278,6.957119,3.387315,0.556251,-0.2738469,-0.376792,1.27175,0.2468622,-0.3988002,1.319396,-0.002810744,0.4413636,1.395455,-0.2415688,-0.3753158,1.24105,0.2110593,-0.4180665,1.33175,-0.01744439,-0.0261058,1.42911,-0.01607028,-0.3560477,1.426585,-0.1900351,0.1687224,1.413636,-0.09979419,-0.3447503,1.388116,-0.2443902,-0.09923106,1.445828,0.2021532,-0.1173642,1.469771,NA,NA,NotTracked,NotTracked,
0.8266602,-0.671875,0.3486328,0.8457031,0.6411133,0.3173828,-3,-3,0,3,7,3,7,6,1,-4,-18,-55,-20,2,-1,2,27.875,27.875,27.875,-27.9375,-27.9375,-27.9375,3.130445,3.63052,6.483697,6.867454,3.6122,0.5793859,-0.2942085,-0.3309783,1.219925,0.2690489,-0.3629371,1.277499,-0.002717483,0.4414856,1.395504,-0.2671154,-0.3163997,1.197969,0.2401764,-0.4145088,1.296,-0.01725078,-0.0259377,1.428993,-0.01588838,-0.355768,1.426269,-0.1899108,0.1687832,1.413686,-0.09970473,-0.3445269,1.387838,-0.247694,-0.09001825,1.445935,0.2041918,-0.1130507,1.46688,NA,NA,NotTracked,NotTracked,
0.7202148,-0.7329102,0.4711914,0.7890625,0.722168,0.3896484,2,-9,-12,13,-3,0,6,3,-2,0,12,43,13,-6,-3,-2,17.6875,17.6875,17.6875,-19.75,-19.75,-19.75,3.187491,3.904448,6.453201,6.780058,3.981056,0.6192761,-0.306183,-0.2681905,1.165165,0.2833189,-0.3059733,1.231833,-0.002649256,0.4415172,1.395576,-0.27736,-0.2545365,1.1606,0.2634484,-0.3342328,1.259194,-0.01715397,-0.02579351,1.428924,-0.01577516,-0.3553527,1.425811,-0.1898491,0.1688554,1.413752,-0.09967263,-0.3441606,1.387468,-0.2511071,-0.07805091,1.442326,0.2052024,-0.1016485,1.461718,NA,NA,Unknown,Unknown,
0.5942383,-0.7270508,0.4970703,0.5996094,0.7324219,0.4130859,-4,4,23,4,-11,-1,4,-5,0,5,3,45,46,1,-1,-3,29.3125,29.3125,29.3125,-21.875,-21.875,-21.875,3.285688,4.319046,6.404638,6.720385,4.292929,0.6640685,-0.3087539,-0.1946523,1.12651,0.2895299,-0.2364284,1.185879,-0.002494352,0.4416728,1.396183,-0.2674166,-0.1940784,1.085375,0.2679127,-0.2729905,1.221941,-0.01712374,-0.02559382,1.429027,-0.01564348,-0.3548893,1.4255,-0.1896723,0.169278,1.413875,-0.09961093,-0.3438662,1.387337,-0.2507222,-0.07120802,1.438455,0.2052895,-0.08929939,1.457875,NA,NA,Closed,Unknown,
0.440918,-0.7646484,0.5151367,0.3354492,0.734375,0.3842773,-15,-13,9,-3,3,-3,2,2,-1,2,-1,3,-17,-8,-5,-2,14.75,14.75,14.75,-15.125,-15.125,-15.125,3.330114,4.635923,6.364731,6.678791,4.598656,0.7046068,-0.2954326,-0.1244452,1.105393,0.2849588,-0.1662894,1.155625,-0.002362039,0.4419517,1.397231,-0.2472682,-0.1152221,1.083454,0.283339,-0.2073826,1.167364,-0.01707217,-0.02543515,1.429094,-0.0155171,-0.354597,1.425078,-0.1892881,0.1696333,1.413918,-0.0995146,-0.3436352,1.386915,-0.2540463,-0.07535433,1.432186,0.2020753,-0.07438779,1.456228,NA,NA,Unknown,Unknown,
0.2192383,-0.715332,0.418457,0.0859375,0.6557617,0.4111328,16,-7,6,-10,-3,5,14,0,-4,-8,1,15,58,10,0,-3,16.3125,16.3125,16.3125,-6.375,-6.375,-6.375,3.362999,4.914751,6.324184,6.6398,4.895864,0.7688762,-0.2770097,-0.06999972,1.095367,0.2760383,-0.1135902,1.144029,-0.002288651,0.44232,1.399055,-0.2098141,-0.04866104,1.0608,0.2903214,-0.1468121,1.1486,-0.01707291,-0.02531818,1.429144,-0.01559105,-0.3542835,1.424555,-0.1890704,0.170112,1.413873,-0.09955186,-0.3433159,1.386299,-0.248589,-0.08023311,1.42757,0.1987344,-0.08590403,1.454819,NA,NA,Unknown,Unknown,
0.05078125,-0.6918945,0.4111328,0.046875,0.6923828,0.4633789,-5,-21,8,1,-7,-12,-19,-5,4,6,5,-2,-23,-12,-8,0,3.1875,3.1875,3.1875,13.125,13.125,13.125,3.37679,5.117673,6.232397,6.641577,5.010751,0.8351037,-0.2561572,-0.04457977,1.097576,0.2572574,-0.0726478,1.137667,-0.002118313,0.4430482,1.401768,-0.1959615,-0.02470354,1.073,0.2732559,-0.1042923,1.130177,-0.01700469,-0.02507837,1.42932,-0.01558325,-0.3540016,1.42404,-0.1884029,0.1709371,1.413747,-0.09951553,-0.3430496,1.385633,-0.2475082,-0.08591731,1.418959,0.198573,-0.09840263,1.446641,NA,NA,Unknown,Unknown,
0.01367188,-0.7558594,0.4975586,-0.03320313,0.8188477,0.4672852,-22,-1,16,-6,0,1,6,-5,-7,-2,-5,-12,-7,6,0,-1,-10.5625,-10.5625,-10.5625,5.6875,5.6875,5.6875,3.363912,5.155169,6.157209,6.660817,5.058165,0.8938725,-0.2367269,-0.04061883,1.098603,0.2413045,-0.05919371,1.138739,-0.001898156,0.4433428,1.4042,-0.180653,-0.02073575,1.0788,0.257004,-0.09063195,1.123476,-0.01688784,-0.02489856,1.429431,-0.01548407,-0.3537537,1.423341,-0.1877999,0.1716081,1.413653,-0.09941557,-0.3428914,1.385049,-0.2499087,-0.08583705,1.374763,0.19936,-0.1051783,1.444262,NA,NA,Unknown,Unknown,
-0.06884766,-0.8466797,0.5083008,-0.08105469,0.8754883,0.4697266,3,0,-8,0,-1,-9,-16,-9,3,3,1,12,29,8,8,6,4,4,4,-3.875,-3.875,-3.875,3.365105,5.142229,6.100647,6.670842,5.076719,0.9265869,-0.2293432,-0.04580715,1.104986,0.2295695,-0.05336096,1.139269,-0.001859959,0.4436913,1.406202,-0.1699021,-0.02628448,1.086555,0.2516556,-0.08858521,1.123933,-0.0168624,-0.02480306,1.429437,-0.01530625,-0.3536317,1.422337,-0.1872418,0.1719586,1.41351,-0.09924128,-0.3427931,1.383864,-0.2387966,-0.08842295,1.413034,0.1936921,-0.0643146,1.454185,NA,NA,Unknown,Unknown,
-0.1259766,-0.9223633,0.4853516,-0.03320313,0.8999023,0.4477539,0,-5,5,4,2,1,0,-2,7,7,12,-31,5,8,12,3,9.0625,9.0625,9.0625,5.6875,5.6875,5.6875,3.366828,5.126991,6.105215,6.680612,5.073113,0.9165636,-0.2294611,-0.04972937,1.106224,0.2325935,-0.05782439,1.140736,-0.001864121,0.4438438,1.407476,-0.1758838,-0.02704033,1.090077,0.2500143,-0.08576757,1.122276,-0.01684187,-0.02468353,1.429474,-0.01518059,-0.3534939,1.421579,-0.1870343,0.1721603,1.413452,-0.09911171,-0.3426765,1.382989,-0.2371724,-0.09706057,1.421075,0.1975731,-0.1170947,1.436589,NA,NA,Unknown,Unknown,
-0.109375,-0.9008789,0.4960938,-0.02050781,0.8925781,0.5180664,-11,-11,-26,-8,3,-1,-3,-1,-5,-2,-5,-5,6,-2,-5,-5,-2.875,-2.875,-2.875,7,7,7,3.366096,5.113164,6.127632,6.689605,5.067509,0.9020185,-0.2336537,-0.05392076,1.106536,0.2343608,-0.05730424,1.140549,-0.002040304,0.4438796,1.408116,-0.1691861,-0.03639877,1.092286,0.2609076,-0.0830043,1.126191,-0.01682123,-0.02455817,1.429466,-0.01509467,-0.3533605,1.42102,-0.1867636,0.1723535,1.413603,-0.09901379,-0.3425319,1.382492,-0.2439996,-0.1020045,1.409435,0.1971155,-0.1169659,1.437329,NA,NA,Unknown,Unknown,
-0.03564453,-0.8886719,0.5688477,-0.03564453,0.8203125,0.640625,-1,5,12,0,-1,-6,-21,-4,-2,-3,-8,14,43,-11,-14,1,-6.25,-6.25,-6.25,2.3125,2.3125,2.3125,3.357706,5.098689,6.15231,6.693978,5.065526,0.9008529,-0.2395107,-0.0562947,1.109421,0.2366078,-0.05832958,1.142776,-0.002140189,0.44389,1.408332,-0.1760462,-0.03893299,1.0941,0.2600247,-0.08765841,1.125358,-0.01680236,-0.02448297,1.429471,-0.01508943,-0.3533317,1.420698,-0.1866326,0.1724742,1.413698,-0.09901043,-0.3425331,1.382309,-0.2394985,-0.1004525,1.427812,0.1970506,-0.1154115,1.441587,NA,NA,Unknown,Unknown,
-0.03857422,-0.7148438,0.7255859,0.005859375,0.7099609,0.7050781,-5,-13,-9,-3,-5,-5,-6,-6,-4,0,13,39,-33,-5,2,1,10.1875,10.1875,10.1875,-8.125,-8.125,-8.125,3.3825,5.080736,6.162913,6.657526,5.056081,0.9633355,-0.2343721,-0.06096237,1.112288,0.2304243,-0.06160501,1.143597,-0.002354053,0.4438853,1.408613,-0.1808811,-0.03658459,1.088988,0.2506027,-0.09594788,1.12625,-0.01679613,-0.02442407,1.42948,-0.01508806,-0.3532799,1.420385,-0.186558,0.1726192,1.413897,-0.09902109,-0.3424978,1.382003,-0.2419107,-0.05692524,1.423725,0.1953892,-0.1193542,1.423029,NA,NA,Unknown,Closed,
0.02099609,-0.6865234,0.7324219,0.03369141,0.7719727,0.5976563,-1,4,5,-5,-6,-6,3,-2,3,3,2,9,24,-9,-3,4,9.875,9.875,9.875,-3,-3,-3,3.427192,5.059185,6.089622,6.636149,5.037181,1.138458,-0.2052442,-0.06899882,1.121752,0.2065028,-0.07078893,1.149386,-0.002413788,0.4438922,1.408685,-0.1610664,-0.04412056,1.104375,0.1788119,-0.09925389,1.12255,-0.01673237,-0.02436483,1.429486,-0.01497171,-0.3532388,1.42018,-0.1864581,0.1727786,1.414012,-0.09893239,-0.3424931,1.381873,-0.2575462,-0.05184791,1.426082,0.1794546,-0.1234433,1.385206,NA,NA,Unknown,Unknown,
-0.01416016,-0.7578125,0.5527344,0.02392578,1.006348,0.3232422,0,-11,5,6,-5,-1,1,-12,-1,9,16,35,-3,-10,-1,-3,23.6875,23.6875,23.6875,-7.6875,-7.6875,-7.6875,3.469579,5.024752,5.91208,6.641564,5.002401,1.41799,-0.1567623,-0.07865531,1.132748,0.1555945,-0.07775166,1.153427,-0.002454846,0.443741,1.408841,-0.1034981,-0.06588972,1.1235,0.1542794,-0.1122852,1.128235,-0.01671911,-0.0243043,1.429474,-0.01489057,-0.3530014,1.419676,-0.1859553,0.17359,1.41487,-0.0988244,-0.3423158,1.381435,-0.2554741,-0.05231056,1.421178,0.198035,-0.06218647,1.454551,NA,NA,Lasso,Lasso,
0.03515625,-1.020508,0.3969727,0.07226563,1.124023,0.2114258,3,9,-9,-5,-7,-7,1,3,3,-6,-3,19,33,6,1,-5,11.25,11.25,11.25,-9.875,-9.875,-9.875,3.47669,4.981004,5.685105,6.664015,4.982794,1.468703,-0.1310547,-0.08633498,1.140926,0.1299331,-0.08386169,1.157827,-0.002471733,0.4437363,1.408991,-0.06923404,-0.0766148,1.1385,0.135252,-0.06832809,1.128357,-0.01666759,-0.02418165,1.429549,-0.01480754,-0.3529023,1.419542,-0.1859674,0.1732547,1.415095,-0.0987404,-0.3422742,1.38141,-0.2493212,-0.05528356,1.413723,0.199884,-0.06492969,1.434361,NA,NA,Lasso,Lasso,
0.1113281,-1.106934,0.3154297,0.06982422,1.036621,0.293457,-3,6,21,15,6,3,4,2,-5,-6,-4,-13,8,-6,-9,-2,13.75,13.75,13.75,0.5625,0.5625,0.5625,3.459043,4.96334,5.676346,6.697113,4.97304,1.390228,-0.1362881,-0.08800278,1.137552,0.1356959,-0.08689433,1.154257,-0.002474409,0.4436553,1.40906,-0.06978902,-0.07091024,1.130833,0.09271047,-0.06651171,1.133714,-0.01659057,-0.02411126,1.429612,-0.01477282,-0.3528684,1.419446,-0.1859289,0.1726525,1.415251,-0.09870082,-0.3422641,1.381393,-0.2443886,-0.05730768,1.413076,0.1991188,-0.06537495,1.43311,NA,NA,Unknown,Lasso,
0.08154297,-0.9848633,0.375,0.03027344,0.8916016,0.519043,-6,6,2,-13,2,-8,-17,-5,3,-2,1,-9,8,0,-3,0,-10.125,-10.125,-10.125,20.0625,20.0625,20.0625,3.42327,4.952497,5.76187,6.730203,4.971642,1.269409,-0.1636726,-0.09143289,1.13189,0.1640821,-0.08739486,1.1536,-0.0024396,0.4435973,1.409061,-0.08742996,-0.07933789,1.1254,0.1191983,-0.06521372,1.134,-0.01650386,-0.02405512,1.429562,-0.01469585,-0.3528701,1.419157,-0.1858333,0.172491,1.41533,-0.09859786,-0.342295,1.38109,-0.2446633,-0.05711593,1.416217,0.1981089,-0.06395777,1.446721,NA,NA,Lasso,Unknown,
0.06054688,-0.8676758,0.5664063,0.01367188,0.7490234,0.7026367,1,13,38,5,-4,-10,-7,-2,-1,-3,2,25,-20,0,5,3,-36.25,-36.25,-36.25,15.25,15.25,15.25,3.366238,4.934193,5.866139,6.746066,4.971529,1.139814,-0.193587,-0.0967631,1.130971,0.1922694,-0.08714751,1.156251,-0.002339965,0.4435527,1.409109,-0.1233205,-0.08768412,1.122833,0.1322311,-0.07551154,1.123375,-0.01640387,-0.02397024,1.429554,-0.01455,-0.3528665,1.41899,-0.1857492,0.1724467,1.415435,-0.09847917,-0.3423159,1.380955,-0.2881549,-0.0363967,1.442035,0.1986788,-0.06236344,1.454792,NA,NA,Lasso,Closed,
0.04296875,-0.7060547,0.7573242,-0.005859375,0.6977539,0.722168,-4,15,4,4,0,0,-9,-8,5,0,-7,-31,-32,2,0,0,-19.9375,-19.9375,-19.9375,-5.875,-5.875,-5.875,3.341119,4.909871,5.958263,6.713136,4.969975,1.107762,-0.2090987,-0.1001012,1.131612,0.2045078,-0.08728018,1.157036,-0.002158621,0.443514,1.40916,-0.1507721,-0.08478107,1.1095,0.1288274,-0.0864905,1.126875,-0.01634925,-0.02392018,1.42953,-0.01443571,-0.3527747,1.418833,-0.1853656,0.1735353,1.416157,-0.09834997,-0.3421936,1.38078,-0.2850153,-0.0372192,1.440446,0.1839705,-0.07929578,1.473179,NA,NA,Unknown,Unknown,
0.05273438,-0.6767578,0.7905273,0.046875,0.7998047,0.6601563,17,93,26,1,2,-8,-10,0,2,2,-2,1,11,-9,-18,-4,36,36,36,-15.9375,-15.9375,-15.9375,3.426496,4.908867,6.021654,6.648408,4.956522,1.201031,-0.2043631,-0.09875292,1.130417,0.1934991,-0.09035759,1.156337,-0.001930042,0.4434009,1.409056,-0.1593805,-0.07601935,1.107769,0.1374924,-0.07172792,1.1395,-0.01621528,-0.02384354,1.429481,-0.01433412,-0.3527337,1.418723,-0.1853842,0.1735636,1.416128,-0.09823936,-0.3421268,1.380624,-0.2819903,-0.03907895,1.438421,0.2098155,-0.05863916,1.462939,NA,NA,Lasso,Closed,
0.1191406,-0.7783203,0.6333008,0.09619141,0.8666992,0.4521484,-14,6,28,8,-4,-7,-11,-3,1,-26,-18,-20,32,9,2,6,25.1875,25.1875,25.1875,-7.0625,-7.0625,-7.0625,3.500596,4.917155,5.953297,6.619867,4.941388,1.375384,-0.1773844,-0.09887937,1.134996,0.1647399,-0.09594496,1.158768,-0.001653539,0.4433844,1.40901,-0.1614784,-0.06475585,1.112,0.1472197,-0.06184822,1.150263,-0.01617315,-0.02381547,1.429427,-0.01431982,-0.3527446,1.4186,-0.1853816,0.1734922,1.416167,-0.098219,-0.3421312,1.380399,-0.2889394,-0.03916343,1.415222,0.2054459,-0.06013353,1.460192,NA,NA,Unknown,Unknown,
0.1206055,-0.9033203,0.5356445,0.1103516,0.9882813,0.3808594,9,13,10,-9,-9,-13,-9,3,6,16,23,55,11,5,3,2,-5.375,-5.375,-5.375,-2.0625,-2.0625,-2.0625,3.512943,4.898323,5.739746,6.630006,4.926088,1.54768,-0.140925,-0.102228,1.145751,0.1249321,-0.09785127,1.162971,-0.001459871,0.4432534,1.40903,-0.107564,-0.07112688,1.118667,0.10627,-0.0667474,1.146143,-0.01612214,-0.02379164,1.429428,-0.01436321,-0.352683,1.418479,-0.1850621,0.1739104,1.416706,-0.09822426,-0.342048,1.380332,-0.2414521,-0.05607912,1.420487,0.1990949,-0.06665481,1.384202,NA,NA,Unknown,Unknown,
0.1352539,-1.007324,0.425293,0.08251953,0.984375,0.3339844,-12,-10,-23,-24,2,4,4,-2,-6,-6,-14,-39,-9,-3,-7,-2,12.125,12.125,12.125,-0.125,-0.125,-0.125,3.502275,4.874981,5.67342,6.651753,4.908539,1.610185,-0.1293612,-0.104676,1.147686,0.109453,-0.0995699,1.165136,-0.001356255,0.4431989,1.409051,-0.06813931,-0.09795537,1.142,0.1097063,-0.1083309,1.1275,-0.01608187,-0.02375305,1.429408,-0.0143628,-0.3526145,1.418337,-0.1848054,0.1738432,1.416877,-0.09819753,-0.3419685,1.380271,-0.2400583,-0.05656983,1.419315,0.1983964,-0.06692304,1.422073,NA,NA,Lasso,Lasso,
0.1264648,-0.9003906,0.4663086,0.09521484,0.8730469,0.4980469,30,44,-28,11,-7,-16,-8,2,-4,-2,-4,-22,-21,0,7,3,-3.125,-3.125,-3.125,-0.5,-0.5,-0.5,3.485159,4.859618,5.677304,6.655577,4.895278,1.59539,-0.1304842,-0.1067272,1.15083,0.1089954,-0.1008444,1.165181,-0.001264674,0.4432041,1.409005,-0.06537987,-0.0948516,1.15275,0.1480673,-0.09084038,1.161586,-0.01605283,-0.02367526,1.429324,-0.01433095,-0.3525046,1.418139,-0.1846893,0.1739262,1.417171,-0.09812184,-0.341803,1.380203,-0.2388739,-0.05676714,1.419481,0.1983559,-0.06726889,1.422612,NA,NA,Lasso,Lasso,
0.004882813,-0.7832031,0.6323242,0.01806641,0.8193359,0.5927734,-20,4,41,8,4,7,0,-7,-3,-20,-13,2,12,-4,5,-5,-19.75,-19.75,-19.75,21.3125,21.3125,21.3125,3.460836,4.853046,5.668943,6.669266,4.891903,1.597079,-0.1321457,-0.108803,1.152736,0.1121849,-0.1031072,1.164937,-0.001187966,0.4431355,1.408857,-0.06693421,-0.1048862,1.163,0.07534157,-0.07976879,1.160545,-0.01605693,-0.0236386,1.429261,-0.01441019,-0.3523657,1.417924,-0.1846542,0.1741132,1.417382,-0.09815875,-0.3416932,1.380066,-0.2913463,-0.05435124,1.395843,0.198477,-0.06726114,1.42472,NA,NA,Lasso,Unknown,
0.04101563,-0.7919922,0.6918945,0.08544922,0.8500977,0.5625,-1,-2,19,-2,-3,1,5,-4,1,-3,-5,4,-26,-1,7,-1,-11.4375,-11.4375,-11.4375,-5.4375,-5.4375,-5.4375,3.44832,4.850221,5.657664,6.673705,4.890703,1.592384,-0.1337561,-0.1088398,1.15294,0.1153078,-0.1037151,1.164442,-0.00115489,0.443086,1.408829,-0.07880258,-0.0871466,1.137572,0.0839108,-0.0767122,1.158726,-0.01608151,-0.02361474,1.42926,-0.01442477,-0.3523453,1.417873,-0.1847712,0.1738997,1.417514,-0.09815314,-0.3416739,1.380059,-0.2899312,-0.05390631,1.407981,0.2024812,-0.06655046,1.428509,NA,NA,Lasso,Unknown,
0.09033203,-0.796875,0.628418,0.08496094,0.855957,0.5058594,9,5,-15,-1,8,5,-6,0,1,3,0,-47,-25,6,-2,-2,-1.6875,-1.6875,-1.6875,-0.5625,-0.5625,-0.5625,3.452591,4.855575,5.653906,6.666761,4.896508,1.58775,-0.1336834,-0.1075074,1.152844,0.1129287,-0.1010559,1.162895,-0.001192038,0.4430988,1.408799,-0.07065577,-0.09117782,1.13675,0.06225852,-0.08513777,1.157333,-0.01611733,-0.02358823,1.429281,-0.01447096,-0.3522542,1.41787,-0.1848673,0.1742269,1.417808,-0.0981812,-0.3415503,1.380136,-0.2412221,-0.05562199,1.422997,0.2024307,-0.06664226,1.427808,NA,NA,Lasso,Lasso,
0.08447266,-0.8310547,0.5708008,0.08349609,0.8793945,0.5063477,7,29,15,4,-1,-6,4,5,-1,-3,-3,0,9,0,4,-1,0.9375,0.9375,0.9375,2.3125,2.3125,2.3125,3.466657,4.86677,5.653178,6.667931,4.898067,1.590927,-0.1320028,-0.1067525,1.15226,0.1138238,-0.1007988,1.163448,-0.001285739,0.4430128,1.408659,-0.08248764,-0.08486458,1.132641,0.06839129,-0.08120103,1.146,-0.01618055,-0.02357664,1.429267,-0.01453002,-0.352253,1.41785,-0.1851078,0.1737308,1.417873,-0.09822219,-0.3415482,1.380167,-0.2427645,-0.05612941,1.419484,0.2022353,-0.06669949,1.429125,NA,NA,Lasso,Unknown,
0.08349609,-0.847168,0.5683594,0.03613281,0.9067383,0.4692383,18,12,-7,-2,-1,-3,0,1,-2,-3,-2,-6,4,7,6,-4,2.5,2.5,2.5,3.9375,3.9375,3.9375,3.46774,4.86807,5.652547,6.679626,4.90789,1.586427,-0.1312528,-0.1060021,1.151687,0.1135179,-0.1006053,1.1626,-0.001410479,0.4430164,1.408654,-0.0744094,-0.0884707,1.138741,0.1557266,-0.08758976,1.162,-0.01621742,-0.02354263,1.429274,-0.01460954,-0.3521981,1.41786,-0.1849997,0.1739761,1.41813,-0.09828037,-0.3414882,1.380224,-0.2425443,-0.05588478,1.420076,0.2021866,-0.06672253,1.428984,NA,NA,Lasso,Lasso,
0.07080078,-0.8774414,0.5219727,0.01220703,0.9023438,0.4042969,0,0,3,1,-1,-4,-1,0,-4,-26,-11,1,2,1,-2,0,-3.5625,-3.5625,-3.5625,0.1875,0.1875,0.1875,3.457657,4.873651,5.667402,6.688244,4.925952,1.541707,-0.1384905,-0.1060172,1.146713,0.1171471,-0.09701066,1.160019,-0.001527165,0.4430173,1.408718,-0.08644524,-0.08453608,1.131,0.1356846,-0.1268082,1.142147,-0.01633004,-0.02348821,1.429332,-0.01465199,-0.3521091,1.417883,-0.1851148,0.1738857,1.418226,-0.09830453,-0.3413872,1.380255,-0.2427274,-0.05592887,1.420449,0.2019583,-0.06620498,1.429239,NA,NA,Unknown,Lasso,
0.06396484,-0.8764648,0.4799805,0.0625,0.9350586,0.4077148,-2,-4,-1,-3,0,1,0,0,5,8,4,-1,-3,-1,-4,-1,-8.8125,-8.8125,-8.8125,-14.375,-14.375,-14.375,3.434817,4.877143,5.712835,6.69094,4.929648,1.426516,-0.1551767,-0.1039988,1.133342,0.1362579,-0.09169028,1.143836,-0.001848184,0.4430518,1.408875,-0.111296,-0.07954999,1.1111,0.1498413,-0.1225189,1.121636,-0.01638603,-0.0234964,1.429341,-0.01473842,-0.3520998,1.417901,-0.1849599,0.174642,1.418732,-0.09839622,-0.3413669,1.380302,-0.2437269,-0.05475646,1.422131,0.2021108,-0.0660303,1.432218,NA,NA,Lasso,Lasso,
0.06103516,-0.8466797,0.4458008,0.04394531,0.7319336,0.375,1,4,2,-4,-2,0,-1,1,2,-2,0,0,0,-3,-5,-2,5,5,5,-32.9375,-32.9375,-32.9375,3.400981,4.85603,5.840352,6.641046,4.88101,1.226846,-0.187462,-0.1084029,1.111549,0.1726934,-0.09047366,1.121921,-0.001958327,0.4430542,1.408931,-0.1846451,-0.07496493,1.092333,0.1161094,-0.06335384,1.073,-0.01652784,-0.02354229,1.429462,-0.01480266,-0.3522115,1.418056,-0.1853378,0.173935,1.418705,-0.09850299,-0.3415258,1.38048,-0.2436646,-0.05528576,1.42477,0.2030665,-0.06467784,1.441335,NA,NA,Lasso,Unknown,
0.1025391,-0.7192383,0.4331055,0.112793,0.6567383,0.418457,-2,0,-2,0,-2,-1,-2,-1,-2,0,0,0,-1,-1,-2,-2,5.8125,5.8125,5.8125,8.4375,8.4375,8.4375,3.394531,4.780063,5.965857,6.647538,4.758923,1.076236,-0.2328496,-0.1294955,1.100483,0.2330551,-0.1118742,1.11416,-0.002131596,0.4430933,1.408981,-0.1744317,-0.1143436,1.106,0.218362,-0.1411346,1.099364,-0.01666288,-0.0235856,1.42972,-0.01495443,-0.3523297,1.418753,-0.1858799,0.1735295,1.418844,-0.09872492,-0.341696,1.381294,-0.2514004,-0.053115,1.431554,0.1983167,-0.06518002,1.443224,NA,NA,Unknown,Closed,
0.2128906,-0.6870117,0.4882813,0.3032227,0.6762695,0.4233398,0,0,0,-9,-5,-1,-1,0,-1,-3,-1,0,0,5,5,3,-15.125,-15.125,-15.125,32.375,32.375,32.375,3.357699,4.611745,6.103209,6.722307,4.558146,0.9317891,-0.2815402,-0.1766083,1.103594,0.2821576,-0.1530627,1.132715,-0.002304279,0.4431682,1.409037,-0.2525223,-0.1856068,1.087,0.268715,-0.1868228,1.111714,-0.01683067,-0.02359397,1.430103,-0.01508122,-0.3524164,1.419666,-0.1865737,0.1733305,1.419131,-0.09896439,-0.3418464,1.382348,-0.2554617,-0.06475243,1.432314,0.1979531,-0.0812897,1.444666,NA,NA,Closed,Closed,
0.4638672,-0.5561523,0.4140625,0.7314453,0.6621094,0.409668,6,3,-2,-3,-2,-1,-2,-1,-2,-3,-4,-1,1,-1,-2,-3,-51.9375,-51.9375,-51.9375,8.875,8.875,8.875,3.275375,4.379778,6.246672,6.835505,4.195303,0.7408175,-0.3136781,-0.2406095,1.126494,0.3185624,-0.215401,1.165311,-0.002633082,0.4434999,1.409543,-0.2859856,-0.2592368,1.0888,0.3010967,-0.2467794,1.1648,-0.0168878,-0.02355791,1.430415,-0.0151763,-0.3524151,1.42104,-0.187087,0.1731142,1.41928,-0.09912769,-0.3418742,1.383741,-0.259845,-0.07370432,1.430095,0.1980933,-0.08304851,1.451303,NA,NA,Unknown,Closed,
0.7099609,-0.7890625,0.4443359,0.8388672,0.5297852,0.3422852,3,-1,-1,-2,-3,-1,-2,0,-2,-2,-1,-2,-3,-1,0,-3,-51.25,-51.25,-51.25,16.625,16.625,16.625,3.109389,4.114892,6.362276,6.916931,3.903841,0.6184335,-0.3263631,-0.3105252,1.165439,0.3395873,-0.2865031,1.1981,-0.002880564,0.4437103,1.409917,-0.3076693,-0.3445125,1.1796,0.3202761,-0.3168031,1.208286,-0.01685009,-0.02348438,1.430606,-0.01505516,-0.3523202,1.422009,-0.1874965,0.173102,1.41911,-0.09908179,-0.3417837,1.384716,-0.2627667,-0.074671,1.424148,0.2133956,-0.08323794,1.437574,NA,NA,Unknown,Unknown,
