ALX,ALY,ALZ,ARX,ARY,ARZ,EMG0L,EMG1L,EMG2L,EMG3L,EMG4L,EMG5L,EMG6L,EMG7L,EMG0R,EMG1R,EMG2R,EMG3R,EMG4R,EMG5R,EMG6R,EMG7R,GLX,GLY,GLZ,GRX,GRY,GRZ,ORL,OPL,OYL,ORR,OPR,OYR,LHNX,LHNY,LHNZ,RHNX,RHNY,RHNZ,HX,HY,HZ,LTX,LTY,LTZ,RTX,RTY,RTZ,SpineMidX,SpineMidY,SpineMidZ,SpineBaseX,SpineBaseY,SpineBaseZ,ShoulderLeftX,ShoulderLeftY,ShoulderLeftZ,ShoulderRightX,ShoulderRightY,ShoulderRightZ,ElbowLeftX,ElbowLeftY,ElbowLeftZ,ElbowRightX,ElbowRightY,ElbowRightZ,Myo_Pose_left,Myo_Pose_Right,Kinect_pose_left,Kinect_pose_right
0.9013672,-0.3969727,0.005371094,-0.4663086,0.7822266,0.449707,-1,-1,-3,-2,-1,-1,-1,-2,-4,10,-4,-2,4,-4,1,-1,6.75,6.75,6.75,-1.1875,-1.1875,-1.1875,2.409765,3.145386,7.397272,6.660728,5.748583,9.623583,-0.1436352,-0.4462774,1.256043,0.4369129,-0.415888,1.34432,0.07608515,0.3750532,1.34846,-0.1872886,-0.4595366,1.238147,0.4871504,-0.3567834,1.304523,0.06787933,-0.100903,1.359049,0.06908996,-0.4255773,1.347018,-0.1098897,0.07876282,1.337521,-0.01188304,-0.4162538,1.306614,-0.1554339,-0.1834543,1.333332,0.357807,-0.135315,1.367968,NA,NA,NotTracked,Unknown,
0.8994141,-0.3959961,0.006347656,-0.4609375,0.7705078,0.4448242,-1,-2,0,-1,0,0,-1,0,-13,-7,-5,3,-3,0,1,-11,6.5625,6.5625,6.5625,-0.25,-0.25,-0.25,2.410996,3.145896,7.404746,6.663105,5.747977,9.62909,-0.1434648,-0.4467308,1.25572,0.4364631,-0.4156381,1.341871,0.07603665,0.3749925,1.348205,-0.1875238,-0.4627314,1.238665,0.4875171,-0.3567483,1.30462,0.06778158,-0.1009637,1.358887,0.06898644,-0.425647,1.34691,-0.1100232,0.07872606,1.337473,-0.011976,-0.4163099,1.306536,-0.1554609,-0.1834345,1.333325,0.3577731,-0.1352986,1.367579,NA,NA,NotTracked,Unknown,
0.9018555,-0.3969727,0.01318359,-0.4594727,0.7832031,0.440918,-1,1,-2,-2,-1,-1,-1,-2,-1,-12,-7,-14,1,0,0,9,5.0625,5.0625,5.0625,-3.0625,-3.0625,-3.0625,2.413488,3.146109,7.409699,6.664581,5.744987,9.636642,-0.1450075,-0.4477038,1.25638,0.4712724,-0.3435497,1.327869,0.0759123,0.3750522,1.347966,-0.1922737,-0.4646582,1.244429,0.5245289,-0.2785259,1.289841,0.06763953,-0.1009615,1.358752,0.06886382,-0.4256276,1.346774,-0.1101584,0.07875109,1.337479,-0.01209829,-0.4162716,1.306421,-0.1557214,-0.1832059,1.333385,0.3578311,-0.1352451,1.367474,NA,NA,NotTracked,Unknown,
0.8974609,-0.3979492,0.01269531,-0.4594727,0.7866211,0.4316406,-1,-1,-2,0,0,1,-1,-2,7,-1,2,6,11,-4,7,10,5.0625,5.0625,5.0625,-1.625,-1.625,-1.625,2.414837,3.146536,7.411999,6.665952,5.741628,9.647502,-0.1445447,-0.4471409,1.256977,0.5056975,-0.45162,1.330156,0.07577723,0.37504,1.347696,-0.1889333,-0.4609573,1.238247,0.5702058,-0.3870757,1.299659,0.06756905,-0.100967,1.358584,0.06877968,-0.4256431,1.346694,-0.1102976,0.07873876,1.337484,-0.01217606,-0.4162718,1.306383,-0.1558359,-0.1832922,1.333421,0.3577217,-0.1352953,1.367363,NA,NA,NotTracked,Unknown,
0.8994141,-0.3964844,0.006347656,-0.4467773,0.7851563,0.4453125,0,-2,-3,-3,-1,-1,1,0,0,-15,-8,-1,9,-3,-1,2,2.1875,2.1875,2.1875,-1.8125,-1.8125,-1.8125,2.418322,3.147559,7.415805,6.666752,5.740111,9.650802,-0.1443251,-0.447315,1.255467,0.4362404,-0.4143306,1.342171,0.07559413,0.3749346,1.347219,-0.1884633,-0.4614409,1.239083,0.4913301,-0.3682498,1.318231,0.06746115,-0.1010313,1.358332,0.06867201,-0.4257121,1.346473,-0.1103604,0.0787077,1.337398,-0.0122833,-0.4163178,1.306237,-0.1558899,-0.1832886,1.333409,0.3577876,-0.1350279,1.366422,NA,NA,NotTracked,Unknown,
0.9008789,-0.3916016,0.00390625,-0.4521484,0.7895508,0.4311523,-1,0,-2,-2,-2,-1,0,0,16,45,22,2,27,7,7,6,3.125,3.125,3.125,-4.6875,-4.6875,-4.6875,2.420699,3.148538,7.417911,6.667265,5.735923,9.658432,-0.1450747,-0.4471159,1.257079,0.4994465,-0.4279116,1.33259,0.07533253,0.3748578,1.346896,-0.1884095,-0.4451722,1.2413,0.559933,-0.3700262,1.313622,0.06727559,-0.1011769,1.358005,0.06854581,-0.4259153,1.346176,-0.1084542,0.07817803,1.337242,-0.01241463,-0.4164661,1.306077,-0.1560151,-0.1832156,1.333484,0.357274,-0.1342675,1.364629,NA,NA,NotTracked,Unknown,
0.90625,-0.3901367,0.008789063,-0.4521484,0.7851563,0.418457,1,0,0,-1,0,0,-1,-1,12,19,18,15,17,1,-6,5,2.375,2.375,2.375,-2.75,-2.75,-2.75,2.421766,3.148492,7.418673,6.669243,5.730611,9.666615,-0.1448804,-0.446896,1.256634,0.4367936,-0.4091246,1.342519,0.07510742,0.3748283,1.346544,-0.1822879,-0.4539226,1.233539,0.4911356,-0.3611746,1.305851,0.06717725,-0.1011903,1.357895,0.0684642,-0.4259208,1.34613,-0.1087474,0.07828876,1.337192,-0.0124879,-0.4164597,1.306072,-0.1561011,-0.1832704,1.333561,0.3571261,-0.1340255,1.364467,NA,NA,NotTracked,Unknown,
0.9052734,-0.3857422,0.002441406,-0.4433594,0.793457,0.4370117,-1,-3,0,-1,-1,-1,-1,-1,-13,0,2,-2,-4,4,-1,-11,1.5,1.5,1.5,-3.5,-3.5,-3.5,2.42415,3.148655,7.41881,6.668849,5.723872,9.672392,-0.14526,-0.44648,1.256632,0.4614625,-0.3497332,1.329738,0.07491838,0.3748717,1.34636,-0.1876149,-0.4559073,1.239678,0.5388905,-0.2915371,1.28952,0.06698655,-0.1011885,1.357725,0.06832326,-0.4258978,1.34601,-0.1091569,0.07830873,1.337228,-0.0126107,-0.4164149,1.30604,-0.1561446,-0.183311,1.333544,0.3573571,-0.134516,1.363854,NA,NA,NotTracked,Unknown,
0.9023438,-0.3886719,-0.0004882813,-0.4458008,0.8041992,0.4394531,-3,0,-2,0,0,-1,-1,-1,9,41,16,4,12,-1,-5,-8,-0.25,-0.25,-0.25,-0.875,-0.875,-0.875,2.423506,3.148536,7.420722,6.671429,5.714458,9.678102,-0.1444381,-0.4473707,1.256181,0.5862594,-0.1758145,1.32102,0.07474887,0.3748451,1.346097,-0.1881436,-0.4572195,1.239589,0.5737113,-0.1459887,1.330333,0.06681889,-0.1011749,1.357527,0.06806608,-0.4258953,1.345861,-0.1096733,0.07838662,1.337263,-0.01284711,-0.4163423,1.305953,-0.1563056,-0.1825855,1.333607,0.3538887,-0.1329742,1.364336,NA,NA,NotTracked,Unknown,
0.9057617,-0.3920898,-0.0004882813,-0.4477539,0.7871094,0.4433594,0,-1,1,0,0,-2,-2,0,-6,4,-2,0,-6,-9,-3,-9,0.75,0.75,0.75,-3.9375,-3.9375,-3.9375,2.423913,3.149288,7.421429,6.669072,5.709163,9.680344,-0.1445695,-0.4477841,1.257429,0.5094024,-0.5037082,1.331126,0.07463728,0.3748826,1.345933,-0.1882048,-0.45849,1.240696,0.561656,-0.4196645,1.301594,0.0667518,-0.1011719,1.357426,0.0680439,-0.4259029,1.345794,-0.1098083,0.07851827,1.337224,-0.01287574,-0.4163416,1.305924,-0.1564597,-0.1826334,1.333768,0.3538904,-0.1333466,1.364441,NA,NA,NotTracked,Unknown,
0.9047852,-0.3901367,0.01074219,-0.4443359,0.8178711,0.4321289,0,0,-1,0,-2,-1,0,-2,-1,-3,-3,-5,4,-1,2,3,-0.3125,-0.3125,-0.3125,1.5,1.5,1.5,2.423537,3.148461,7.42294,6.672117,5.704774,9.681199,-0.1450454,-0.4470798,1.256029,0.5121407,-0.486404,1.329027,0.07433399,0.3748657,1.345488,-0.1878397,-0.4574237,1.238314,0.572571,-0.4110076,1.304939,0.06655423,-0.1011679,1.357181,0.06784455,-0.4259144,1.345616,-0.1101176,0.07859071,1.337157,-0.01304579,-0.4163612,1.305871,-0.1566682,-0.182745,1.333851,0.3544098,-0.1334358,1.363772,NA,NA,NotTracked,Unknown,
0.9038086,-0.3896484,0.006835938,-0.4462891,0.7827148,0.4492188,0,-1,-1,-1,-1,-1,-1,-1,-11,-32,-6,3,10,2,-2,-6,-1.75,-1.75,-1.75,-3.6875,-3.6875,-3.6875,2.422636,3.148169,7.423141,6.671174,5.699884,9.684841,-0.1453897,-0.4474373,1.256492,0.4365276,-0.4123336,1.340907,0.07420786,0.3748617,1.345284,-0.1874595,-0.4557141,1.239323,0.4926356,-0.3625364,1.311412,0.0665011,-0.1011804,1.357134,0.06778349,-0.4259331,1.34555,-0.1102575,0.07860345,1.337129,-0.0131036,-0.4163775,1.305853,-0.1567146,-0.1827511,1.333826,0.3567475,-0.1355591,1.362441,NA,NA,NotTracked,Unknown,
0.9052734,-0.3876953,0.01416016,-0.4399414,0.7866211,0.4458008,-1,1,-1,1,-1,1,2,-1,5,3,-1,-2,5,-2,-2,4,-1.5,-1.5,-1.5,-0.8125,-0.8125,-0.8125,2.423221,3.147309,7.421721,6.67168,5.697893,9.686846,-0.1447678,-0.4468744,1.256198,0.4373714,-0.4131503,1.343407,0.07412794,0.374826,1.345114,-0.1897593,-0.4559385,1.241929,0.4969637,-0.3867821,1.315,0.06644913,-0.1011851,1.357006,0.06775583,-0.4259256,1.345462,-0.1106286,0.07855795,1.337167,-0.01312972,-0.416392,1.305804,-0.1567243,-0.1827569,1.333811,0.3567445,-0.1354886,1.362273,NA,NA,NotTracked,Unknown,
0.902832,-0.3891602,0.006835938,-0.4394531,0.7905273,0.4448242,-1,0,-1,-1,-1,0,-1,-2,-2,-8,1,0,9,4,1,-3,-1.9375,-1.9375,-1.9375,2.0625,2.0625,2.0625,2.423856,3.147003,7.419685,6.678479,5.690738,9.693767,-0.1451358,-0.4461771,1.255913,0.4370021,-0.4128496,1.342197,0.07401527,0.3747934,1.344767,-0.1894786,-0.4565922,1.240287,0.4937731,-0.3639343,1.308746,0.06638322,-0.1012023,1.356837,0.06773274,-0.4259581,1.345378,-0.1107974,0.07859874,1.337072,-0.01316306,-0.4164361,1.305747,-0.1567765,-0.1826693,1.333723,0.3566878,-0.135269,1.362159,NA,NA,NotTracked,Unknown,
0.9013672,-0.3911133,0.00390625,-0.4350586,0.8046875,0.4448242,-1,-1,-5,-3,-1,-1,-2,0,1,-9,-5,-4,-6,-4,-1,-5,-1.5625,-1.5625,-1.5625,2.75,2.75,2.75,2.424043,3.147416,7.418931,6.681323,5.687284,9.696021,-0.1445397,-0.4471515,1.256256,0.4370535,-0.410697,1.341515,0.07395834,0.3747783,1.344551,-0.1873148,-0.4556795,1.239113,0.4900474,-0.3595933,1.305833,0.06630155,-0.1011811,1.356706,0.06772069,-0.4259486,1.345341,-0.1108469,0.07864965,1.336942,-0.0131737,-0.4164306,1.305731,-0.1567888,-0.1826829,1.333709,0.3567231,-0.1351046,1.361986,NA,NA,NotTracked,Unknown,
0.9042969,-0.3842773,-0.006835938,-0.4248047,0.7924805,0.425293,-1,-2,-3,1,-2,-1,0,-1,-13,-6,-1,4,-2,-1,0,-1,-2.0625,-2.0625,-2.0625,-1,-1,-1,2.422478,3.14716,7.418955,6.690065,5.671309,9.7026,-0.1447797,-0.4468056,1.255234,0.4971892,-0.4574991,1.332393,0.07398724,0.3747621,1.344146,-0.1894844,-0.4556541,1.24061,0.552922,-0.3844792,1.295765,0.06624306,-0.1011926,1.356489,0.06771179,-0.4259537,1.345233,-0.1109345,0.07869437,1.336712,-0.01319175,-0.4164337,1.305689,-0.1568455,-0.1827099,1.33364,0.3566692,-0.1351686,1.361755,NA,NA,NotTracked,Unknown,
0.9042969,-0.3842773,-0.006835938,-0.4248047,0.7924805,0.425293,-1,-2,-3,1,-2,-1,0,-1,-13,-6,-1,4,-2,-1,0,-1,-2.0625,-2.0625,-2.0625,-1,-1,-1,2.422478,3.14716,7.418955,6.690065,5.671309,9.7026,-0.1447338,-0.4464704,1.256189,0.4795214,-0.3382419,1.326681,0.07403293,0.3747398,1.344046,-0.1885464,-0.4527863,1.24255,0.5650097,-0.2860492,1.292342,0.06618608,-0.1012021,1.356439,0.06764448,-0.4259731,1.345205,-0.1110342,0.07874472,1.33666,-0.01327215,-0.4164291,1.305672,-0.1569432,-0.1826415,1.33366,0.3562196,-0.1349793,1.362054,NA,NA,NotTracked,Unknown,
0.9018555,-0.3774414,0.003417969,-0.418457,0.7929688,0.4116211,-1,-1,0,0,-1,-2,-1,-2,-5,-3,-1,-2,2,-3,-2,-1,-1.75,-1.75,-1.75,-2.0625,-2.0625,-2.0625,2.419957,3.146004,7.418821,6.691837,5.653145,9.707185,-0.1450732,-0.4462073,1.256042,0.5855287,-0.175522,1.323145,0.07412396,0.3747606,1.343718,-0.1867826,-0.4562798,1.236672,0.5732898,-0.1448617,1.329111,0.06609406,-0.1011932,1.356351,0.06746884,-0.4260291,1.345094,-0.111163,0.07876881,1.336542,-0.0134268,-0.4164176,1.305593,-0.1569295,-0.1824376,1.333686,0.3520294,-0.1309386,1.363273,NA,NA,NotTracked,Unknown,
0.9038086,-0.378418,-0.002929688,-0.3916016,0.7436523,0.4433594,-2,-2,2,1,-1,-2,-1,0,7,-4,-3,-2,-4,-1,-2,0,-1.4375,-1.4375,-1.4375,4.0625,4.0625,4.0625,2.418091,3.144859,7.419854,6.695035,5.628813,9.71117,-0.1449937,-0.4472484,1.254431,0.435625,-0.40865,1.341197,0.07419943,0.3747311,1.343505,-0.190328,-0.4547856,1.243307,0.4882169,-0.3569975,1.305633,0.0660286,-0.1011987,1.356147,0.06749202,-0.4260437,1.34496,-0.1111963,0.07882437,1.336242,-0.01342081,-0.4164341,1.30545,-0.1570601,-0.1821863,1.333472,0.3519815,-0.1317996,1.363444,NA,NA,NotTracked,Unknown,
0.902832,-0.3833008,0.009277344,-0.3666992,0.7905273,0.4228516,-1,-3,-2,-3,-2,0,0,-2,-5,-1,-1,0,-1,-2,-1,1,-1.5,-1.5,-1.5,0.3125,0.3125,0.3125,2.418113,3.143764,7.418859,6.701219,5.587213,9.724316,-0.1448487,-0.4465518,1.255594,0.4615752,-0.339158,1.328019,0.07442589,0.3747642,1.343211,-0.1853992,-0.4656588,1.233417,0.5296187,-0.2814707,1.287288,0.06604419,-0.101196,1.356088,0.06750187,-0.4260506,1.34494,-0.111234,0.07880492,1.336106,-0.01341629,-0.4164358,1.305449,-0.1571068,-0.1821927,1.333353,0.3519709,-0.1327897,1.363743,NA,NA,NotTracked,Unknown,
0.9013672,-0.3896484,0.01464844,-0.3237305,0.784668,0.4594727,-1,0,-1,-2,1,0,0,0,2,-5,-2,-2,-1,-1,-1,0,-1.1875,-1.1875,-1.1875,-4.875,-4.875,-4.875,2.418016,3.142555,7.418129,6.700173,5.538665,9.736806,-0.1446488,-0.4464013,1.255056,0.4677445,-0.3476786,1.329359,0.07471237,0.3747221,1.342723,-0.1894288,-0.4611744,1.241081,0.5476919,-0.2953667,1.299909,0.06600625,-0.1011823,1.356026,0.06750841,-0.4260508,1.344922,-0.1113348,0.07876568,1.335856,-0.01341203,-0.4164334,1.305447,-0.1572562,-0.1820697,1.333197,0.3540447,-0.1361585,1.363412,NA,NA,NotTracked,Unknown,
0.9101563,-0.3867188,0.01171875,-0.3066406,0.8105469,0.4555664,-1,-1,-2,1,-1,-1,0,0,-1,-5,0,0,1,-2,-1,1,-0.6875,-0.6875,-0.6875,-4,-4,-4,2.419817,3.141449,7.416343,6.697085,5.485179,9.746921,-0.1453324,-0.4465221,1.254887,0.4715316,-0.3473412,1.32939,0.07531762,0.3746103,1.342064,-0.1894158,-0.4599752,1.240239,0.5485504,-0.2939071,1.296393,0.06599738,-0.10118,1.3558,0.06757955,-0.426052,1.344886,-0.1114465,0.07876074,1.335468,-0.01334885,-0.4164256,1.305427,-0.1572635,-0.1818451,1.333021,0.3540527,-0.136203,1.363637,NA,NA,NotTracked,Unknown,
0.9067383,-0.3828125,0.009277344,-0.2685547,0.8227539,0.456543,-2,-1,1,2,0,-2,0,1,3,0,-2,-2,0,1,0,0,-0.5,-0.5,-0.5,-3,-3,-3,2.421296,3.141134,7.414584,6.696352,5.428625,9.755098,-0.1444533,-0.4473037,1.255429,0.4744097,-0.3487239,1.330355,0.07571775,0.3745853,1.341643,-0.188896,-0.4635003,1.237391,0.5521146,-0.2912219,1.293184,0.06597597,-0.1011578,1.355785,0.06763177,-0.4260425,1.344907,-0.1114059,0.07879711,1.335391,-0.01327283,-0.4164067,1.305485,-0.1572924,-0.1818242,1.333022,0.351713,-0.136158,1.364739,NA,NA,NotTracked,Unknown,
0.9042969,-0.3754883,0.005371094,-0.2143555,0.8657227,0.4624023,-1,0,-1,0,-2,-1,-2,0,-7,-8,-4,-2,-2,-3,-3,-6,-0.8125,-0.8125,-0.8125,-4.5,-4.5,-4.5,2.422893,3.13987,7.413422,6.69506,5.365095,9.766294,-0.1439826,-0.4467868,1.25466,0.4592769,-0.3734079,1.332222,0.0760146,0.3745656,1.341245,-0.1874434,-0.4598411,1.237459,0.5276833,-0.3032189,1.301618,0.06600189,-0.1011481,1.355675,0.06772216,-0.4260358,1.344868,-0.1114056,0.07877737,1.335122,-0.01320034,-0.4164087,1.305476,-0.1572915,-0.1818235,1.333023,0.3510377,-0.1364721,1.365094,NA,NA,NotTracked,Unknown,
0.9057617,-0.3769531,0.001953125,-0.2080078,0.8569336,0.4667969,-3,0,0,1,-1,-2,0,-2,-5,-5,-3,-2,-2,-1,1,0,-0.9375,-0.9375,-0.9375,-2.0625,-2.0625,-2.0625,2.422477,3.139158,7.413705,6.695506,5.333566,9.772592,-0.1443769,-0.4463212,1.254857,0.4513323,-0.3738406,1.335769,0.07645804,0.3745903,1.340785,-0.1843888,-0.4569113,1.229053,0.5173309,-0.3066617,1.295318,0.06599169,-0.1011449,1.355595,0.06773961,-0.4260371,1.34486,-0.1112808,0.07887738,1.334857,-0.01318781,-0.4164063,1.305462,-0.1573004,-0.1817252,1.332981,0.3461803,-0.1381537,1.366864,NA,NA,NotTracked,Unknown,
0.9106445,-0.3779297,-0.002441406,-0.1757813,0.8735352,0.4418945,-1,-1,-2,-1,-1,-1,-2,-3,-2,-1,-1,-1,-1,0,-1,-2,1.4375,1.4375,1.4375,17.0625,17.0625,17.0625,2.421084,3.137354,7.4168,6.717503,5.236991,9.796803,-0.1438458,-0.4469255,1.255634,0.5259008,-0.3354074,1.321622,0.07689954,0.3745834,1.340392,-0.1851126,-0.4441857,1.238792,0.5741662,-0.2697843,1.287458,0.06601762,-0.1011071,1.355543,0.06777141,-0.4260097,1.344877,-0.1112301,0.07900243,1.334727,-0.01315006,-0.4163741,1.305507,-0.157334,-0.181606,1.332986,0.342448,-0.1389191,1.368171,NA,NA,NotTracked,Unknown,
0.9013672,-0.3769531,0.006347656,-0.1279297,0.8540039,0.4467773,-1,-1,-3,-1,0,-1,-2,0,-1,-1,-1,-1,-1,-1,-3,2,-0.3125,-0.3125,-0.3125,18.4375,18.4375,18.4375,2.418489,3.135617,7.420536,6.729025,5.201498,9.804916,-0.1436006,-0.4474279,1.255886,0.5151994,-0.3319711,1.320421,0.07792845,0.3745347,1.339152,-0.1877021,-0.4544581,1.242444,0.5472493,-0.2657988,1.28381,0.0660677,-0.1011231,1.355325,0.06796116,-0.4260387,1.344847,-0.1110548,0.07909929,1.334223,-0.01299234,-0.4163952,1.305556,-0.1573156,-0.1815863,1.332946,0.3381329,-0.1400392,1.369772,NA,NA,NotTracked,Unknown,
0.8964844,-0.3842773,0,-0.1621094,0.7919922,0.3540039,-2,-1,0,2,0,-1,-1,-1,8,-1,-4,-1,-1,-3,0,5,0.4375,0.4375,0.4375,32.8125,32.8125,32.8125,2.415486,3.135167,7.424945,6.778819,5.079839,9.846705,-0.1434276,-0.4470445,1.256446,0.4465947,-0.3900278,1.337569,0.07844483,0.3744767,1.338609,-0.186376,-0.4582043,1.239069,0.5376058,-0.3225689,1.298815,0.0661304,-0.1011121,1.355291,0.06803168,-0.4260098,1.34489,-0.1109477,0.07917627,1.33414,-0.01292503,-0.4163735,1.305624,-0.1572475,-0.1816299,1.332951,0.3312456,-0.1387359,1.372339,NA,NA,NotTracked,Unknown,
0.8945313,-0.3813477,0.004394531,-0.004394531,0.8461914,0.4213867,0,-1,-1,-2,-1,0,0,-1,14,-3,-3,-2,-3,-1,-4,-3,2.0625,2.0625,2.0625,25.3125,25.3125,25.3125,2.413785,3.135255,7.429594,6.812204,4.976175,9.867749,-0.144733,-0.4468055,1.256434,0.3585532,-0.1051094,1.098812,0.07881574,0.3743128,1.338113,-0.1870936,-0.4567174,1.239659,0.3220038,-0.1422564,1.077889,0.06615103,-0.1011095,1.3552,0.06804428,-0.4259976,1.3449,-0.1108975,0.07925165,1.334002,-0.01288612,-0.4163161,1.305748,-0.1571564,-0.1813817,1.332961,0.324458,-0.1368663,1.375079,NA,NA,NotTracked,Closed,
0.9042969,-0.3808594,0.006835938,0.1337891,0.7807617,0.4697266,-2,-1,-1,-1,1,-2,-2,0,-9,1,0,2,0,-2,1,-1,1.8125,1.8125,1.8125,33.1875,33.1875,33.1875,2.413412,3.134863,7.43362,6.841412,4.851441,9.899915,-0.143693,-0.4479801,1.256665,0.3538934,-0.1266139,1.099041,0.07908286,0.3742256,1.337734,-0.1861398,-0.4572307,1.239108,0.318608,-0.1296868,1.074437,0.06626572,-0.1011223,1.355078,0.06816845,-0.4260143,1.344962,-0.1082417,0.07834834,1.33411,-0.01276635,-0.4163298,1.305909,-0.1571465,-0.1813423,1.332997,0.3199311,-0.1356434,1.377787,NA,NA,NotTracked,Closed,
0.9077148,-0.3813477,0.01318359,0.09082031,0.730957,0.3798828,1,0,0,-1,-1,0,1,-3,14,0,-2,-1,-1,-1,-2,-2,2.1875,2.1875,2.1875,69.375,69.375,69.375,2.41459,3.134574,7.434128,6.901139,4.727732,9.940077,-0.1440393,-0.4477246,1.256658,0.3516381,-0.1512899,1.096483,0.07931582,0.3742868,1.337478,-0.187601,-0.4611339,1.240226,0.3257359,-0.1964736,1.065364,0.06632486,-0.1011194,1.355022,0.06833304,-0.4260064,1.345042,-0.1083805,0.07840219,1.334087,-0.01258642,-0.4163225,1.306087,-0.1571382,-0.1812285,1.33305,0.3296335,-0.1927715,1.356538,NA,NA,NotTracked,Unknown,
0.9125977,-0.3603516,0.009277344,0.2456055,0.7568359,0.3579102,-2,-1,0,-1,-2,-3,-2,-1,-30,-4,-1,-1,-1,-1,-3,-8,2.0625,2.0625,2.0625,104.25,104.25,104.25,2.418187,3.133083,7.433911,6.997198,4.585032,9.987052,-0.1437058,-0.4490717,1.257018,0.3447785,-0.2072275,1.100453,0.07968772,0.3742316,1.33698,-0.1872562,-0.4590775,1.243456,0.3093498,-0.2266964,1.072111,0.06652475,-0.1011288,1.354933,0.06883722,-0.4258985,1.345277,-0.1085903,0.0785202,1.333933,-0.01199171,-0.416222,1.306585,-0.1570191,-0.1809002,1.333296,0.3000547,-0.1322445,1.37955,NA,NA,NotTracked,Unknown,
0.8945313,-0.3925781,0.001953125,0.2861328,0.8198242,0.1899414,0,-1,-2,0,-2,-1,-1,1,8,2,0,-1,-2,-1,0,1,-0.9375,-0.9375,-0.9375,101.75,101.75,101.75,2.418706,3.131654,7.433125,7.099264,4.418691,0.04171247,-0.143802,-0.448843,1.256832,0.3394181,-0.2365869,1.108074,0.07986571,0.3741381,1.336648,-0.1878674,-0.4573956,1.243969,0.30871,-0.2594852,1.13,0.06661826,-0.1011603,1.354898,0.06909511,-0.4259357,1.345352,-0.1086437,0.07849873,1.333886,-0.011761,-0.416263,1.306715,-0.1569915,-0.1808634,1.33329,0.3041637,-0.1590569,1.384665,NA,NA,NotTracked,Unknown,
0.9003906,-0.4003906,0.01464844,0.331543,0.9140625,0.1147461,1,0,-1,0,-1,1,1,0,0,-2,0,2,-1,-1,-2,-1,2.625,2.625,2.625,98.1875,98.1875,98.1875,2.42181,3.132936,7.432674,7.144771,4.326967,0.06734639,-0.1438345,-0.4490579,1.257617,0.3350467,-0.2773959,1.111423,0.07990939,0.3741639,1.336557,-0.1871769,-0.4563376,1.243166,0.2927991,-0.2728611,1.1117,0.06672444,-0.1011366,1.354839,0.06941004,-0.4258386,1.345438,-0.1088333,0.07848097,1.333874,-0.01143778,-0.4161701,1.306912,-0.1569102,-0.1808284,1.333323,0.303328,-0.1507911,1.377771,NA,NA,NotTracked,Unknown,
0.9018555,-0.3911133,0.0078125,0.6313477,0.8583984,0.05859375,0,0,-3,1,-1,-2,-1,0,-3,-1,-2,-1,-2,-1,-2,-2,1.75,1.75,1.75,40.375,40.375,40.375,2.424523,3.133965,7.434161,7.209074,3.996099,0.1578169,-0.1431555,-0.4492843,1.257155,0.3299117,-0.3134045,1.124663,0.0799113,0.3741184,1.336434,-0.1883872,-0.4714211,1.24575,0.3037981,-0.3509038,1.163833,0.06686146,-0.1011286,1.354842,0.06978955,-0.4256639,1.345671,-0.1089367,0.07848293,1.333966,-0.01099228,-0.4160547,1.307433,-0.1568089,-0.1809036,1.333419,0.3020065,-0.1494665,1.376488,NA,NA,NotTracked,Unknown,
0.9155273,-0.3979492,0.01123047,0.9418945,0.605957,0.1201172,-1,-2,0,-2,0,0,0,-1,-2,-2,-1,-2,-1,0,-1,0,0.875,0.875,0.875,46.875,46.875,46.875,2.427601,3.136502,7.432605,7.201608,3.753959,0.2378727,-0.1432822,-0.4491946,1.256396,0.3185184,-0.3510493,1.13679,0.07993139,0.3739989,1.336338,-0.1869791,-0.4605695,1.242926,0.3076488,-0.4051459,1.18075,0.06706292,-0.1011409,1.354825,0.07054628,-0.4254663,1.345862,-0.1089462,0.07848737,1.333934,-0.01017729,-0.4161742,1.307756,-0.1564269,-0.1807301,1.333572,0.3029116,-0.1528176,1.372792,NA,NA,NotTracked,Unknown,
0.9155273,-0.3979492,0.01123047,0.9418945,0.605957,0.1201172,-2,-1,-1,-1,0,1,-2,0,-2,-2,-1,-2,-1,0,-1,0,0.875,0.875,0.875,46.875,46.875,46.875,2.427601,3.136502,7.432605,7.201608,3.753959,0.2378727,-0.1429653,-0.4493956,1.256208,0.3015517,-0.3776873,1.152488,0.07994238,0.373946,1.336268,-0.1860201,-0.4619712,1.241244,0.2615963,-0.3843957,1.167417,0.06719984,-0.1012062,1.354791,0.07111281,-0.4256179,1.345921,-0.109014,0.07846152,1.333962,-0.009658718,-0.4162851,1.307841,-0.1564858,-0.1807121,1.333632,0.3027288,-0.1571927,1.368244,NA,NA,NotTracked,Unknown,
0.9262695,-0.3818359,0.03027344,0.9780273,0.5463867,0.1147461,1,-1,-1,-1,-2,-2,0,-1,-2,0,-1,-1,-1,0,-2,-3,2.8125,2.8125,2.8125,91.1875,91.1875,91.1875,2.435957,3.139158,7.427592,7.22107,3.533735,0.3274949,-0.1427149,-0.4487395,1.256125,0.2855916,-0.4012803,1.17198,0.07989682,0.3739093,1.336264,-0.1857287,-0.455951,1.241427,0.2447938,-0.4089268,1.1865,0.06721611,-0.1012164,1.354784,0.07119657,-0.4256437,1.345879,-0.1090404,0.07845336,1.33398,-0.00958907,-0.4163093,1.307816,-0.1562653,-0.181349,1.333794,0.3030005,-0.1599797,1.364945,NA,NA,NotTracked,Unknown,
0.9155273,-0.3637695,0.01757813,1.084961,0.5161133,0.1123047,-2,0,-1,-1,-1,-1,-1,2,-1,-2,0,-1,-2,1,-1,0,6.6875,6.6875,6.6875,106.4375,106.4375,106.4375,2.446841,3.142196,7.423841,7.26947,3.333617,0.4104804,-0.1424208,-0.4480419,1.254822,0.2705506,-0.4183793,1.191937,0.07981758,0.3738652,1.336259,-0.1875401,-0.4636877,1.239097,0.2345625,-0.4100338,1.194815,0.0673094,-0.101225,1.354736,0.07130396,-0.4256113,1.34574,-0.1092576,0.0783741,1.334186,-0.009505481,-0.4163466,1.307746,-0.15603,-0.182196,1.333827,0.3027152,-0.1616168,1.361774,NA,NA,NotTracked,Unknown,
0.9179688,-0.3579102,0.006835938,1.090332,0.4804688,-0.1108398,-1,-3,0,-1,-1,-3,-1,-2,-3,-1,-2,0,-1,0,-3,-3,7.625,7.625,7.625,75.5,75.5,75.5,2.452213,3.144106,7.423081,7.332954,3.186458,0.4460186,-0.1422309,-0.4487624,1.255541,0.2577269,-0.4237622,1.216655,0.07971481,0.3738459,1.336323,-0.1879261,-0.4649191,1.243273,0.2223516,-0.4174007,1.221,0.06742828,-0.1012591,1.354642,0.07139952,-0.4256421,1.345463,-0.1094351,0.07832351,1.334462,-0.00945296,-0.4162898,1.307608,-0.155814,-0.1824258,1.333923,0.3023657,-0.1629886,1.35956,NA,NA,NotTracked,Unknown,
0.9116211,-0.3701172,-0.01123047,0.9799805,1.044922,-0.2368164,-1,-2,-2,-1,0,-1,0,0,-1,-1,-1,-2,-7,-4,0,0,7.4375,7.4375,7.4375,-22.9375,-22.9375,-22.9375,2.454806,3.147067,7.433237,7.47705,3.163327,0.315044,-0.1415682,-0.4467895,1.25595,0.2459235,-0.4310081,1.232576,0.07955671,0.3738043,1.33634,-0.1829976,-0.4640731,1.236477,0.208679,-0.4199495,1.226216,0.06769028,-0.1013275,1.354477,0.07155466,-0.4256543,1.345208,-0.1095402,0.07828345,1.334682,-0.00937219,-0.4162618,1.307521,-0.1554241,-0.1834961,1.334087,0.3012315,-0.165746,1.356545,NA,NA,NotTracked,Unknown,
0.9067383,-0.371582,-0.02978516,0.9667969,0.7211914,-0.2109375,-2,-1,-1,0,-2,0,0,-1,-1,-1,-2,-2,3,-2,-1,-1,10.5625,10.5625,10.5625,-211.75,-211.75,-211.75,2.447,3.148496,7.453526,7.3966,3.161759,0.2008698,-0.1416471,-0.4479744,1.255447,0.2410295,-0.4373169,1.237352,0.07935944,0.3737952,1.336322,-0.1847107,-0.4582291,1.242222,0.2006291,-0.4132165,1.226793,0.06786444,-0.1014009,1.354032,0.07160908,-0.4257249,1.344501,-0.1096842,0.07832986,1.335151,-0.009385713,-0.4162793,1.30735,-0.1548823,-0.1839101,1.334337,0.3005411,-0.1705277,1.353667,NA,NA,NotTracked,Unknown,
0.9082031,-0.3789063,-0.01904297,0.9145508,0.2124023,-0.001464844,0,-2,-2,-1,1,0,0,-3,0,0,-1,1,-1,-1,-2,-2,6.875,6.875,6.875,-163.5625,-163.5625,-163.5625,2.428741,3.146991,7.489896,7.223244,3.165881,0.1631274,-0.1419552,-0.44785,1.256349,0.2429675,-0.4392165,1.235885,0.07915685,0.3737344,1.336073,-0.185223,-0.4628828,1.239926,0.1958224,-0.4432079,1.217937,0.06796601,-0.1013857,1.353854,0.07170841,-0.4256583,1.344296,-0.1098071,0.07823443,1.33542,-0.009341521,-0.4162743,1.307289,-0.1546375,-0.1839515,1.33455,0.2999696,-0.1708062,1.353366,NA,NA,NotTracked,Unknown,
0.8989258,-0.394043,-0.01220703,0.8793945,0.175293,0.1040039,-2,-1,-2,0,-2,0,-1,0,0,-1,-3,-2,1,-1,0,0,3.25,3.25,3.25,1.8125,1.8125,1.8125,2.420264,3.145283,7.501328,7.19987,3.15975,0.1371192,-0.1424132,-0.4480872,1.258318,0.2404508,-0.4588476,1.231182,0.07903543,0.3736581,1.335873,-0.1853891,-0.4620957,1.240049,0.1933277,-0.4408513,1.216572,0.06822217,-0.1014916,1.353386,0.07176284,-0.4257652,1.343845,-0.1073086,0.07772897,1.33575,-0.009338985,-0.4163085,1.307125,-0.1542846,-0.1845292,1.334977,0.2987519,-0.1713048,1.353161,NA,NA,NotTracked,Unknown,
0.8837891,-0.4267578,0.009277344,0.9316406,0.3920898,0.1035156,-1,0,1,-2,-1,0,1,0,-1,-1,-1,-1,0,-2,0,-1,-2.4375,-2.4375,-2.4375,67.9375,67.9375,67.9375,2.399209,3.142627,7.523098,7.286944,3.161715,0.1140552,-0.1441746,-0.4476441,1.25975,0.248369,-0.4453097,1.233898,0.079043,0.3735,1.335574,-0.1881802,-0.459098,1.245105,0.200236,-0.4349759,1.219798,0.06841344,-0.101525,1.353245,0.07193413,-0.4257469,1.343702,-0.1074003,0.0778306,1.335944,-0.009191012,-0.4163381,1.307057,-0.1541885,-0.1845221,1.335175,0.2973141,-0.1724373,1.352958,NA,NA,NotTracked,Unknown,
0.8857422,-0.4287109,0.02392578,0.918457,0.4365234,0.08398438,1,-2,0,1,0,-1,0,-1,0,-1,-2,-1,-1,0,-2,-1,-2.4375,-2.4375,-2.4375,48,48,48,2.392868,3.141293,7.529446,7.352833,3.157579,0.1075025,-0.1446944,-0.4482006,1.260788,0.2490518,-0.443947,1.233653,0.07909629,0.3734535,1.335446,-0.1900339,-0.4606232,1.251857,0.2005982,-0.4352784,1.22022,0.06857758,-0.1015877,1.353124,0.07198099,-0.4257349,1.343613,-0.1074461,0.07787687,1.336095,-0.009148076,-0.416344,1.307038,-0.1541212,-0.1847526,1.335518,0.2967546,-0.173296,1.352691,NA,NA,NotTracked,Unknown,
0.8867188,-0.4199219,0.04785156,0.9091797,0.4077148,0.07373047,-2,-1,0,0,-2,1,-1,1,0,-1,-1,-2,1,-2,-1,0,-1.625,-1.625,-1.625,36.3125,36.3125,36.3125,2.388294,3.140866,7.534304,7.371223,3.15304,0.1090415,-0.1436116,-0.4478595,1.260841,0.2549873,-0.440631,1.236269,0.07947973,0.3732014,1.335163,-0.187738,-0.4599486,1.245407,0.2098155,-0.4482853,1.22305,0.06900891,-0.101697,1.35295,0.0721709,-0.4256689,1.343473,-0.1074539,0.07798912,1.336213,-0.008909059,-0.4163721,1.306876,-0.1540523,-0.1850532,1.336022,0.2993606,-0.1797657,1.351463,NA,NA,NotTracked,Unknown,
0.8979492,-0.3920898,0.04394531,0.9174805,0.3647461,0.04199219,-1,-1,-1,1,-1,-2,-1,0,0,0,-3,-2,-2,1,-2,0,-0.4375,-0.4375,-0.4375,13.0625,13.0625,13.0625,2.403676,3.147472,7.520289,7.417602,3.137537,0.09679277,-0.1439115,-0.4469444,1.260157,0.2563168,-0.4410442,1.236956,0.0799548,0.3730494,1.334911,-0.187617,-0.4599162,1.244923,0.2061855,-0.4230169,1.225824,0.06918544,-0.1017529,1.352864,0.0722366,-0.4256346,1.343354,-0.1074401,0.0780387,1.336335,-0.008838931,-0.4163886,1.306792,-0.1540605,-0.1851534,1.336125,0.3008927,-0.1828314,1.350569,NA,NA,NotTracked,Unknown,
0.9082031,-0.3759766,0.02001953,0.9365234,0.3554688,0.03466797,0,-1,-1,-1,0,-1,0,-2,-2,-1,-2,0,0,-1,-1,-1,0.875,0.875,0.875,-11.3125,-11.3125,-11.3125,2.417848,3.152419,7.507357,7.420799,3.129231,0.08607665,-0.1431761,-0.4471854,1.25903,0.2582466,-0.4413878,1.2373,0.08045126,0.3728313,1.334787,-0.1884355,-0.4533232,1.245336,0.2087408,-0.4214976,1.228187,0.06951467,-0.1018646,1.352772,0.07252336,-0.4256664,1.343215,-0.1074193,0.07801936,1.336439,-0.008520191,-0.4165213,1.306586,-0.1540059,-0.1852161,1.336215,0.3018553,-0.1846749,1.349625,NA,NA,NotTracked,Unknown,
0.9052734,-0.3686523,-0.00390625,0.9501953,0.3212891,0.02929688,0,-1,-1,0,1,0,-1,-2,-2,0,-1,-2,-1,-2,0,-1,0.125,0.125,0.125,-14.875,-14.875,-14.875,2.427562,3.154641,7.497633,7.401097,3.120783,0.08810588,-0.1425358,-0.4479664,1.257813,0.2580403,-0.4417586,1.237905,0.08083414,0.3726724,1.334735,-0.1840008,-0.458771,1.235374,0.2083134,-0.4276292,1.226987,0.06960785,-0.101909,1.352773,0.07258378,-0.4256462,1.343153,-0.1073913,0.07807618,1.336643,-0.008453771,-0.4165188,1.306563,-0.1539882,-0.1852614,1.336288,0.2995567,-0.183128,1.348814,NA,NA,NotTracked,Unknown,
0.9038086,-0.3789063,-0.02587891,0.9448242,0.340332,0.01904297,-1,-2,2,-3,-2,0,-2,1,-1,-1,-1,-1,-2,0,-2,-1,-2.6875,-2.6875,-2.6875,-3.9375,-3.9375,-3.9375,2.429008,3.155303,7.493519,7.376417,3.116615,0.1072211,-0.1417573,-0.4479037,1.256883,0.2575721,-0.4417884,1.237608,0.08118797,0.3725736,1.334853,-0.1829091,-0.4522281,1.238271,0.2141431,-0.4430077,1.2251,0.06986526,-0.1019581,1.352793,0.07268746,-0.425642,1.343111,-0.1073616,0.07808635,1.336723,-0.008299172,-0.4165529,1.306479,-0.1539576,-0.1852292,1.33628,0.3003424,-0.1842798,1.348356,NA,NA,NotTracked,Unknown,
0.9008789,-0.3881836,-0.02539063,0.9248047,0.3745117,0.01074219,-2,0,-2,-1,-1,-1,-1,1,0,0,-1,-1,-1,0,-1,-2,-4.25,-4.25,-4.25,-2.75,-2.75,-2.75,2.424964,3.155617,7.492644,7.348983,3.117757,0.1347836,-0.1420877,-0.4472691,1.257876,0.2564731,-0.4419492,1.236642,0.08193703,0.3724127,1.334981,-0.1870845,-0.4592668,1.248442,0.2129434,-0.4405801,1.222487,0.07026272,-0.1019892,1.352813,0.07293776,-0.4255897,1.343021,-0.1072648,0.0781026,1.336832,-0.008026886,-0.4165476,1.306376,-0.1536849,-0.1853989,1.336437,0.2991121,-0.1836157,1.348011,NA,NA,NotTracked,NotTracked,
0.9008789,-0.3881836,-0.02539063,0.9003906,0.3945313,0.0004882813,-2,-2,-1,-1,0,0,0,0,-2,-1,-2,0,-1,-2,-3,-1,-4.25,-4.25,-4.25,-6.8125,-6.8125,-6.8125,2.424964,3.155617,7.492644,7.325399,3.120106,0.154073,-0.1418492,-0.4472995,1.257902,0.2522586,-0.4420346,1.236215,0.08237511,0.3722554,1.335043,-0.1853304,-0.4590743,1.241977,0.2076785,-0.4242743,1.227105,0.07041801,-0.1019943,1.352852,0.07308286,-0.4255738,1.342979,-0.107191,0.07813092,1.336996,-0.007877007,-0.4165207,1.306303,-0.1535914,-0.1852837,1.336526,0.2980451,-0.1830469,1.347884,NA,NA,NotTracked,NotTracked,
0.9106445,-0.3745117,0.009765625,0.8964844,0.4282227,-0.01660156,-3,-3,-1,0,-1,-2,0,-2,-1,0,-1,-1,0,-2,0,-2,2.25,2.25,2.25,-9.8125,-9.8125,-9.8125,2.410623,3.155187,7.508672,7.320962,3.121646,0.1500625,-0.1423639,-0.4464376,1.257906,0.2502583,-0.4428072,1.235632,0.08271097,0.3722009,1.335218,-0.186322,-0.4580186,1.242872,0.2062543,-0.4312867,1.222659,0.0706479,-0.1020242,1.352847,0.07313743,-0.4255713,1.342929,-0.1070418,0.07811606,1.33709,-0.007837058,-0.4165043,1.306277,-0.1535022,-0.1852667,1.336594,0.2990042,-0.1847644,1.34792,NA,NA,NotTracked,NotTracked,
0.909668,-0.3730469,0.01318359,0.9135742,0.4101563,-0.006835938,0,1,1,-1,-2,1,-1,-1,-2,-2,-1,-1,-2,-1,-1,-2,1.75,1.75,1.75,-12.9375,-12.9375,-12.9375,2.41056,3.154121,7.510286,7.330342,3.120452,0.1271769,-0.1418855,-0.4482441,1.257636,0.2490437,-0.4431753,1.236076,0.08294541,0.3722555,1.335397,-0.1876091,-0.454419,1.246716,0.2081304,-0.4343233,1.223253,0.07070734,-0.1020161,1.352853,0.07316332,-0.4255689,1.342866,-0.1070189,0.07806969,1.337221,-0.00780692,-0.4164838,1.306178,-0.1532825,-0.1854137,1.336622,0.3000076,-0.18663,1.347948,NA,NA,NotTracked,NotTracked,
0.9042969,-0.3857422,0.008300781,0.9208984,0.3652344,0.03808594,0,0,1,0,-1,-2,-3,-1,-2,-2,-1,0,-2,-2,-1,-1,0.9375,0.9375,0.9375,-3.375,-3.375,-3.375,2.411099,3.153039,7.512279,7.342466,3.116796,0.1054376,-0.1428353,-0.4486262,1.258831,0.2495998,-0.4433287,1.237746,0.08321747,0.372253,1.335733,-0.183444,-0.4592887,1.239484,0.2089861,-0.4312466,1.224919,0.07093681,-0.1020734,1.352928,0.07328364,-0.4256106,1.342875,-0.1069678,0.07800699,1.337453,-0.007717492,-0.4165171,1.306188,-0.1531347,-0.1854,1.3367,0.2985502,-0.183887,1.348736,NA,NA,NotTracked,NotTracked,
0.9072266,-0.3896484,0.01269531,0.9213867,0.3754883,0.04931641,1,-1,-3,0,-1,0,-1,-1,-2,-1,-1,-2,-1,-2,-2,-3,0.75,0.75,0.75,10.1875,10.1875,10.1875,2.411829,3.152545,7.512535,7.364333,3.113394,0.09097593,-0.1422958,-0.4485402,1.25876,0.2496639,-0.4442908,1.238333,0.08356667,0.3722217,1.336098,-0.1852117,-0.4642049,1.239011,0.206832,-0.4289844,1.22499,0.0713047,-0.1022008,1.353083,0.07342815,-0.425734,1.342876,-0.1047487,0.0774494,1.337874,-0.007622959,-0.4165424,1.306196,-0.1528955,-0.185594,1.336918,0.2979691,-0.182923,1.349226,NA,NA,NotTracked,NotTracked,
0.9003906,-0.3979492,-0.002441406,0.9155273,0.3813477,0.04443359,-3,-2,-1,-1,-1,1,0,0,1,-1,-1,-2,0,-1,-2,-1,2.9375,2.9375,2.9375,9.3125,9.3125,9.3125,2.417001,3.153644,7.512549,7.386921,3.111076,0.07856988,-0.141884,-0.4477471,1.259258,0.25148,-0.4452509,1.239524,0.08376606,0.3721946,1.336275,-0.1857364,-0.4603605,1.243841,0.2066829,-0.4328126,1.223644,0.07133182,-0.102213,1.3531,0.07347467,-0.4257247,1.342869,-0.104804,0.0774736,1.338027,-0.007575801,-0.416544,1.30619,-0.1526806,-0.1857238,1.337072,0.297757,-0.1823309,1.34956,NA,NA,NotTracked,NotTracked,
0.8925781,-0.3959961,-0.001953125,0.921875,0.3735352,0.04980469,0,0,-1,0,-1,-1,-3,1,-2,-1,-2,-2,-3,-2,-2,0,2.9375,2.9375,2.9375,2.9375,2.9375,2.9375,2.418238,3.153716,7.515104,7.397427,3.10936,0.07117639,-0.1424192,-0.4481003,1.259341,0.2523073,-0.4446937,1.240148,0.08397222,0.3721411,1.336441,-0.1873524,-0.4566408,1.250283,0.2068216,-0.4323238,1.22378,0.07166099,-0.1022388,1.353253,0.07390361,-0.4257265,1.342978,-0.1048098,0.07748355,1.338272,-0.007162235,-0.416592,1.306301,-0.1525758,-0.1857283,1.337257,0.2974662,-0.1818762,1.349617,NA,NA,NotTracked,NotTracked,
0.8979492,-0.3891602,0.004394531,0.9248047,0.3588867,0.05029297,-1,-2,-2,-1,-2,-2,-1,-1,0,-1,-1,-2,-2,-3,-1,0,2.125,2.125,2.125,0.125,0.125,0.125,2.419592,3.154391,7.517674,7.401968,3.106074,0.06645286,-0.1415877,-0.4495361,1.260073,0.2536258,-0.4456492,1.240861,0.08409204,0.3721239,1.336564,-0.1874855,-0.4600088,1.245518,0.2042815,-0.4404468,1.222562,0.07182693,-0.1022632,1.353352,0.07402469,-0.4257194,1.343024,-0.1047979,0.07753485,1.338489,-0.007066805,-0.4166222,1.306347,-0.1524366,-0.1858023,1.337441,0.2992243,-0.1843564,1.349714,NA,NA,NotTracked,NotTracked,
0.8989258,-0.3930664,0.00390625,0.9199219,0.359375,0.03710938,-1,0,-1,2,-1,-2,0,0,0,-2,-1,-1,0,-1,-2,-3,2.3125,2.3125,2.3125,0.125,0.125,0.125,2.420649,3.154406,7.518442,7.400967,3.104349,0.06662392,-0.1424854,-0.4487967,1.259812,0.2540586,-0.4443896,1.241086,0.08425633,0.3720545,1.336695,-0.1882521,-0.4697921,1.241333,0.2083696,-0.4272047,1.226785,0.0720106,-0.102289,1.353456,0.07428805,-0.4256849,1.343108,-0.1049377,0.07756239,1.339004,-0.006800112,-0.4166419,1.306401,-0.152286,-0.1857207,1.33772,0.3002732,-0.1852976,1.350096,NA,NA,NotTracked,NotTracked,
0.8994141,-0.3901367,0.001953125,0.9238281,0.3696289,0.03466797,1,1,0,-1,-3,0,0,0,-2,-1,-2,0,0,-1,0,-2,3.6875,3.6875,3.6875,0.9375,0.9375,0.9375,2.421267,3.154519,7.523018,7.398321,3.104495,0.06997369,-0.1417343,-0.4479961,1.260912,0.2548593,-0.4430386,1.240595,0.08450071,0.3719523,1.336817,-0.1844597,-0.4593188,1.24576,0.2076255,-0.4283742,1.225218,0.07239567,-0.1022915,1.353731,0.07477295,-0.4256032,1.343337,-0.1050743,0.07764411,1.339542,-0.006300083,-0.41666,1.306658,-0.1521567,-0.1860069,1.338171,0.3016846,-0.1869362,1.349973,NA,NA,NotTracked,NotTracked,
0.9033203,-0.4013672,0.00390625,0.9160156,0.378418,0.02783203,-1,-1,0,-1,0,-1,1,-2,-2,-1,-1,-1,-1,0,-1,0,2.75,2.75,2.75,2.1875,2.1875,2.1875,2.420326,3.155455,7.527885,7.393712,3.106032,0.0769331,-0.1418743,-0.4480116,1.26062,0.2541932,-0.4449387,1.23951,0.08459815,0.3719058,1.336854,-0.1866964,-0.4599013,1.24559,0.2087837,-0.4344036,1.224137,0.07255179,-0.1023288,1.353814,0.07486235,-0.42561,1.343387,-0.1050371,0.07774648,1.339868,-0.00620466,-0.416686,1.306739,-0.1520418,-0.1858739,1.338368,0.3022008,-0.1883565,1.34981,NA,NA,NotTracked,NotTracked,
0.9013672,-0.4047852,-0.0004882813,0.9106445,0.3837891,0.005859375,-1,0,2,-1,-3,0,1,-1,0,-1,0,-1,-1,-1,-1,0,4.5625,4.5625,4.5625,2.375,2.375,2.375,2.420504,3.157409,7.533457,7.396369,3.108406,0.07761306,-0.1422355,-0.4488413,1.261322,0.2544974,-0.4429412,1.241261,0.0847094,0.3718704,1.336916,-0.1843962,-0.4580789,1.24525,0.2080952,-0.4294606,1.226104,0.07269325,-0.1023598,1.354011,0.07506048,-0.4256438,1.343537,-0.1050224,0.0777455,1.340288,-0.006013905,-0.4167162,1.306929,-0.1517016,-0.1862055,1.338901,0.299315,-0.1846608,1.350203,NA,NA,NotTracked,NotTracked,
0.9013672,-0.4067383,0.008300781,0.9179688,0.3745117,0.01171875,0,-1,-1,-1,0,-1,-3,-1,-3,-1,-1,0,0,0,-2,-1,4.75,4.75,4.75,1.625,1.625,1.625,2.422824,3.160999,7.538146,7.40198,3.110306,0.07376709,-0.1422774,-0.4485999,1.26087,0.2549466,-0.4432403,1.241019,0.08481837,0.3718171,1.337085,-0.1786312,-0.4543623,1.237906,0.2083593,-0.430896,1.225218,0.07289695,-0.1023949,1.354105,0.0752015,-0.4256195,1.343566,-0.1050531,0.07780387,1.340641,-0.005868264,-0.4166986,1.307011,-0.1515599,-0.186465,1.339449,0.2989436,-0.1834714,1.350188,NA,NA,NotTracked,NotTracked,
0.8974609,-0.4169922,0.005859375,0.9125977,0.3774414,0.01464844,1,-2,-1,-2,-1,-1,0,0,-1,-2,1,0,-1,0,-1,0,4.5,4.5,4.5,1.25,1.25,1.25,2.422518,3.167977,7.548265,7.407518,3.111391,0.06981694,-0.1416865,-0.4500884,1.260751,0.2547353,-0.4430642,1.240054,0.08492504,0.3717432,1.33724,-0.1864496,-0.4597466,1.249571,0.2121054,-0.4498741,1.22105,0.07295348,-0.1024224,1.354205,0.07531833,-0.4256039,1.343617,-0.1049994,0.07774866,1.34094,-0.005752811,-0.4166791,1.307057,-0.1514365,-0.1864229,1.339707,0.2986481,-0.1824165,1.35032,NA,NA,NotTracked,NotTracked,
0.8964844,-0.4145508,0.003417969,0.9145508,0.3710938,0.02929688,-2,-2,-1,-1,1,-1,-1,-1,-1,0,-3,-3,-2,0,-2,0,4.5,4.5,4.5,0.375,0.375,0.375,2.422379,3.173501,7.554999,7.411006,3.111661,0.06677846,-0.142907,-0.4478893,1.260228,0.255186,-0.4427288,1.239643,0.08508782,0.3716498,1.337456,-0.1885373,-0.4535502,1.248877,0.2132283,-0.4314963,1.22615,0.07307133,-0.1024864,1.354303,0.07546658,-0.4255945,1.343586,-0.104829,0.07780236,1.341572,-0.005610819,-0.4166863,1.307033,-0.1512703,-0.1865075,1.340252,0.2979522,-0.1813107,1.350156,NA,NA,NotTracked,NotTracked,
0.8974609,-0.4101563,0.007324219,0.9160156,0.3662109,0.03759766,0,-1,1,1,-1,0,-1,0,0,-1,-1,-1,-2,0,-3,-2,3.5,3.5,3.5,-0.4375,-0.4375,-0.4375,2.422112,3.175658,7.557792,7.411643,3.111937,0.06505845,-0.1432722,-0.4484389,1.259732,0.2558144,-0.4435188,1.239338,0.08516397,0.37156,1.337671,-0.1871285,-0.4553341,1.246157,0.2101964,-0.4373678,1.223837,0.07310666,-0.102508,1.354349,0.07552705,-0.4256282,1.343582,-0.1047826,0.07779463,1.341744,-0.00554983,-0.4167379,1.307042,-0.1511754,-0.1865876,1.340531,0.3000781,-0.1839885,1.350118,NA,NA,NotTracked,NotTracked,
0.8984375,-0.4072266,0.01367188,0.9150391,0.3676758,0.03662109,-1,0,-1,-2,-2,-1,-1,-1,0,-2,1,-1,-1,0,-1,0,1.75,1.75,1.75,-2,-2,-2,2.42275,3.178964,7.560944,7.409875,3.111796,0.06440539,-0.1431361,-0.4476625,1.259167,0.256243,-0.4432493,1.239508,0.0852263,0.3715238,1.337799,-0.1862436,-0.457031,1.242895,0.2101313,-0.4398818,1.223176,0.07328278,-0.1025711,1.354416,0.07558346,-0.425644,1.343567,-0.1047843,0.07783398,1.341895,-0.005496782,-0.416741,1.307051,-0.1511759,-0.1865186,1.340654,0.3009093,-0.1856471,1.349912,NA,NA,NotTracked,NotTracked,
0.8959961,-0.3916016,0.02294922,0.918457,0.3603516,0.03027344,-1,-1,0,-2,-1,1,-1,-1,-1,-2,-2,-1,0,-1,-2,-1,0.1875,0.1875,0.1875,-2.8125,-2.8125,-2.8125,2.425817,3.18039,7.559985,7.406508,3.11154,0.06430223,-0.1429022,-0.4482285,1.258416,0.2563907,-0.4434503,1.238881,0.08530418,0.3715565,1.337966,-0.1863474,-0.4582411,1.243877,0.210557,-0.4371635,1.223985,0.07336019,-0.1025782,1.354457,0.07564115,-0.425623,1.343549,-0.1047771,0.07785846,1.342147,-0.005437693,-0.4167194,1.307042,-0.1511329,-0.1865566,1.340763,0.3016677,-0.1866845,1.349772,NA,NA,NotTracked,NotTracked,
0.9077148,-0.3813477,0.008789063,0.9213867,0.3642578,0.02880859,-1,-1,-1,-1,-1,-1,0,-2,0,-1,-1,-1,2,-1,-2,0,-1.875,-1.875,-1.875,-3.1875,-3.1875,-3.1875,2.430231,3.178242,7.554729,7.402906,3.110572,0.06474931,-0.1428893,-0.4488297,1.258123,0.256523,-0.4434642,1.239517,0.08536656,0.3715859,1.33812,-0.1868873,-0.4610451,1.241887,0.2104191,-0.4353431,1.224004,0.07354385,-0.1025943,1.354575,0.07577138,-0.4256401,1.343479,-0.1047358,0.0778825,1.342381,-0.00533557,-0.4167423,1.306987,-0.1510543,-0.1865872,1.340835,0.3012238,-0.1856588,1.349454,NA,NA,NotTracked,NotTracked,
0.8994141,-0.3867188,0.0009765625,0.9208984,0.3701172,0.03222656,0,-1,0,0,-2,-2,0,0,0,-1,0,-1,-1,0,0,0,-2.125,-2.125,-2.125,-4.375,-4.375,-4.375,2.430237,3.176871,7.5536,7.397272,3.109269,0.06561882,-0.1424399,-0.4474045,1.258213,0.256329,-0.4434762,1.238801,0.08540149,0.3715494,1.338206,-0.1858932,-0.4602582,1.241027,0.2105206,-0.4353257,1.224072,0.0736068,-0.1026163,1.354594,0.07587927,-0.4257026,1.343427,-0.1047302,0.07781218,1.342484,-0.005252995,-0.4167918,1.306931,-0.1508964,-0.186734,1.340904,0.3017532,-0.1867331,1.34939,NA,NA,NotTracked,NotTracked,
0.9013672,-0.3994141,-0.01513672,0.9233398,0.3676758,0.02246094,0,-1,-2,0,0,-1,0,0,-1,-1,-1,0,-1,0,-2,-1,-2.25,-2.25,-2.25,-4.3125,-4.3125,-4.3125,2.426212,3.173065,7.554539,7.393816,3.107417,0.06422132,-0.1424159,-0.4485063,1.258408,0.2558771,-0.443343,1.239215,0.08552644,0.3715484,1.338347,-0.184337,-0.4600973,1.23911,0.2105623,-0.4343629,1.224277,0.07366792,-0.1025923,1.354675,0.0759746,-0.4257306,1.343409,-0.1047085,0.07779995,1.342659,-0.005171447,-0.4168137,1.306925,-0.1506688,-0.1868535,1.340904,0.3005271,-0.1854375,1.349341,NA,NA,NotTracked,NotTracked,
0.8999023,-0.402832,-0.009277344,0.918457,0.3764648,0.02001953,0,-2,1,0,-1,-1,-4,-1,0,0,-1,-2,-1,-1,-2,0,-0.8125,-0.8125,-0.8125,-1.9375,-1.9375,-1.9375,2.419744,3.17044,7.559183,7.393741,3.105583,0.06115736,-0.143076,-0.4494253,1.258873,0.2555455,-0.4429415,1.239835,0.08564618,0.3715149,1.33841,-0.1874284,-0.4590692,1.243623,0.2106141,-0.4344818,1.224422,0.07374708,-0.1026067,1.354695,0.07598336,-0.4257307,1.343395,-0.1046339,0.07774565,1.34275,-0.005152076,-0.4168072,1.3069,-0.1505501,-0.1869242,1.34102,0.301909,-0.1865546,1.349464,NA,NA,NotTracked,NotTracked,
0.8984375,-0.402832,-0.01025391,0.9272461,0.3847656,0.02929688,0,-1,-1,-1,1,1,1,-1,-1,-3,-2,-1,-1,-2,-1,-1,-0.5,-0.5,-0.5,-1,-1,-1,2.414793,3.16981,7.564277,7.395127,3.104811,0.05832904,-0.1428897,-0.4485979,1.259657,0.2557429,-0.4453368,1.240034,0.08583714,0.3715343,1.338598,-0.1883449,-0.4627587,1.248019,0.2103099,-0.4384334,1.222773,0.07388496,-0.1026384,1.35479,0.07613727,-0.4257739,1.343425,-0.104619,0.07770238,1.3429,-0.005013322,-0.4168365,1.306942,-0.1504541,-0.1870679,1.341138,0.3031805,-0.1882271,1.349569,NA,NA,NotTracked,NotTracked,
0.8959961,-0.4086914,-0.005859375,0.9233398,0.3676758,0.02929688,1,-1,-3,-3,-1,0,0,-1,-1,1,-1,0,1,-1,-1,1,-0.4375,-0.4375,-0.4375,0.75,0.75,0.75,2.409681,3.170418,7.57009,7.395826,3.103176,0.05785995,-0.1432687,-0.4485428,1.258861,0.2556142,-0.4435427,1.240502,0.08615825,0.3716176,1.338732,-0.187147,-0.4607797,1.240051,0.2095953,-0.439041,1.22341,0.07404414,-0.1026214,1.354894,0.07632644,-0.4257685,1.343448,-0.1043714,0.07774319,1.343064,-0.004846488,-0.4168226,1.307024,-0.150402,-0.1870096,1.341186,0.3005188,-0.1833855,1.349991,NA,NA,NotTracked,NotTracked,
