ALX,ALY,ALZ,ARX,ARY,ARZ,EMG0L,EMG1L,EMG2L,EMG3L,EMG4L,EMG5L,EMG6L,EMG7L,EMG0R,EMG1R,EMG2R,EMG3R,EMG4R,EMG5R,EMG6R,EMG7R,GLX,GLY,GLZ,GRX,GRY,GRZ,ORL,OPL,OYL,ORR,OPR,OYR,LHNX,LHNY,LHNZ,RHNX,RHNY,RHNZ,HX,HY,HZ,LTX,LTY,LTZ,RTX,RTY,RTZ,SpineMidX,SpineMidY,SpineMidZ,SpineBaseX,SpineBaseY,SpineBaseZ,ShoulderLeftX,ShoulderLeftY,ShoulderLeftZ,ShoulderRightX,ShoulderRightY,ShoulderRightZ,ElbowLeftX,ElbowLeftY,ElbowLeftZ,ElbowRightX,ElbowRightY,ElbowRightZ,Myo_Pose_left,Myo_Pose_Right,Kinect_pose_left,Kinect_pose_right
0.9033203,-0.3823242,0.02880859,-0.8920898,0.7807617,-0.05615234,0,-2,-2,-2,-1,2,-1,-2,-4,3,2,2,0,3,-1,2,-1.6875,-1.6875,-1.6875,2.75,2.75,2.75,2.566931,3.165247,7.179037,6.794654,5.651248,9.076224,-0.1238882,-0.4575108,1.243642,0.34432,0.005000602,1.159498,0.09585533,0.3817466,1.373064,-0.1669202,-0.4613135,1.234518,0.2969035,0.003584967,1.147333,0.07456063,-0.09643633,1.357535,0.07352835,-0.4243872,1.343938,-0.09944844,0.08090477,1.337403,-0.006955214,-0.4145606,1.302668,-0.1486994,-0.1815693,1.334149,0.3605048,-0.1564715,1.369644,NA,NA,NotTracked,Unknown,
0.9013672,-0.3852539,0.0234375,0.1967773,1.110352,0.6235352,1,-1,-2,-1,-1,2,-1,-1,-25,22,7,12,47,1,-2,-6,0.1875,0.1875,0.1875,-4.5,-4.5,-4.5,2.565678,3.161634,7.180491,6.811401,5.603152,9.090542,-0.1240338,-0.4573767,1.243496,0.3440892,0.002372113,1.156363,0.09612425,0.3817139,1.373183,-0.1670704,-0.4602264,1.232768,0.296523,-0.002772855,1.142056,0.07460093,-0.09644326,1.35745,0.0736016,-0.4244202,1.343866,-0.09924093,0.08108669,1.33672,-0.006890048,-0.4145401,1.302505,-0.1487704,-0.1813614,1.333783,0.3633265,-0.1620891,1.367761,NA,NA,NotTracked,Unknown,
0.8925781,-0.3818359,0.03417969,-0.3388672,0.953125,0.1079102,-1,0,-1,0,-1,0,-1,0,-1,0,3,2,-8,-1,-3,-4,1.4375,1.4375,1.4375,13.8125,13.8125,13.8125,2.566467,3.160004,7.180856,6.802905,5.554498,9.089867,-0.1252342,-0.4581821,1.24531,0.3427857,-0.0008314113,1.152506,0.0962492,0.381754,1.373183,-0.1673747,-0.4616113,1.235471,0.2962098,0.002320959,1.148652,0.07464705,-0.09642841,1.357385,0.07374023,-0.4244201,1.343863,-0.09931457,0.08121277,1.336505,-0.006774817,-0.4145378,1.302423,-0.1489594,-0.1813211,1.333589,0.3653196,-0.16842,1.367945,NA,NA,NotTracked,Unknown,
0.8994141,-0.3964844,0.04589844,-0.3129883,0.8583984,0.3964844,-2,-2,-1,-1,-3,-1,0,-2,1,-3,-4,-4,-6,-4,-3,1,2,2,2,6.375,6.375,6.375,2.564178,3.155218,7.187591,6.810006,5.512303,9.090028,-0.1244445,-0.4575025,1.245365,0.3415177,-0.005743566,1.149774,0.09631969,0.3817489,1.373165,-0.1673295,-0.460941,1.235894,0.309275,0.02338108,1.13375,0.07463501,-0.09642588,1.357298,0.07375629,-0.4244451,1.343833,-0.09935869,0.08105656,1.337742,-0.00677156,-0.4145471,1.302398,-0.1490368,-0.1813067,1.333452,0.3549435,-0.1519377,1.371326,NA,NA,NotTracked,Closed,
0.8989258,-0.3896484,0.04443359,-0.2875977,0.824707,0.4638672,-2,-4,-1,-1,0,1,-1,0,7,1,-2,0,-2,-2,-2,-1,4.375,4.375,4.375,-2.875,-2.875,-2.875,2.561653,3.151796,7.19594,6.803658,5.472434,9.090889,-0.1253188,-0.4564714,1.246641,0.3421636,-0.004107302,1.135015,0.09640638,0.3817437,1.373125,-0.1695765,-0.4571205,1.23827,0.301554,-0.00771857,1.122353,0.07461172,-0.09641226,1.357216,0.07378216,-0.4244464,1.343807,-0.09951052,0.08120051,1.337207,-0.006765815,-0.4145443,1.30239,-0.1491633,-0.1812588,1.333379,0.3527843,-0.1497554,1.372337,NA,NA,NotTracked,Closed,
0.8974609,-0.3857422,0.03759766,-0.2578125,0.8115234,0.4628906,0,-1,0,-1,-1,0,-2,-2,4,-2,-3,-3,-1,-2,-5,-4,4.8125,4.8125,4.8125,-3.625,-3.625,-3.625,2.560208,3.150752,7.200778,6.794206,5.42404,9.094178,-0.1261344,-0.4571873,1.250039,0.341433,-0.02615549,1.135205,0.0963773,0.3817337,1.372994,-0.1686905,-0.4573587,1.240473,0.3081198,0.003511958,1.131843,0.07451459,-0.09642653,1.357121,0.07376591,-0.4244889,1.343842,-0.0999314,0.08125358,1.336649,-0.006806612,-0.4145722,1.302454,-0.1495977,-0.1809958,1.333501,0.3627494,-0.1708383,1.370142,NA,NA,NotTracked,Unknown,
0.9042969,-0.3920898,0.04638672,-0.2324219,0.8051758,0.4599609,0,1,-3,-1,-1,-1,1,-1,-1,-1,-1,-3,-3,-1,0,-1,4.625,4.625,4.625,8.4375,8.4375,8.4375,2.557913,3.149185,7.209991,6.79581,5.370731,9.096141,-0.1264093,-0.4579163,1.251102,0.3426319,-0.03778904,1.130033,0.09629899,0.3817303,1.372776,-0.1688434,-0.4701028,1.2386,0.2965659,-0.01646545,1.138111,0.07434828,-0.09632602,1.357071,0.07366162,-0.4244632,1.343887,-0.1001631,0.08132428,1.336503,-0.006957793,-0.4145006,1.30257,-0.1497068,-0.1809985,1.333581,0.3515553,-0.1546895,1.374015,NA,NA,NotTracked,Unknown,
0.9111328,-0.3896484,0.04736328,-0.1796875,0.8349609,0.453125,-1,-1,0,-1,-1,-1,-3,0,-1,-1,2,2,-1,-2,0,0,8.375,8.375,8.375,14.125,14.125,14.125,2.556155,3.147325,7.231743,6.806363,5.313017,9.09794,-0.1281327,-0.4579495,1.25081,0.3428915,-0.04894508,1.126751,0.09609408,0.3816945,1.372484,-0.1715966,-0.455059,1.241353,0.3008486,-0.0232018,1.143182,0.07427362,-0.09630967,1.35705,0.07362048,-0.4244487,1.343935,-0.1003688,0.08141274,1.336447,-0.007036074,-0.4144796,1.302723,-0.1499317,-0.1809043,1.333772,0.3490936,-0.1514937,1.374676,NA,NA,NotTracked,Unknown,
0.9018555,-0.3862305,0.05029297,-0.1796875,0.762207,0.421875,-1,1,3,2,-1,-3,-1,-1,-1,-3,-3,-2,-1,-1,-1,-4,7.5625,7.5625,7.5625,27.5,27.5,27.5,2.555898,3.146862,7.237207,6.827605,5.244993,9.103732,-0.1287928,-0.4577156,1.251928,0.3430499,-0.06215416,1.121638,0.09579538,0.3816843,1.371986,-0.1718386,-0.455191,1.245,0.3156632,-0.03312902,1.1428,0.0741209,-0.09630164,1.356977,0.07341934,-0.424427,1.343922,-0.1006712,0.08143435,1.336461,-0.007305205,-0.4144553,1.302867,-0.1503204,-0.1807187,1.333892,0.3447345,-0.1508961,1.376069,NA,NA,NotTracked,Unknown,
0.8979492,-0.390625,0.05175781,-0.06640625,0.8305664,0.4394531,-2,-1,1,0,-2,-1,1,-1,-2,-4,-1,-2,-1,-1,0,-1,6.75,6.75,6.75,31,31,31,2.55674,3.14588,7.246076,6.858422,5.152353,9.117804,-0.1291276,-0.4576225,1.252951,0.342781,-0.07567997,1.121681,0.09534347,0.3817637,1.371517,-0.1700752,-0.4628321,1.239523,0.3527255,-0.03351798,1.15875,0.07396088,-0.09627762,1.356953,0.0731099,-0.424361,1.34403,-0.1009331,0.08144859,1.336545,-0.007750539,-0.4143916,1.303284,-0.1507378,-0.1805699,1.334215,0.3408994,-0.1512419,1.377259,NA,NA,NotTracked,Unknown,
0.9047852,-0.4052734,0.05175781,0.05908203,0.7539063,0.4985352,1,-1,1,-1,-2,0,-2,-2,1,1,1,-1,0,0,0,2,5.875,5.875,5.875,44.5625,44.5625,44.5625,2.55792,3.145411,7.253332,6.896914,5.044389,9.143854,-0.1298951,-0.4577968,1.2549,0.3424325,-0.118494,1.112252,0.09358722,0.3819411,1.370274,-0.1724216,-0.4505381,1.247294,0.3547262,-0.08176095,1.116313,0.07361971,-0.09618552,1.356891,0.07274415,-0.4242501,1.344143,-0.1013805,0.08112092,1.33935,-0.008318421,-0.414267,1.303948,-0.1511199,-0.1810612,1.334946,0.3321484,-0.1489518,1.379362,NA,NA,NotTracked,Unknown,
0.9013672,-0.4033203,0.05029297,0.1113281,0.7919922,0.4575195,0,0,0,0,-3,0,0,-2,-1,-2,-1,-1,-3,-2,-1,-2,5.8125,5.8125,5.8125,70.8125,70.8125,70.8125,2.559035,3.144555,7.260657,6.964903,4.921036,9.19212,-0.1290753,-0.4586466,1.255302,0.3402904,-0.1441218,1.108353,0.09216458,0.3819139,1.369508,-0.1677709,-0.4759356,1.230556,0.3529602,-0.1003654,1.12825,0.07359836,-0.0961749,1.356882,0.07269706,-0.4241947,1.344187,-0.1016633,0.08113933,1.339365,-0.008390379,-0.4141938,1.304281,-0.1512147,-0.1812365,1.335183,0.3313083,-0.1492742,1.379362,NA,NA,NotTracked,Unknown,
0.8974609,-0.3984375,0.04541016,0.112793,0.7124023,0.3696289,-1,1,0,-4,-1,-3,-1,0,-1,-1,-4,-3,-2,-1,-1,-2,5.8125,5.8125,5.8125,90.8125,90.8125,90.8125,2.558444,3.145158,7.269387,7.053186,4.793805,9.251581,-0.1294564,-0.4581372,1.255644,0.3378486,-0.1717223,1.10525,0.09068045,0.3820294,1.368877,-0.171552,-0.4533363,1.242947,0.3439669,-0.1288607,1.120813,0.07352106,-0.09617394,1.356869,0.0725233,-0.4241369,1.344253,-0.1018644,0.08110467,1.339442,-0.00867063,-0.4141922,1.304782,-0.1512022,-0.1814257,1.33551,0.3267914,-0.1457498,1.379061,NA,NA,NotTracked,Unknown,
0.8945313,-0.4018555,0.03759766,0.2260742,0.7348633,0.3183594,0,-1,0,0,0,-3,0,-1,-1,-2,-3,-2,-1,0,-1,-3,6.1875,6.1875,6.1875,99.9375,99.9375,99.9375,2.558332,3.146718,7.27777,7.143452,4.632195,9.321896,-0.1293481,-0.4587868,1.257223,0.3338933,-0.199467,1.110361,0.08900561,0.3823175,1.368423,-0.1764444,-0.4761568,1.2546,0.29493,-0.190085,1.101389,0.07348807,-0.09615527,1.356869,0.07239372,-0.4240973,1.344352,-0.1021932,0.08106177,1.339619,-0.008919495,-0.4141648,1.305383,-0.1511843,-0.1819135,1.336214,0.3259194,-0.1453671,1.37854,NA,NA,NotTracked,Unknown,
0.8974609,-0.3920898,0.04052734,0.3110352,0.7353516,0.1689453,-1,0,-1,-1,-2,-1,-1,0,-2,-2,-2,-2,-1,-1,-4,-2,3.5625,3.5625,3.5625,98.3125,98.3125,98.3125,2.558403,3.147619,7.28429,7.234983,4.424181,9.396044,-0.1288297,-0.4580764,1.256838,0.3284015,-0.2389722,1.110937,0.08699336,0.3826783,1.368018,-0.1690784,-0.4572737,1.240476,0.2868715,-0.2382495,1.112619,0.07347049,-0.09614745,1.356861,0.07227018,-0.4240402,1.344453,-0.1024874,0.08096143,1.339774,-0.009133426,-0.4141936,1.306093,-0.151083,-0.1824385,1.336646,0.3248909,-0.145457,1.377527,NA,NA,NotTracked,Unknown,
0.8823242,-0.3999023,0.04150391,0.3857422,0.9443359,-0.02587891,-2,0,0,-1,0,-1,-1,-2,-1,2,0,0,0,-1,-2,-1,1.6875,1.6875,1.6875,87.9375,87.9375,87.9375,2.558398,3.148293,7.287237,7.315367,4.191268,9.453469,-0.129031,-0.4579999,1.2569,0.3184153,-0.315753,1.13458,0.08275118,0.383257,1.366777,-0.1714425,-0.4650762,1.239162,0.3006114,-0.36973,1.179667,0.07349367,-0.09607011,1.356881,0.07244858,-0.4238892,1.344926,-0.103355,0.08069494,1.340408,-0.008594534,-0.4144356,1.308015,-0.1506575,-0.1830034,1.337498,0.3222837,-0.1490002,1.373592,NA,NA,NotTracked,Unknown,
0.9077148,-0.387207,0.03613281,0.8564453,0.8354492,0.08300781,-1,-1,0,-1,-3,0,0,-2,0,-2,0,-1,-1,-1,-2,-1,2.8125,2.8125,2.8125,72.8125,72.8125,72.8125,2.561278,3.148567,7.288287,7.373207,3.92315,9.49899,-0.1283627,-0.458112,1.257869,0.3077952,-0.3577774,1.151557,0.0810584,0.3837313,1.366611,-0.1677319,-0.4619786,1.242604,0.2766286,-0.3953482,1.210636,0.07350882,-0.09600691,1.356871,0.07258086,-0.42375,1.345096,-0.1037153,0.08061227,1.340702,-0.008332375,-0.4144551,1.308639,-0.1504495,-0.1832289,1.337817,0.3206289,-0.1527687,1.371175,NA,NA,NotTracked,Closed,
0.9248047,-0.3984375,0.04150391,0.8818359,0.6889648,0.0546875,-1,-1,0,-2,0,-2,1,-1,-1,0,0,1,-2,0,-1,1,2.125,2.125,2.125,56.0625,56.0625,56.0625,2.565943,3.148721,7.286149,7.40621,3.674668,9.549523,-0.1283202,-0.4595593,1.257496,0.2956957,-0.3807698,1.1689,0.07990904,0.3838538,1.366504,-0.1683688,-0.4605443,1.244602,0.257781,-0.3767711,1.196769,0.073514,-0.09600198,1.356857,0.07257677,-0.4237521,1.345099,-0.1042241,0.08013529,1.341041,-0.008350971,-0.4146098,1.308892,-0.1500636,-0.1839379,1.338228,0.3180702,-0.1593048,1.367468,NA,NA,NotTracked,Closed,
0.9116211,-0.3813477,0.02099609,0.9287109,0.5893555,0.1225586,0,-3,-6,-3,1,0,-2,-2,-2,-3,-1,-1,-1,-2,-1,-1,8.25,8.25,8.25,56.9375,56.9375,56.9375,2.57596,3.150931,7.283834,7.451048,3.434829,9.570961,-0.1276337,-0.459112,1.256689,0.2837115,-0.3972485,1.189232,0.07873319,0.3840235,1.366263,-0.1671388,-0.4606825,1.242232,0.2490833,-0.3871749,1.198267,0.07351398,-0.09601635,1.356748,0.07259092,-0.4238109,1.345066,-0.1046958,0.07985408,1.341305,-0.008346305,-0.4146261,1.308911,-0.1497912,-0.1841397,1.338471,0.3163127,-0.1627758,1.364487,NA,NA,NotTracked,Unknown,
0.8916016,-0.3632813,0.02734375,1.137207,0.3427734,0.1484375,-1,0,-2,0,-1,-2,2,1,-2,-1,-2,-1,0,-1,-2,-1,7.6875,7.6875,7.6875,20.1875,20.1875,20.1875,2.588175,3.152114,7.280877,7.590018,3.131019,9.470912,-0.1277364,-0.4593926,1.256733,0.274464,-0.4138789,1.2114,0.07804019,0.3841323,1.366163,-0.1697232,-0.4612444,1.246246,0.2382266,-0.4127616,1.214154,0.07349773,-0.09601507,1.356664,0.07259188,-0.423825,1.345057,-0.1049162,0.07978684,1.341465,-0.008353011,-0.4146456,1.308948,-0.1496925,-0.1843143,1.338648,0.318623,-0.1710065,1.360334,NA,NA,NotTracked,Unknown,
0.902832,-0.3857422,0.04296875,1.132813,0.4746094,-0.06787109,0,1,0,1,-2,-2,-1,-1,0,-1,0,1,6,-1,-2,-3,1.8125,1.8125,1.8125,12.1875,12.1875,12.1875,2.590964,3.150409,7.284843,7.702417,3.066481,9.357675,-0.1271713,-0.4598918,1.256329,0.2591347,-0.4335979,1.251145,0.07705762,0.3841786,1.365567,-0.1656898,-0.4504057,1.245435,0.2144334,-0.4337544,1.235556,0.07370264,-0.09600569,1.356264,0.07301725,-0.4239523,1.344746,-0.1054193,0.07956561,1.341858,-0.008035482,-0.4149178,1.308949,-0.1490215,-0.1848665,1.339288,0.3184382,-0.1808818,1.355083,NA,NA,NotTracked,Unknown,
0.9145508,-0.390625,0.04492188,1.160645,0.9521484,-0.3081055,-2,-1,0,-1,-1,0,0,0,0,-1,-2,-2,-7,-1,0,-1,3,3,3,-105.5,-105.5,-105.5,2.585883,3.148345,7.292747,7.90476,3.035594,9.070803,-0.127384,-0.459446,1.257261,0.2483806,-0.4781432,1.253633,0.07681389,0.3842685,1.365242,-0.1676352,-0.4591469,1.244383,0.2024972,-0.4541555,1.224133,0.07379354,-0.09601025,1.356093,0.0732298,-0.4240335,1.3447,-0.1054625,0.07954203,1.342,-0.007822642,-0.4150794,1.309038,-0.1487204,-0.1847944,1.339514,0.3156147,-0.1849755,1.352409,NA,NA,NotTracked,NotTracked,
0.9296875,-0.3828125,0.04345703,1.057617,0.04296875,-0.3354492,-2,-1,0,-1,-1,-3,-1,-2,0,-2,1,-2,-2,0,-1,0,8.1875,8.1875,8.1875,-134.3125,-134.3125,-134.3125,2.579123,3.14347,7.310071,7.649666,3.014719,9.014961,-0.1275104,-0.4596676,1.259017,0.2549892,-0.4713265,1.257349,0.07672291,0.3842996,1.364944,-0.1679185,-0.4587817,1.246666,0.2042705,-0.4867305,1.223778,0.07393681,-0.09600421,1.356002,0.07372098,-0.424082,1.344835,-0.1054985,0.07950384,1.342128,-0.007259283,-0.4152773,1.309344,-0.1482448,-0.1845652,1.34004,0.3135488,-0.1881313,1.351189,NA,NA,NotTracked,NotTracked,
0.9194336,-0.3769531,0.03710938,1.020996,0.04101563,-0.05615234,-1,-3,0,-1,0,1,-2,0,0,-1,0,-2,-2,-2,-2,1,5.625,5.625,5.625,-89.5,-89.5,-89.5,2.577352,3.136739,7.320865,7.572556,3.00771,9.045068,-0.1271139,-0.4598864,1.258312,0.2634493,-0.4617868,1.258293,0.07682233,0.3843179,1.364233,-0.1666874,-0.4510941,1.248385,0.221229,-0.4534702,1.237864,0.07430738,-0.09598063,1.35556,0.07426095,-0.4241428,1.344814,-0.1054938,0.0795026,1.342132,-0.006792982,-0.4154152,1.30939,-0.1478759,-0.1843621,1.340324,0.3116502,-0.1891895,1.350307,NA,NA,NotTracked,NotTracked,
0.8916016,-0.3886719,0.01513672,0.9047852,0.3525391,0.05371094,-1,-1,-1,-1,-2,-1,1,1,-1,-2,0,-1,0,-1,-1,-1,-2.6875,-2.6875,-2.6875,117.375,117.375,117.375,2.575999,3.130479,7.321978,7.606602,3.038092,9.156096,-0.125346,-0.4601494,1.26231,0.2581674,-0.4616293,1.255683,0.07815067,0.3842093,1.362788,-0.1647205,-0.4605239,1.248843,0.217849,-0.4612322,1.235236,0.07467584,-0.09599398,1.355198,0.07473549,-0.4241393,1.345021,-0.1054446,0.07951677,1.342148,-0.006305824,-0.4154405,1.309711,-0.1473384,-0.1841771,1.341239,0.3065155,-0.1853074,1.35047,NA,NA,NotTracked,NotTracked,
0.9086914,-0.4311523,0.03955078,0.8754883,0.4975586,0.06005859,-1,-2,-3,-1,0,0,-2,0,-1,-2,-2,-1,-1,-1,-1,-1,-13.9375,-13.9375,-13.9375,89.875,89.875,89.875,2.565635,3.124799,7.312617,7.657496,3.061869,9.219914,-0.1252249,-0.4611283,1.261422,0.2580649,-0.4611875,1.252503,0.07990685,0.3839712,1.36139,-0.1627128,-0.4694759,1.246188,0.2153514,-0.4510805,1.235158,0.07495356,-0.09597481,1.354924,0.07520317,-0.4240611,1.345121,-0.1052272,0.07973678,1.341926,-0.005882593,-0.4153828,1.309767,-0.147218,-0.1838558,1.341379,0.3068262,-0.1857726,1.350629,NA,NA,NotTracked,NotTracked,
0.921875,-0.4155273,0.05224609,0.8632813,0.5161133,0.06640625,0,-1,0,-2,0,0,-1,-1,-1,-2,0,-1,-2,-1,0,0,-10.0625,-10.0625,-10.0625,55.875,55.875,55.875,2.560977,3.123029,7.305095,7.663746,3.073252,9.244661,-0.1253225,-0.4603801,1.260768,0.259263,-0.4571567,1.250126,0.08249849,0.3837584,1.35988,-0.1692898,-0.4641373,1.2569,0.2157553,-0.4414352,1.233863,0.07535104,-0.09603696,1.354519,0.07565618,-0.4240679,1.345118,-0.1048906,0.07986536,1.341462,-0.005405574,-0.4153426,1.309584,-0.1471395,-0.1836404,1.341415,0.3071793,-0.1864714,1.35067,NA,NA,NotTracked,NotTracked,
0.9155273,-0.390625,0.06152344,0.8798828,0.3364258,0.08398438,0,0,-1,0,0,-1,0,1,-1,-1,-1,1,-2,-1,-4,-2,-8,-8,-8,-24,-24,-24,2.563868,3.122238,7.298006,7.628661,3.088898,9.272577,-0.125082,-0.4606804,1.26058,0.259483,-0.4572569,1.248148,0.08574001,0.383449,1.358078,-0.1686022,-0.4620492,1.255897,0.2146173,-0.4434232,1.233264,0.07574478,-0.09613992,1.354167,0.07591829,-0.4240946,1.345115,-0.1041209,0.08020025,1.34056,-0.005083308,-0.4152967,1.309401,-0.1471009,-0.1837391,1.341437,0.3080812,-0.1873052,1.350408,NA,NA,NotTracked,NotTracked,
0.9052734,-0.3540039,0.06396484,0.8989258,0.2875977,0.06982422,-1,0,-2,-1,-2,-2,-1,-1,-1,0,-1,-1,0,-2,-2,-1,-11.5,-11.5,-11.5,-32.125,-32.125,-32.125,2.568082,3.12102,7.282867,7.611212,3.088314,9.270711,-0.1248728,-0.4603118,1.260267,0.2600352,-0.4565645,1.246311,0.08899828,0.382989,1.356653,-0.1669939,-0.4607282,1.254073,0.216851,-0.4615645,1.230389,0.07615054,-0.09621427,1.353886,0.07613624,-0.4240808,1.345143,-0.1032802,0.08069678,1.339597,-0.00478647,-0.4151337,1.309229,-0.147106,-0.1835354,1.341405,0.3089499,-0.1887635,1.349772,NA,NA,NotTracked,NotTracked,
0.9082031,-0.3613281,0.06542969,0.9433594,0.2456055,0.04736328,0,-1,1,1,-1,0,-1,-1,-3,-1,-1,-2,2,-2,0,0,-11.5625,-11.5625,-11.5625,-20.6875,-20.6875,-20.6875,2.569471,3.118674,7.260612,7.590792,3.082345,9.261725,-0.1250759,-0.4610982,1.25879,0.2610698,-0.4558865,1.243158,0.09559076,0.3822373,1.354126,-0.1670226,-0.4616068,1.250049,0.2093742,-0.4793609,1.225667,0.07703855,-0.0962811,1.353435,0.07695535,-0.4240032,1.345265,-0.1011331,0.08174726,1.337731,-0.003863588,-0.4149274,1.308762,-0.1469358,-0.1832637,1.341287,0.3094615,-0.1895013,1.348949,NA,NA,NotTracked,NotTracked,
0.9116211,-0.3598633,0.04882813,0.9799805,0.3041992,0.009765625,-2,1,-1,-1,-3,0,0,1,-1,-2,-1,0,1,0,0,0,-8.875,-8.875,-8.875,-4.0625,-4.0625,-4.0625,2.56825,3.118116,7.257071,7.55307,3.076302,9.285645,-0.123802,-0.4609854,1.258167,0.2602018,-0.4561424,1.241705,0.09839128,0.3816783,1.353414,-0.1630659,-0.4647951,1.246595,0.2121987,-0.451804,1.229125,0.07748263,-0.09637176,1.353228,0.07729176,-0.4240012,1.345292,-0.1000719,0.08225234,1.336895,-0.003478896,-0.4148242,1.308512,-0.146581,-0.1828439,1.341036,0.3099081,-0.1906088,1.348319,NA,NA,NotTracked,NotTracked,
0.9082031,-0.3642578,0.02783203,0.9614258,0.3081055,-0.004882813,-1,1,0,0,-1,-1,-2,-1,-1,0,0,-2,-5,0,-1,-1,-4.875,-4.875,-4.875,0.1875,0.1875,0.1875,2.561597,3.116774,7.254063,7.502034,3.074474,9.339628,-0.1234566,-0.4595869,1.258161,0.2577695,-0.455798,1.238638,0.1004284,0.3814197,1.352949,-0.1643804,-0.4575689,1.252927,0.2114946,-0.4752821,1.225125,0.07797736,-0.09633863,1.353163,0.07784976,-0.423817,1.345386,-0.0988727,0.08291818,1.336175,-0.002897263,-0.4145244,1.308249,-0.1462481,-0.1821267,1.340638,0.3097646,-0.1908415,1.347901,NA,NA,NotTracked,NotTracked,
0.9086914,-0.3637695,0.01806641,0.9238281,0.3496094,-0.03515625,-1,0,-1,-2,0,-1,0,-1,0,-1,-2,-1,2,-2,0,-1,-4.1875,-4.1875,-4.1875,1.0625,1.0625,1.0625,2.558347,3.117392,7.255064,7.459165,3.078005,9.387266,-0.1227505,-0.4596955,1.256865,0.2565455,-0.456834,1.236914,0.1023291,0.381037,1.352086,-0.1643118,-0.4593877,1.249984,0.2150927,-0.4454575,1.226121,0.07855178,-0.09638675,1.35299,0.07810251,-0.4237976,1.345368,-0.09809497,0.08331905,1.335846,-0.002619138,-0.4143927,1.308026,-0.1456342,-0.1813318,1.340406,0.3095752,-0.1910556,1.347194,NA,NA,NotTracked,NotTracked,
0.9160156,-0.3754883,0.02832031,0.90625,0.4145508,-0.06201172,-1,-1,0,-1,1,-2,1,-1,-1,1,-2,-1,2,-1,0,-2,0.0625,0.0625,0.0625,-11,-11,-11,2.551812,3.121081,7.260012,7.449276,3.086447,9.392127,-0.1234337,-0.4595722,1.257038,0.2522592,-0.456273,1.236459,0.1041595,0.3807172,1.351709,-0.1639832,-0.4599417,1.248922,0.208979,-0.4415692,1.2266,0.0793268,-0.09645811,1.35293,0.0787423,-0.4237789,1.345444,-0.09741588,0.08366091,1.335446,-0.002024281,-0.4142171,1.307863,-0.1452015,-0.1808883,1.339999,0.3097651,-0.1915048,1.346725,NA,NA,NotTracked,NotTracked,
0.9160156,-0.3754883,0.02832031,0.90625,0.4145508,-0.06201172,-1,-1,0,-1,1,-2,1,-1,-1,1,-2,-1,2,-1,0,-2,0.0625,0.0625,0.0625,-11,-11,-11,2.551812,3.121081,7.260012,7.449276,3.086447,9.392127,-0.1218961,-0.4595241,1.255513,0.2498519,-0.4549853,1.234754,0.1055022,0.3805378,1.351366,-0.1643929,-0.4592514,1.250345,0.2103954,-0.4516275,1.222748,0.07985429,-0.09647333,1.352759,0.07907614,-0.4238254,1.345371,-0.09639241,0.08391694,1.335048,-0.001674719,-0.4140159,1.30758,-0.1448307,-0.1801544,1.339605,0.3097619,-0.1916269,1.346445,NA,NA,NotTracked,NotTracked,
0.9150391,-0.3671875,0.02392578,0.9179688,0.3793945,-0.02832031,-2,-2,-1,-2,-1,-2,-1,-1,0,-2,-2,-1,-3,-1,-2,-1,1.375,1.375,1.375,-25.5625,-25.5625,-25.5625,2.547,3.122649,7.26705,7.445168,3.088701,9.370851,-0.12095,-0.4600856,1.255351,0.249002,-0.4545842,1.235131,0.1068284,0.3804061,1.351314,-0.1538001,-0.4707708,1.231067,0.2059342,-0.4432482,1.223846,0.08043772,-0.09652591,1.352659,0.07947153,-0.4238213,1.345312,-0.09538215,0.08438656,1.334704,-0.001266297,-0.4137895,1.307342,-0.1444414,-0.1797244,1.339185,0.3102268,-0.1922162,1.346149,NA,NA,NotTracked,NotTracked,
0.9067383,-0.3686523,0.01904297,0.9282227,0.3217773,0.01806641,-1,-1,-1,0,0,-1,-2,-1,0,0,-1,0,-2,-1,0,-2,1.5625,1.5625,1.5625,-13.25,-13.25,-13.25,2.544539,3.12357,7.270904,7.446593,3.083419,9.348066,-0.120462,-0.4600081,1.256697,0.2492815,-0.4551496,1.235324,0.1079798,0.3801854,1.351275,-0.1628888,-0.4571063,1.254,0.2007016,-0.4683804,1.2201,0.08086634,-0.09648623,1.352692,0.07975573,-0.4236811,1.345305,-0.09478294,0.08457544,1.334596,-0.0009417126,-0.4135032,1.307191,-0.1439705,-0.1793958,1.339061,0.3103165,-0.1923204,1.346025,NA,NA,NotTracked,NotTracked,
0.9106445,-0.3793945,0.02880859,0.9365234,0.3251953,0.04785156,-1,-1,1,0,-2,0,-1,-2,-1,-1,-1,-1,-1,0,-1,-1,-1,-1,-1,8.5625,8.5625,8.5625,2.536478,3.126915,7.280189,7.465789,3.075283,9.331193,-0.1196631,-0.4590605,1.255185,0.2492832,-0.4552251,1.234599,0.1087464,0.3801729,1.351304,-0.1610397,-0.4650673,1.245139,0.2020337,-0.473833,1.219572,0.08149371,-0.09648676,1.352597,0.08026078,-0.4235697,1.345152,-0.09421091,0.08466907,1.334505,-0.0003308634,-0.4132384,1.306771,-0.1434789,-0.1791895,1.338729,0.310343,-0.1923102,1.345948,NA,NA,NotTracked,Unknown,
0.9111328,-0.3867188,0.02929688,0.9414063,0.359375,0.04882813,1,-3,-1,-1,0,0,-1,-1,0,0,-1,-2,-2,-1,-2,-1,-0.1875,-0.1875,-0.1875,12.4375,12.4375,12.4375,2.534002,3.127776,7.283076,7.492171,3.069395,9.316356,-0.1203768,-0.4570952,1.255061,0.251388,-0.4572352,1.235923,0.1094814,0.3799765,1.351216,-0.1597335,-0.4631262,1.244474,0.2035334,-0.4476956,1.220905,0.08212522,-0.09644905,1.352563,0.08097062,-0.4234159,1.344984,-0.09379795,0.08479984,1.334434,0.0003036186,-0.4130262,1.306528,-0.1431517,-0.1786598,1.338419,0.3108074,-0.1928362,1.345724,NA,NA,NotTracked,Unknown,
0.9130859,-0.378418,0.03564453,0.9296875,0.3657227,0.0546875,-1,-1,0,-1,-1,0,-1,-1,1,-3,0,0,0,-1,-1,0,2.3125,2.3125,2.3125,4.5625,4.5625,4.5625,2.533508,3.129074,7.287062,7.508397,3.064148,9.306203,-0.1208842,-0.4585829,1.253779,0.2539522,-0.4553681,1.237779,0.1102785,0.3797387,1.351271,-0.159253,-0.4691863,1.237451,0.2022928,-0.4694336,1.2177,0.08279924,-0.09635255,1.352397,0.08159889,-0.4230946,1.344677,-0.09346845,0.08494432,1.334353,0.0009147875,-0.4126407,1.306107,-0.1426934,-0.1785232,1.338149,0.311016,-0.1928251,1.345486,NA,NA,NotTracked,NotTracked,
0.902832,-0.3676758,0.03857422,0.9296875,0.3374023,0.05175781,-1,-1,2,-1,0,-2,-1,0,-2,0,-1,-2,-12,-3,-1,-1,0.8125,0.8125,0.8125,-0.5625,-0.5625,-0.5625,2.535851,3.128282,7.287956,7.512716,3.059029,9.299769,-0.1210718,-0.4571062,1.254333,0.2560619,-0.4550224,1.238848,0.1104916,0.3797188,1.351288,-0.1652332,-0.4607476,1.253667,0.2092375,-0.4342138,1.22403,0.08294567,-0.09632803,1.352365,0.08185036,-0.4230954,1.34453,-0.09314181,0.08500712,1.334124,0.001136194,-0.4125906,1.305874,-0.1425803,-0.1781766,1.337963,0.3114316,-0.1931139,1.345235,NA,NA,NotTracked,NotTracked,
0.9042969,-0.3730469,0.03417969,0.9433594,0.3398438,0.04785156,0,0,-2,0,-1,-1,-2,-1,-2,-2,-1,-1,-7,0,-2,-2,-1.75,-1.75,-1.75,0.625,0.625,0.625,2.537646,3.127323,7.285611,7.517058,3.054027,9.294121,-0.1205161,-0.4581191,1.253397,0.2572676,-0.4557568,1.23952,0.1106368,0.3797026,1.351327,-0.1608926,-0.4645895,1.244961,0.2078309,-0.4418987,1.222468,0.08312336,-0.09632025,1.352188,0.08207917,-0.4230544,1.344308,-0.09291112,0.08516239,1.333934,0.001350556,-0.4124913,1.305601,-0.1424038,-0.1780195,1.337824,0.3120564,-0.1938725,1.34478,NA,NA,NotTracked,NotTracked,
0.9086914,-0.3730469,0.02832031,0.9428711,0.340332,0.03808594,-1,0,-2,0,0,-2,0,1,0,-2,-2,-2,-1,-1,-2,-2,-2.4375,-2.4375,-2.4375,1.1875,1.1875,1.1875,2.536824,3.126391,7.28532,7.515859,3.050315,9.295733,-0.1205939,-0.4582779,1.253213,0.2595887,-0.447308,1.240963,0.1106499,0.3796969,1.351341,-0.1622496,-0.4647263,1.245979,0.2109439,-0.4315909,1.224464,0.08336505,-0.09631912,1.351966,0.08240879,-0.4230506,1.344092,-0.09266933,0.08527063,1.333664,0.001594859,-0.4125077,1.305426,-0.1422635,-0.1779322,1.33763,0.3122501,-0.1938442,1.344669,NA,NA,NotTracked,NotTracked,
0.9091797,-0.3828125,0.02539063,0.9467773,0.3369141,0.04052734,-1,-1,-1,-1,0,-4,-1,-1,-1,-1,0,-2,-2,-3,-2,-1,-2.375,-2.375,-2.375,2.9375,2.9375,2.9375,2.535486,3.12507,7.284289,7.507376,3.046249,9.307191,-0.1210879,-0.4580189,1.254608,0.2598614,-0.4506868,1.241543,0.1106532,0.3796967,1.351351,-0.165828,-0.4540781,1.257273,0.2108503,-0.4339914,1.225064,0.08357758,-0.09624336,1.351889,0.08257786,-0.4229552,1.344006,-0.09261587,0.08535476,1.333622,0.001735486,-0.4124341,1.30538,-0.1420685,-0.177923,1.337528,0.3123477,-0.193837,1.344592,NA,NA,NotTracked,NotTracked,
0.9077148,-0.3691406,0.02148438,0.9379883,0.3339844,0.03076172,-2,-1,-1,-2,0,-1,-1,0,0,-2,-1,-1,0,-1,-1,-1,-2.8125,-2.8125,-2.8125,7.75,7.75,7.75,2.534956,3.12204,7.281767,7.496468,3.04286,9.324378,-0.1205472,-0.4582129,1.253774,0.2607349,-0.4486098,1.241923,0.1105479,0.3798422,1.351583,-0.1638171,-0.4482556,1.255,0.2126136,-0.4320639,1.226348,0.08374357,-0.09609738,1.351566,0.08269335,-0.4228271,1.343795,-0.09246351,0.0855293,1.333226,0.001829251,-0.4122559,1.305248,-0.1418752,-0.1777682,1.3373,0.3120838,-0.1923857,1.344124,NA,NA,NotTracked,NotTracked,
0.9106445,-0.3730469,0.01464844,0.9243164,0.3442383,0.01269531,-2,0,0,-1,0,-2,1,-2,0,-1,-1,-1,0,-1,0,-1,-4.375,-4.375,-4.375,9.4375,9.4375,9.4375,2.532208,3.12112,7.282281,7.493016,3.04065,9.338774,-0.1203788,-0.4591944,1.253361,0.2596058,-0.4489786,1.241913,0.1104648,0.3798934,1.351625,-0.1594671,-0.4621561,1.241055,0.2094286,-0.437494,1.223935,0.08384651,-0.09603984,1.351366,0.08272073,-0.4227717,1.343728,-0.0924404,0.08561659,1.33298,0.001854013,-0.4121772,1.305197,-0.141756,-0.1776114,1.337145,0.3110977,-0.1899876,1.343689,NA,NA,NotTracked,NotTracked,
0.9125977,-0.3706055,0.03027344,0.9321289,0.3486328,0.01367188,1,0,0,-1,-1,-1,0,0,0,-2,-1,-1,0,-2,-2,0,-0.125,-0.125,-0.125,8.375,8.375,8.375,2.531121,3.118371,7.281014,7.493171,3.038499,9.349492,-0.1197036,-0.45826,1.252634,0.2590158,-0.4486798,1.240782,0.1100102,0.3799969,1.351757,-0.1635109,-0.4544705,1.248688,0.2117305,-0.4332143,1.22579,0.08385006,-0.09587405,1.351146,0.08273996,-0.4226056,1.343603,-0.0926606,0.0857702,1.332574,0.001864584,-0.4120753,1.305119,-0.1416256,-0.1773361,1.336977,0.31147,-0.1901116,1.34333,NA,NA,NotTracked,NotTracked,
0.9140625,-0.3544922,0.03662109,0.921875,0.3452148,-0.0004882813,0,1,-2,-1,0,-1,-1,-1,-1,0,-1,-1,0,-2,-1,-2,1.125,1.125,1.125,6.4375,6.4375,6.4375,2.534154,3.115565,7.279838,7.497771,3.037491,9.352153,-0.1205748,-0.4583217,1.25274,0.257615,-0.4485678,1.239092,0.1094749,0.3801249,1.351836,-0.158849,-0.4507118,1.237957,0.2078676,-0.4579059,1.220083,0.08378431,-0.0957556,1.350925,0.08270013,-0.4225158,1.343529,-0.09279834,0.08597949,1.331888,0.00181983,-0.4119677,1.305126,-0.14158,-0.1772341,1.336788,0.3118505,-0.1905952,1.342811,NA,NA,NotTracked,NotTracked,
0.9086914,-0.3574219,0.04052734,0.9311523,0.3330078,-0.005371094,0,0,-1,1,-1,0,0,-1,0,-1,0,1,10,1,-2,0,-1.5,-1.5,-1.5,5.125,5.125,5.125,2.536832,3.113035,7.277049,7.506632,3.037104,9.349373,-0.1209759,-0.458845,1.253085,0.2573307,-0.4487754,1.239093,0.1080002,0.3805801,1.352085,-0.1630007,-0.4569333,1.246111,0.210775,-0.441877,1.224298,0.08377387,-0.09551932,1.350298,0.08275408,-0.4223886,1.34338,-0.09348051,0.08622937,1.330646,0.001826155,-0.4119057,1.305142,-0.1416911,-0.177067,1.33635,0.3119018,-0.1910434,1.342136,NA,NA,NotTracked,NotTracked,
0.909668,-0.3666992,0.03955078,0.9399414,0.3286133,0.002929688,0,0,-4,-2,-1,-1,-2,-1,0,-1,1,-1,-3,-3,-2,-1,-1.1875,-1.1875,-1.1875,4.8125,4.8125,4.8125,2.540501,3.110829,7.272423,7.512945,3.039291,9.348225,-0.1210852,-0.4594117,1.252901,0.2575788,-0.4490757,1.238165,0.1070166,0.380856,1.352353,-0.1618651,-0.4564002,1.245386,0.2093922,-0.4452589,1.222685,0.08358863,-0.09530103,1.35007,0.08275133,-0.4222975,1.343321,-0.09384457,0.08628201,1.33026,0.0018237,-0.411861,1.305147,-0.1417139,-0.1770661,1.336248,0.3119717,-0.1911291,1.341816,NA,NA,NotTracked,NotTracked,
0.9194336,-0.371582,0.04589844,0.9418945,0.3271484,0.0078125,0,-1,1,-2,0,0,-1,-2,1,0,-3,0,-1,-1,0,-2,-0.75,-0.75,-0.75,1.5625,1.5625,1.5625,2.547359,3.109735,7.265578,7.51406,3.042871,9.349612,-0.1216025,-0.4580386,1.252249,0.2574007,-0.4482407,1.236452,0.1058766,0.3810697,1.352453,-0.1636758,-0.4574366,1.244666,0.2073736,-0.4562311,1.218923,0.08343448,-0.09512223,1.349735,0.08272449,-0.4222345,1.34324,-0.0950299,0.08531881,1.333066,0.001804013,-0.4118291,1.305149,-0.1418605,-0.1771112,1.336017,0.31176,-0.1908453,1.341131,NA,NA,NotTracked,NotTracked,
0.9145508,-0.3710938,0.03759766,0.9399414,0.3212891,0.01318359,-1,-2,1,-1,0,-1,-1,0,-1,-1,1,-1,-2,-1,0,0,-0.9375,-0.9375,-0.9375,-1.3125,-1.3125,-1.3125,2.550201,3.108895,7.262465,7.509597,3.046827,9.353573,-0.1216078,-0.4594629,1.252508,0.2579123,-0.4481088,1.236336,0.1047144,0.381332,1.352686,-0.1636266,-0.4574174,1.247098,0.2097889,-0.4469205,1.222825,0.08328079,-0.09494735,1.349476,0.08271553,-0.4221755,1.343196,-0.09574477,0.08563426,1.331857,0.00179578,-0.4118122,1.30516,-0.1418799,-0.1771444,1.335847,0.3117089,-0.1910258,1.340631,NA,NA,NotTracked,NotTracked,
0.9116211,-0.3706055,0.03417969,0.9335938,0.3261719,0.01318359,-1,0,-1,-1,-1,-1,-1,0,-2,-1,-3,-2,2,-2,0,0,-2.1875,-2.1875,-2.1875,0.3125,0.3125,0.3125,2.553362,3.109333,7.257476,7.50407,3.050485,9.358708,-0.1212101,-0.4589287,1.252497,0.2578352,-0.4479032,1.235166,0.1037558,0.3813754,1.352735,-0.1513675,-0.4764103,1.226539,0.2089272,-0.4318281,1.223647,0.08313812,-0.09479257,1.349257,0.08268062,-0.4221093,1.343153,-0.09610012,0.08578739,1.331269,0.001772833,-0.4117838,1.305178,-0.1419415,-0.1770809,1.335815,0.3117531,-0.191202,1.34036,NA,NA,NotTracked,NotTracked,
0.9160156,-0.3764648,0.03417969,0.921875,0.331543,0.008789063,1,-1,0,0,-2,0,-1,2,0,-1,-1,0,3,-3,-1,-3,-3.5,-3.5,-3.5,0.8125,0.8125,0.8125,2.552367,3.109778,7.255242,7.498539,3.05394,9.365316,-0.1214034,-0.4581521,1.251407,0.2573204,-0.4462973,1.232448,0.1017648,0.381825,1.353076,-0.1616877,-0.4580511,1.241452,0.2099405,-0.4377998,1.223415,0.08257824,-0.09443425,1.348403,0.08258317,-0.421969,1.342861,-0.09713978,0.08517697,1.332565,0.001713717,-0.4117455,1.305158,-0.1422638,-0.1769968,1.335344,0.3114931,-0.1912769,1.339396,NA,NA,NotTracked,NotTracked,
0.9111328,-0.3710938,0.04101563,0.9243164,0.324707,0.008789063,0,-2,-2,-2,-2,0,-1,-2,-1,-1,-2,-2,-2,-1,-1,-1,-2.25,-2.25,-2.25,0.6875,0.6875,0.6875,2.55189,3.110531,7.253607,7.492012,3.056965,9.37235,-0.1221017,-0.4574164,1.251336,0.2572677,-0.4455909,1.232587,0.1010983,0.3820323,1.353014,-0.162829,-0.4589393,1.240644,0.2101847,-0.44082,1.223109,0.0822762,-0.09427097,1.348127,0.08248078,-0.4218924,1.342729,-0.09741525,0.08569773,1.330986,0.001620814,-0.4116843,1.305139,-0.1423638,-0.1769744,1.335121,0.3109581,-0.1909835,1.338716,NA,NA,NotTracked,NotTracked,
0.9150391,-0.3657227,0.04248047,0.9282227,0.3295898,0.009277344,-2,-1,1,-2,-1,-1,-2,-1,-2,-3,0,-2,1,-1,-1,-2,-1.5,-1.5,-1.5,1.375,1.375,1.375,2.552716,3.111053,7.252355,7.488959,3.058816,9.377074,-0.1206726,-0.4579073,1.251631,0.2569666,-0.4450679,1.232173,0.1005248,0.3821724,1.353016,-0.1595435,-0.4585268,1.239536,0.209519,-0.442309,1.222831,0.08209205,-0.0941352,1.348057,0.08237965,-0.4217914,1.342694,-0.09767888,0.08580011,1.330206,0.001504152,-0.4116134,1.305223,-0.1424424,-0.1769108,1.335014,0.3109101,-0.1909654,1.338479,NA,NA,NotTracked,NotTracked,
0.9233398,-0.3574219,0.04443359,0.9350586,0.3344727,0.01171875,0,0,0,-2,-2,-1,1,0,-3,-2,-1,0,-3,0,-1,-1,-1.3125,-1.3125,-1.3125,-0.8125,-0.8125,-0.8125,2.55304,3.111069,7.25161,7.483803,3.060082,9.382439,-0.1214153,-0.4576799,1.250325,0.2563342,-0.4434371,1.2309,0.09984531,0.3823302,1.352848,-0.1648372,-0.4560787,1.2445,0.2079877,-0.430151,1.222706,0.08200581,-0.09402473,1.347917,0.08242542,-0.4216247,1.342548,-0.09812238,0.08507551,1.332831,0.00152933,-0.4115556,1.305217,-0.1424312,-0.1771555,1.33466,0.3108531,-0.1911123,1.338107,NA,NA,NotTracked,NotTracked,
0.9238281,-0.3579102,0.04443359,0.9326172,0.3286133,0.01269531,0,-1,-1,-1,-1,-1,0,-1,-1,-1,-1,0,-1,-1,1,-1,-3.4375,-3.4375,-3.4375,-1.1875,-1.1875,-1.1875,2.553959,3.111401,7.247041,7.477107,3.060234,9.387748,-0.1215944,-0.4580319,1.249714,0.2563521,-0.4434491,1.230943,0.0993605,0.3824572,1.352818,-0.1633183,-0.4600544,1.243329,0.2081245,-0.4350112,1.222549,0.08195668,-0.09394422,1.347841,0.08238084,-0.4214678,1.342495,-0.0983516,0.08529584,1.331544,0.001493258,-0.4114425,1.30524,-0.1425477,-0.177015,1.334483,0.3107236,-0.1910808,1.337798,NA,NA,NotTracked,NotTracked,
0.9208984,-0.3549805,0.03662109,0.9321289,0.3383789,0.004394531,-1,-1,-1,-2,-2,-3,-2,0,-1,1,-2,0,-2,-1,-1,-2,-3.125,-3.125,-3.125,0.5,0.5,0.5,2.553677,3.111112,7.24354,7.477107,3.060234,9.387748,-0.1209559,-0.4576772,1.250104,0.2560115,-0.4431477,1.230801,0.09864372,0.3826512,1.35273,-0.1454016,-0.4687964,1.220568,0.2082873,-0.4374601,1.222508,0.08175828,-0.09386487,1.347623,0.08229576,-0.421442,1.342379,-0.09869303,0.08452647,1.334576,0.001402289,-0.4113427,1.305262,-0.1426592,-0.1768667,1.334134,0.3105969,-0.190946,1.337191,NA,NA,NotTracked,NotTracked,
0.9208984,-0.3549805,0.03662109,0.9326172,0.3427734,0.01171875,0,1,0,0,1,0,-1,-1,-1,-1,-1,1,0,0,-2,0,-3.125,-3.125,-3.125,-0.75,-0.75,-0.75,2.553677,3.111112,7.24354,7.476026,3.05959,9.388162,-0.1210464,-0.4566216,1.249692,0.2558884,-0.4430313,1.230362,0.09833465,0.3826937,1.352554,-0.1647281,-0.4525432,1.240143,0.207809,-0.4338106,1.222826,0.08166789,-0.09374397,1.347515,0.08230142,-0.4213342,1.342278,-0.0987885,0.08436224,1.335525,0.001396789,-0.4112812,1.305257,-0.1427516,-0.1765588,1.33374,0.310546,-0.1910022,1.337014,NA,NA,NotTracked,NotTracked,
0.9165039,-0.3696289,0.03613281,0.9282227,0.3417969,0.009277344,0,-2,-1,-2,-1,-1,0,-3,0,-1,-1,-3,-1,-1,-1,-2,-3.3125,-3.3125,-3.3125,-1.125,-1.125,-1.125,2.550431,3.110337,7.242168,7.475637,3.05761,9.386816,-0.1208833,-0.4575591,1.248883,0.2563972,-0.4433085,1.230278,0.09815452,0.3826194,1.352424,-0.1648766,-0.4533948,1.242417,0.2078711,-0.4344146,1.222182,0.08158459,-0.09367542,1.347417,0.08222944,-0.421215,1.342155,-0.09863499,0.08540786,1.332224,0.001336761,-0.4111648,1.305233,-0.1427839,-0.1762124,1.333392,0.3104656,-0.1909113,1.336725,NA,NA,NotTracked,NotTracked,
0.9130859,-0.3642578,0.03173828,0.9277344,0.3378906,0.01074219,1,-1,-1,-2,-1,0,-1,-1,0,0,-2,1,-1,-1,-1,0,-2.3125,-2.3125,-2.3125,1.0625,1.0625,1.0625,2.544901,3.110082,7.244055,7.477401,3.055192,9.38553,-0.1213806,-0.4560585,1.248972,0.2563422,-0.4428809,1.230616,0.09805997,0.3826251,1.352386,-0.159364,-0.4586989,1.235361,0.2078668,-0.4308082,1.222405,0.08156323,-0.09364599,1.347358,0.08224019,-0.4212033,1.342099,-0.09860013,0.08513007,1.3333,0.001344553,-0.4111372,1.305228,-0.1426792,-0.1760627,1.333143,0.3104204,-0.1907677,1.336569,NA,NA,NotTracked,NotTracked,
0.9169922,-0.3554688,0.02978516,0.9287109,0.3452148,0.02490234,-1,-2,-1,-1,-1,-2,-1,-2,-1,-2,-3,0,-4,0,-1,-2,-2.75,-2.75,-2.75,2.9375,2.9375,2.9375,2.541095,3.108182,7.245782,7.483054,3.052305,9.382425,-0.1214203,-0.4563488,1.249363,0.2565257,-0.4435008,1.230871,0.09799611,0.3826199,1.352334,-0.1714676,-0.4579079,1.250857,0.2082776,-0.4365463,1.222453,0.08154468,-0.09353707,1.347296,0.0822181,-0.4210505,1.342044,-0.09882372,0.08608826,1.33099,0.001320094,-0.4110399,1.305248,-0.14267,-0.1760431,1.333118,0.3105383,-0.190829,1.336333,NA,NA,NotTracked,NotTracked,
0.9130859,-0.3564453,0.03808594,0.9257813,0.3486328,0.01416016,0,-2,-1,1,-1,-1,0,-3,-1,-1,0,-1,-2,-2,-2,-2,-3.6875,-3.6875,-3.6875,0.5,0.5,0.5,2.538352,3.105732,7.245191,7.48769,3.050303,9.378533,-0.1204529,-0.4556266,1.248565,0.2566384,-0.4424774,1.230583,0.09787478,0.3826522,1.352236,-0.1637173,-0.4471682,1.2505,0.2090756,-0.4334774,1.223268,0.08155472,-0.09330606,1.347051,0.08222321,-0.4207868,1.34196,-0.0985596,0.08731417,1.328011,0.001316512,-0.4107809,1.305296,-0.1425461,-0.1749526,1.332527,0.3105397,-0.1907615,1.336099,NA,NA,NotTracked,Unknown,
0.9042969,-0.362793,0.03320313,0.9238281,0.3310547,0.01953125,0,0,0,0,-1,-1,-1,-1,-2,0,-2,-1,2,-1,-3,-2,-4.1875,-4.1875,-4.1875,0.125,0.125,0.125,2.535704,3.104223,7.244213,7.489627,3.048344,9.375313,-0.1206515,-0.45523,1.249,0.2573935,-0.4426472,1.231549,0.09779545,0.3825507,1.351953,-0.1634867,-0.4561962,1.244104,0.2134759,-0.4251586,1.227694,0.08152141,-0.0931697,1.346936,0.08221817,-0.4206929,1.34192,-0.09822407,0.0876495,1.326346,0.001306521,-0.4106805,1.30531,-0.1425238,-0.1749455,1.332417,0.3104909,-0.1906628,1.335923,NA,NA,NotTracked,Unknown,
0.9047852,-0.3603516,0.03662109,0.9321289,0.3398438,0.02685547,0,-2,-2,-2,2,0,0,1,-1,-2,0,-1,-1,-2,-2,-2,-4.0625,-4.0625,-4.0625,1.6875,1.6875,1.6875,2.534476,3.103394,7.243629,7.492448,3.047968,9.373574,-0.1216253,-0.4551814,1.249781,0.2577495,-0.4428816,1.232249,0.09779365,0.3825645,1.351913,-0.1636136,-0.4534057,1.24072,0.2137315,-0.4253414,1.228497,0.08155126,-0.09308,1.346885,0.0822113,-0.4206458,1.341908,-0.09820315,0.08681966,1.329863,0.001302518,-0.410602,1.305359,-0.1425569,-0.1747811,1.332174,0.3104931,-0.190523,1.335832,NA,NA,NotTracked,NotTracked,
0.9116211,-0.3481445,0.03173828,0.9248047,0.3374023,0.02148438,-2,-1,-1,0,-3,-1,0,0,-1,0,-1,0,-1,-1,-3,-2,-3,-3,-3,-2.5,-2.5,-2.5,2.533237,3.099815,7.241271,7.490838,3.048523,9.373125,-0.1205296,-0.455474,1.249653,0.2584724,-0.4421352,1.232083,0.09778161,0.3825895,1.351695,-0.1639444,-0.4476783,1.244874,0.2136909,-0.4249876,1.228429,0.08157815,-0.09294055,1.346832,0.08222781,-0.4205061,1.341947,-0.09789009,0.08790775,1.328036,0.001318245,-0.4104238,1.305514,-0.1426888,-0.1745346,1.331921,0.3105356,-0.1904051,1.335752,NA,NA,NotTracked,NotTracked,
0.9091797,-0.3476563,0.03515625,0.9291992,0.3198242,0.0234375,-2,-1,0,0,-2,0,-1,-1,-1,-1,-1,-1,-3,0,-2,-1,-2.75,-2.75,-2.75,-3.8125,-3.8125,-3.8125,2.532661,3.096806,7.239084,7.484292,3.048097,9.375508,-0.1203624,-0.4547286,1.250507,0.2587023,-0.4422735,1.232329,0.09777381,0.3826524,1.35155,-0.1643739,-0.4475213,1.247917,0.214141,-0.4250011,1.229476,0.08164133,-0.09279396,1.34679,0.08235605,-0.4204004,1.342009,-0.09711394,0.08857644,1.325859,0.001473003,-0.4102933,1.305742,-0.1427258,-0.17364,1.331553,0.3105306,-0.1903899,1.335743,NA,NA,NotTracked,Unknown,
0.9111328,-0.3505859,0.03710938,0.9326172,0.3242188,0.02636719,0,-2,-2,-3,1,-1,1,0,-1,0,-1,1,0,-3,0,0,-2.5,-2.5,-2.5,-2.3125,-2.3125,-2.3125,2.532926,3.095536,7.237715,7.478825,3.047624,9.377524,-0.1201398,-0.4562431,1.249766,0.2588954,-0.4406294,1.232394,0.09789074,0.3826338,1.35119,-0.1588172,-0.4591454,1.231773,0.208086,-0.4451275,1.221333,0.08179279,-0.09264933,1.346712,0.08275882,-0.4201644,1.342234,-0.09701964,0.08812054,1.327414,0.001891876,-0.4102238,1.306154,-0.1427945,-0.1726164,1.331593,0.3104191,-0.1900778,1.335492,NA,NA,NotTracked,Unknown,
0.9082031,-0.3544922,0.02880859,0.9272461,0.3242188,0.02050781,-1,-1,-1,0,0,-2,-1,0,-1,-2,-1,-1,-2,0,-2,-1,-1.4375,-1.4375,-1.4375,-2.875,-2.875,-2.875,2.532984,3.094404,7.236551,7.471051,3.047071,9.381762,-0.1205916,-0.4559369,1.250594,0.2587906,-0.4402027,1.232451,0.0979262,0.3827251,1.350984,-0.1617967,-0.4567869,1.238371,0.2126614,-0.4292971,1.226714,0.08188241,-0.092509,1.346677,0.08285598,-0.4200695,1.342335,-0.09694868,0.08847004,1.326275,0.002005659,-0.4101329,1.306356,-0.1427432,-0.1726234,1.331541,0.3103771,-0.1901027,1.335392,NA,NA,NotTracked,Unknown,
0.9077148,-0.3588867,0.02490234,0.9311523,0.3237305,0.01806641,-1,0,-1,-1,-1,-1,-1,0,0,0,0,-1,-2,0,-2,-1,-0.4375,-0.4375,-0.4375,-0.5625,-0.5625,-0.5625,2.53226,3.094391,7.237275,7.464899,3.044507,9.386945,-0.1203738,-0.4550395,1.25065,0.2592995,-0.4404326,1.232765,0.09793995,0.3827148,1.350759,-0.1619443,-0.4546869,1.240781,0.2145974,-0.4275469,1.228915,0.08190951,-0.0924595,1.346671,0.08305557,-0.4199673,1.342437,-0.09706501,0.0873257,1.329657,0.002194979,-0.4100604,1.306498,-0.1427384,-0.1726253,1.331537,0.3103583,-0.189968,1.335336,NA,NA,NotTracked,Unknown,
0.9082031,-0.3632813,0.02832031,0.934082,0.3359375,0.01513672,-1,-3,0,-1,-2,-1,0,-2,0,-2,-1,-1,0,-1,-1,-1,1.25,1.25,1.25,0.3125,0.3125,0.3125,2.532007,3.096342,7.240445,7.46143,3.042981,9.390496,-0.1201921,-0.4545761,1.250483,0.2587835,-0.440179,1.232996,0.09796357,0.3827243,1.350497,-0.1633055,-0.4525862,1.241295,0.2129293,-0.4303504,1.227197,0.08190996,-0.09239675,1.346641,0.08306792,-0.4198673,1.342489,-0.09712183,0.08774758,1.32811,0.002209687,-0.4099758,1.306551,-0.1427128,-0.1726064,1.331494,0.3103625,-0.1899869,1.335311,NA,NA,NotTracked,Unknown,
0.9130859,-0.3608398,0.03613281,0.9257813,0.3408203,0.01269531,0,-1,1,-1,-2,-2,-1,-1,-1,-1,-1,-2,1,-2,-2,-1,2.6875,2.6875,2.6875,-1.8125,-1.8125,-1.8125,2.533561,3.098603,7.242646,7.458644,3.04268,9.392038,-0.1201661,-0.4555525,1.249848,0.2583753,-0.4406639,1.233185,0.09796946,0.3827147,1.350272,-0.1407876,-0.4645546,1.215658,0.2132633,-0.4274668,1.227653,0.08189869,-0.0923505,1.346603,0.08307591,-0.4198444,1.342498,-0.09734289,0.08687526,1.330808,0.002214333,-0.4099549,1.306575,-0.1427397,-0.1725447,1.331483,0.3104011,-0.1899611,1.335343,NA,NA,NotTracked,NotTracked,
0.9111328,-0.3579102,0.03662109,0.9375,0.340332,0.004394531,-1,-2,-1,-1,0,0,-1,0,-1,1,-1,0,-4,-1,1,-1,2.5625,2.5625,2.5625,-3.375,-3.375,-3.375,2.536947,3.100597,7.243019,7.456081,3.043105,9.391134,-0.1210057,-0.4552807,1.25087,0.2585996,-0.4410391,1.234278,0.09800235,0.3827639,1.350119,-0.1643457,-0.4457491,1.245687,0.2139812,-0.4305603,1.22657,0.08190142,-0.09229751,1.346577,0.08310837,-0.4197543,1.342562,-0.09746028,0.0869697,1.330149,0.002243855,-0.4099126,1.306686,-0.1428348,-0.1720674,1.33165,0.3104717,-0.1900426,1.335408,NA,NA,NotTracked,NotTracked,
0.9204102,-0.3515625,0.03564453,0.9296875,0.3408203,0.008789063,-2,-2,0,0,0,0,-1,0,-2,-1,-1,-1,1,-1,-3,-1,1.6875,1.6875,1.6875,-3.25,-3.25,-3.25,2.540225,3.101896,7.245051,7.45415,3.043975,9.388923,-0.1214469,-0.4550452,1.250549,0.2582359,-0.4411275,1.233893,0.09799638,0.3827451,1.349941,-0.1643803,-0.4528289,1.24299,0.211076,-0.4233503,1.226547,0.08193041,-0.09228265,1.346536,0.08313055,-0.4197551,1.342532,-0.09738395,0.08642922,1.331949,0.002257415,-0.4099157,1.306659,-0.142801,-0.1722056,1.331625,0.3105216,-0.1900604,1.335405,NA,NA,NotTracked,NotTracked,
0.9150391,-0.3676758,0.01904297,0.9282227,0.3388672,0.01269531,1,1,-3,-2,-1,0,1,0,-1,-3,-1,-1,-1,1,0,0,1.3125,1.3125,1.3125,-2.9375,-2.9375,-2.9375,2.538586,3.102664,7.248502,7.453319,3.045978,9.386102,-0.1208462,-0.4539829,1.250818,0.2572532,-0.4423749,1.233724,0.097965,0.3827755,1.349865,-0.16426,-0.4444232,1.25,0.2117695,-0.4294659,1.226053,0.08193042,-0.09223168,1.346512,0.08315564,-0.4197171,1.342498,-0.09756768,0.08604403,1.333439,0.00227246,-0.4099013,1.306657,-0.1427605,-0.1724149,1.33153,0.3105216,-0.1900638,1.335404,NA,NA,NotTracked,NotTracked,
