ALX,ALY,ALZ,ARX,ARY,ARZ,EMG0L,EMG1L,EMG2L,EMG3L,EMG4L,EMG5L,EMG6L,EMG7L,EMG0R,EMG1R,EMG2R,EMG3R,EMG4R,EMG5R,EMG6R,EMG7R,GLX,GLY,GLZ,GRX,GRY,GRZ,ORL,OPL,OYL,ORR,OPR,OYR,LHNX,LHNY,LHNZ,RHNX,RHNY,RHNZ,HX,HY,HZ,LTX,LTY,LTZ,RTX,RTY,RTZ,SpineMidX,SpineMidY,SpineMidZ,SpineBaseX,SpineBaseY,SpineBaseZ,ShoulderLeftX,ShoulderLeftY,ShoulderLeftZ,ShoulderRightX,ShoulderRightY,ShoulderRightZ,ElbowLeftX,ElbowLeftY,ElbowLeftZ,ElbowRightX,ElbowRightY,ElbowRightZ,Myo_Pose_left,Myo_Pose_Right,Kinect_pose_left,Kinect_pose_right
0.9174805,-0.3535156,0.03271484,-0.4291992,0.8105469,0.4521484,0,-1,0,-1,-1,0,-1,-2,23,40,17,1,6,1,2,5,-11.6875,-11.6875,-11.6875,-3,-3,-3,2.587336,3.153437,7.371408,6.727161,5.655802,9.002161,-0.1200453,-0.4604825,1.244747,0.3344367,0.02540969,1.167234,0.09675775,0.3811852,1.353789,-0.1580075,-0.463932,1.235542,0.29982,0.06393974,1.2165,0.07796914,-0.09663012,1.351157,0.07718161,-0.4237276,1.337532,-0.09875652,0.07951792,1.339239,-0.003775121,-0.4137382,1.299579,-0.1431804,-0.1801455,1.336182,0.3629178,-0.1522075,1.357266,NA,NA,NotTracked,Unknown,
0.9057617,-0.3515625,0.02441406,-0.4106445,0.8374023,0.440918,0,-1,-1,-1,0,-1,-1,0,1,-18,-8,0,5,0,6,6,-9.75,-9.75,-9.75,0.75,0.75,0.75,2.585741,3.152035,7.367393,6.72806,5.650217,9.002339,-0.119523,-0.4610975,1.244587,0.3335741,0.02487625,1.170037,0.09726169,0.3812402,1.353858,-0.1578662,-0.4576211,1.234461,0.299999,0.05584042,1.256572,0.07812336,-0.09664868,1.35119,0.07768331,-0.4239815,1.337641,-0.09842151,0.07956563,1.338342,-0.003367493,-0.4138967,1.299384,-0.143013,-0.1800741,1.335445,0.3681383,-0.1633389,1.360304,NA,NA,NotTracked,Unknown,
0.9023438,-0.3588867,0.01806641,-0.4345703,0.8037109,0.4448242,-1,0,5,2,-2,-1,0,0,-1,-6,3,0,3,2,1,10,-5,-5,-5,-4.4375,-4.4375,-4.4375,2.580272,3.14714,7.362918,6.722878,5.648445,9.003119,-0.1187296,-0.4624414,1.244237,0.333965,0.02547196,1.16743,0.09796644,0.3812301,1.353586,-0.1606211,-0.4625061,1.239786,0.2981187,0.05933211,1.2452,0.0782445,-0.09664245,1.351139,0.07784354,-0.4240573,1.337626,-0.09783088,0.07971136,1.337086,-0.003145207,-0.4139387,1.29909,-0.1429651,-0.1799088,1.33487,0.3685434,-0.1639533,1.360565,NA,NA,NotTracked,Unknown,
0.90625,-0.3730469,0.02294922,-0.409668,0.8085938,0.4492188,-1,-1,-3,-3,-2,2,-1,-2,-6,-18,-9,-3,-5,-3,-3,0,-0.875,-0.875,-0.875,3.1875,3.1875,3.1875,2.574558,3.142907,7.366823,6.723302,5.647445,9.002,-0.1190468,-0.4633026,1.245053,0.3344318,0.02422845,1.16896,0.09858717,0.3813485,1.35347,-0.1574184,-0.4660936,1.230857,0.3047162,0.06016278,1.2612,0.07836866,-0.09662316,1.351122,0.07804252,-0.4241248,1.337627,-0.09757912,0.07975823,1.336477,-0.002962302,-0.4139422,1.298917,-0.142892,-0.1798307,1.334698,0.3686981,-0.164125,1.360318,NA,NA,NotTracked,Unknown,
0.9077148,-0.3774414,0.02636719,-0.4228516,0.8095703,0.449707,-2,0,-3,-1,-1,-2,-1,0,-14,-31,-6,5,-5,-4,4,-13,0.625,0.625,0.625,-2.4375,-2.4375,-2.4375,2.572242,3.140895,7.369988,6.722933,5.645818,9.004688,-0.1188212,-0.4625695,1.245595,0.3345454,0.0230377,1.16678,0.09895488,0.3814389,1.353472,-0.1610564,-0.4580446,1.242672,0.3026116,0.0695792,1.26,0.07851447,-0.09661827,1.35112,0.07824311,-0.4242474,1.337668,-0.09704975,0.07986104,1.335479,-0.002791184,-0.4140037,1.298774,-0.1428097,-0.1796148,1.334245,0.3693707,-0.1658407,1.360915,NA,NA,NotTracked,Unknown,
0.8999023,-0.3867188,0.04736328,-0.40625,0.7851563,0.4589844,0,1,4,2,0,0,0,-3,-1,0,-1,-1,-7,-3,-3,2,0.1875,0.1875,0.1875,-1.1875,-1.1875,-1.1875,2.570557,3.136999,7.374071,6.71874,5.642887,9.0075,-0.1186425,-0.4632839,1.247163,0.335061,0.02280439,1.168,0.09995136,0.3814589,1.353564,-0.1584419,-0.4625368,1.237895,0.3011914,0.06043153,1.255538,0.07884378,-0.09659074,1.351166,0.07871553,-0.4243422,1.337954,-0.09673947,0.07989379,1.336672,-0.002441284,-0.4140043,1.298688,-0.1427788,-0.1794972,1.333954,0.3700135,-0.1663316,1.360453,NA,NA,NotTracked,Unknown,
0.8994141,-0.3911133,0.05078125,-0.4130859,0.8120117,0.4521484,1,1,-1,0,1,-1,-1,0,8,-7,-2,-16,4,4,0,0,2.5,2.5,2.5,-2.0625,-2.0625,-2.0625,2.571729,3.136979,7.375984,6.718893,5.640055,9.012775,-0.1191842,-0.4620664,1.247354,0.3339843,0.0226399,1.16451,0.1003079,0.3815268,1.353599,-0.1591081,-0.4625278,1.237877,0.3044585,0.05745781,1.267667,0.07899842,-0.09662098,1.351162,0.07893313,-0.4244382,1.338042,-0.09651425,0.07988409,1.336152,-0.002251055,-0.414059,1.298634,-0.1427552,-0.1794037,1.333862,0.3720202,-0.1724325,1.361477,NA,NA,NotTracked,Unknown,
0.9018555,-0.3876953,0.05419922,-0.4023438,0.793457,0.4633789,1,-1,-1,-2,-1,-2,1,0,-9,-24,-10,-1,-12,-2,-3,-4,3.6875,3.6875,3.6875,-4.5,-4.5,-4.5,2.573755,3.137163,7.37662,6.714277,5.636078,9.018934,-0.1187957,-0.4627825,1.248077,0.3337379,0.02281171,1.1668,0.1006254,0.3816988,1.353548,-0.1634435,-0.4539487,1.248625,0.3021376,0.0595801,1.25859,0.0792053,-0.09660477,1.351202,0.07919034,-0.4245046,1.338163,-0.09604058,0.08009648,1.335625,-0.002054208,-0.4140765,1.298607,-0.1427442,-0.1793475,1.333836,0.3719845,-0.1648986,1.361477,NA,NA,NotTracked,Unknown,
0.9023438,-0.3828125,0.04199219,-0.4042969,0.796875,0.4355469,-1,-3,-2,1,0,0,0,-3,19,53,10,16,24,4,1,-2,4.0625,4.0625,4.0625,-5.625,-5.625,-5.625,2.576668,3.13849,7.382116,6.71094,5.632885,9.025321,-0.1188951,-0.463596,1.247918,0.3337049,0.02228007,1.16304,0.1008661,0.3817388,1.353544,-0.1596205,-0.4607564,1.240178,0.3031961,0.06001852,1.256136,0.07926717,-0.09662121,1.351221,0.07926565,-0.424554,1.338228,-0.09601106,0.08009209,1.335549,-0.002020406,-0.4140988,1.298606,-0.1426411,-0.1793374,1.333963,0.3723931,-0.1691146,1.361453,NA,NA,NotTracked,Unknown,
0.9057617,-0.3803711,0.04492188,-0.3881836,0.7910156,0.4414063,1,-2,-3,-2,-1,-1,-1,-2,0,2,2,-1,2,-2,-5,1,5.9375,5.9375,5.9375,-6.375,-6.375,-6.375,2.580136,3.140156,7.385794,6.705889,5.624832,9.032837,-0.1190322,-0.4633715,1.24911,0.3342094,0.02066535,1.16013,0.1010048,0.3817207,1.353518,-0.1589443,-0.4687793,1.242193,0.2835777,0.03115361,1.154353,0.07931376,-0.09662624,1.351239,0.07933836,-0.424592,1.338296,-0.09589887,0.08006465,1.335366,-0.00197579,-0.4141178,1.298613,-0.1426297,-0.1793308,1.333965,0.3725372,-0.1697454,1.361336,NA,NA,NotTracked,Unknown,
0.9038086,-0.3774414,0.03564453,-0.3881836,0.7910156,0.4414063,-1,0,0,0,-2,0,-2,-2,-3,-11,-1,-5,-24,0,1,-1,6.125,6.125,6.125,-6.375,-6.375,-6.375,2.580477,3.140516,7.389378,6.705889,5.624832,9.032837,-0.1169779,-0.4620328,1.249464,0.3331364,0.01783072,1.156795,0.1012054,0.3817523,1.353444,-0.1589209,-0.4705895,1.239727,0.2825363,0.03303468,1.163333,0.07947752,-0.09666714,1.351259,0.07946758,-0.4246711,1.338411,-0.09572183,0.08010969,1.335216,-0.001864817,-0.4141454,1.298663,-0.1425157,-0.1792402,1.334013,0.3728164,-0.1702375,1.360984,NA,NA,NotTracked,Unknown,
0.9130859,-0.3945313,0.04541016,-0.449707,0.7504883,0.3984375,-1,-2,-6,-2,-1,-2,0,0,-20,-6,0,10,24,4,14,9,5.375,5.375,5.375,-3.6875,-3.6875,-3.6875,2.582561,3.14242,7.397808,6.704527,5.584464,9.050974,-0.117954,-0.4625227,1.250596,0.3328559,0.01563094,1.153574,0.101231,0.3817411,1.353474,-0.1570986,-0.4678583,1.237159,0.2833695,0.0321461,1.160645,0.0795049,-0.09669615,1.35126,0.07947697,-0.4247129,1.338419,-0.09572277,0.08010776,1.33522,-0.001862556,-0.414157,1.298664,-0.1424761,-0.1793412,1.334127,0.3735193,-0.1710298,1.360448,NA,NA,NotTracked,Unknown,
0.8979492,-0.3886719,0.0390625,-0.5742188,0.7592773,0.3808594,-2,-2,1,0,-1,-2,-1,-2,17,-4,-3,1,-3,-13,-1,0,5.6875,5.6875,5.6875,-4.5,-4.5,-4.5,2.584379,3.143733,7.40356,6.700047,5.533406,9.076264,-0.1181741,-0.4619333,1.250936,0.3329813,0.01148263,1.149383,0.1012523,0.3817109,1.353476,-0.1596199,-0.4709123,1.233667,0.2837493,0.01643864,1.140667,0.0795237,-0.09670896,1.351279,0.0794771,-0.4247463,1.338441,-0.09568609,0.08013035,1.335234,-0.001866993,-0.4141766,1.298676,-0.1424114,-0.1793536,1.334307,0.3736528,-0.1713251,1.360367,NA,NA,NotTracked,Unknown,
0.8945313,-0.3911133,0.04394531,-0.3188477,0.6333008,0.2314453,-1,-1,-2,1,-1,-1,-1,-1,2,-5,-2,4,-3,-9,0,-7,4.6875,4.6875,4.6875,-4.0625,-4.0625,-4.0625,2.584897,3.1441,7.406268,6.70809,5.413316,9.102256,-0.1182537,-0.462313,1.251145,0.3322915,0.01286134,1.134863,0.1012621,0.38171,1.353477,-0.1595122,-0.4646704,1.239728,0.2869336,0.01315572,1.127867,0.07953251,-0.09671724,1.351304,0.07949272,-0.4247974,1.33849,-0.09569349,0.08013715,1.335276,-0.001854171,-0.4142076,1.298708,-0.1423343,-0.1794123,1.334477,0.3738779,-0.172442,1.360372,NA,NA,NotTracked,Unknown,
0.8803711,-0.3964844,0.04833984,-0.1005859,0.6479492,0.5126953,0,-1,-1,0,-1,-1,0,-1,-23,-6,-1,-1,2,-7,-6,-3,0.875,0.875,0.875,13.4375,13.4375,13.4375,2.586445,3.145766,7.409348,6.720968,5.256083,9.130995,-0.1181674,-0.4625057,1.251144,0.3315388,-0.001118756,1.12243,0.1012748,0.3817022,1.353477,-0.1601746,-0.464079,1.241525,0.289254,0.01118867,1.120333,0.07955497,-0.09673824,1.351324,0.07955897,-0.4248749,1.33858,-0.09572975,0.08010406,1.335258,-0.001770615,-0.4142906,1.298905,-0.1421434,-0.1795561,1.334789,0.3745972,-0.1744249,1.360175,NA,NA,NotTracked,Unknown,
0.9008789,-0.4003906,0.05712891,-0.04785156,0.7133789,0.5229492,1,1,-2,-1,-1,0,-2,-2,-26,-6,-3,-2,-2,0,-2,-7,-0.375,-0.375,-0.375,39.125,39.125,39.125,2.588534,3.147172,7.407819,6.758807,5.084776,9.174244,-0.1182914,-0.4628874,1.250421,0.3318595,-0.06857388,1.106061,0.1012377,0.3816707,1.353501,-0.1604485,-0.4606548,1.240224,0.3390755,-0.03660604,1.1186,0.07957084,-0.09676314,1.351427,0.07964636,-0.4249069,1.338714,-0.09589319,0.07999621,1.335451,-0.001650727,-0.4143225,1.29929,-0.142135,-0.179548,1.334921,0.3629704,-0.1630479,1.365167,NA,NA,NotTracked,Unknown,
0.9072266,-0.4042969,0.05712891,0.1733398,0.7299805,0.5751953,0,-2,-1,0,-2,1,-4,-1,10,0,1,0,-2,-3,-3,1,-0.4375,-0.4375,-0.4375,97.5625,97.5625,97.5625,2.589186,3.147251,7.407307,6.844217,4.912629,9.21012,-0.1189198,-0.4621011,1.250932,0.331427,-0.107211,1.09724,0.1010937,0.3817301,1.353713,-0.1621101,-0.4529461,1.2435,0.2921167,-0.08499757,1.1166,0.07958207,-0.09675112,1.351465,0.07965925,-0.4248981,1.338736,-0.09603805,0.07991147,1.335595,-0.001618708,-0.4143108,1.29943,-0.1421197,-0.1795882,1.335018,0.3441312,-0.1581531,1.368486,NA,NA,NotTracked,Unknown,
0.9199219,-0.3925781,0.04931641,0.2875977,0.7568359,0.4726563,0,-1,-1,0,1,-1,-1,-1,0,0,0,-1,-1,-1,-1,-1,0.1875,0.1875,0.1875,158.125,158.125,158.125,2.597907,3.150671,7.398726,6.99642,4.764344,9.26167,-0.1177926,-0.4625594,1.250392,0.3307487,-0.1481412,1.095814,0.1007277,0.3817526,1.354161,-0.1591764,-0.464948,1.238196,0.2851787,-0.1294929,1.103889,0.07960547,-0.09673623,1.351624,0.07977615,-0.4248776,1.338846,-0.0961627,0.07984626,1.335718,-0.001442995,-0.4143248,1.299716,-0.1421998,-0.1796611,1.33522,0.3415697,-0.1556974,1.369558,NA,NA,NotTracked,Unknown,
0.9013672,-0.3720703,0.04296875,0.2192383,0.9013672,0.1845703,-3,-1,-2,-1,-1,-1,-1,-1,-3,-2,-1,-1,-2,-1,-2,0,0.75,0.75,0.75,133.6875,133.6875,133.6875,2.607862,3.154175,7.390454,7.141585,4.605467,9.32963,-0.1183454,-0.4627434,1.249829,0.3220695,-0.2328781,1.096426,0.09992571,0.3819658,1.354742,-0.1598574,-0.4644142,1.24052,0.2895384,-0.206881,1.099,0.07965991,-0.09666499,1.351895,0.0803062,-0.4247672,1.339274,-0.0966149,0.07957157,1.336038,-0.0008637419,-0.4143553,1.300473,-0.1422395,-0.1797973,1.335423,0.3326594,-0.1448758,1.369288,NA,NA,NotTracked,Unknown,
0.8959961,-0.3706055,0.04003906,0.4125977,0.8598633,0.1298828,-1,0,-1,-2,-1,-1,2,0,-2,-1,-3,-2,-2,-2,-1,-3,0.75,0.75,0.75,98.6875,98.6875,98.6875,2.609263,3.154737,7.389755,7.238704,4.411523,9.395397,-0.117783,-0.4632113,1.24957,0.3205248,-0.2798331,1.107156,0.09942716,0.3819479,1.355154,-0.156844,-0.4645023,1.236513,0.3121992,-0.2344967,1.093118,0.07966943,-0.09663659,1.352026,0.08049568,-0.4246909,1.33948,-0.09683086,0.07943034,1.336245,-0.0005811047,-0.4143588,1.300971,-0.1422516,-0.1798354,1.335484,0.3311369,-0.1460723,1.367589,NA,NA,NotTracked,Unknown,
0.9135742,-0.3896484,0.05175781,0.5654297,0.9389648,-0.1147461,-2,-1,-1,-2,0,-1,-2,-2,-1,-3,-2,-1,-1,-1,-3,-2,1.75,1.75,1.75,51.8125,51.8125,51.8125,2.60967,3.153552,7.392856,7.328415,4.076149,9.453303,-0.1178763,-0.4633244,1.25068,0.3188517,-0.3189508,1.125465,0.09899012,0.3819062,1.355493,-0.1566982,-0.4570729,1.238811,0.3235341,-0.2768326,1.10219,0.07973154,-0.09663558,1.352193,0.08083586,-0.4246742,1.339684,-0.09704188,0.07922175,1.336442,-0.000183717,-0.4146269,1.301378,-0.1422198,-0.1800084,1.335662,0.3306724,-0.149694,1.363813,NA,NA,NotTracked,Unknown,
0.9130859,-0.3886719,0.04345703,0.6313477,0.8618164,-0.04589844,0,-1,1,1,-2,0,-1,1,-2,-3,-1,-1,-1,-1,1,-2,3.875,3.875,3.875,31,31,31,2.610257,3.153296,7.396899,7.345776,3.959454,9.45483,-0.1175238,-0.4635114,1.250664,0.3149959,-0.3617829,1.145141,0.0984672,0.3819526,1.355947,-0.1594987,-0.468855,1.244048,0.3032032,-0.3175152,1.111391,0.0797111,-0.09654664,1.352412,0.08094452,-0.4246037,1.339826,-0.09725594,0.07912569,1.336703,-4.024686E-05,-0.4146689,1.301592,-0.1422083,-0.180027,1.335884,0.3277152,-0.1543059,1.361792,NA,NA,NotTracked,Unknown,
0.9101563,-0.3837891,0.046875,0.9125977,0.6879883,0.08886719,-1,-1,0,-1,-1,-1,0,0,-1,1,0,-1,-1,-1,-1,0,4.75,4.75,4.75,-14.25,-14.25,-14.25,2.612444,3.153286,7.3978,7.371296,3.617915,9.416641,-0.1179358,-0.4629699,1.250279,0.309198,-0.3719555,1.1587,0.09800672,0.38203,1.356196,-0.1571196,-0.4619313,1.238671,0.3339771,-0.3409884,1.137805,0.07971667,-0.09653039,1.352429,0.08106726,-0.4245277,1.339812,-0.09746577,0.07904558,1.336839,7.124901E-05,-0.4147119,1.301612,-0.1422607,-0.1801021,1.335998,0.325067,-0.160973,1.35871,NA,NA,NotTracked,Unknown,
0.9072266,-0.3803711,0.05029297,1.110352,0.5449219,0.222168,0,-1,-2,-1,-1,-1,1,-2,0,-2,-1,-1,-2,-2,-2,-1,6.4375,6.4375,6.4375,-13.875,-13.875,-13.875,2.618517,3.154394,7.402954,7.37977,3.417981,9.380794,-0.1183495,-0.4643202,1.252158,0.2924289,-0.4096831,1.195634,0.09705505,0.3820197,1.356798,-0.1611878,-0.468512,1.248584,0.3235689,-0.4398767,1.179923,0.07958083,-0.09649967,1.352557,0.08106282,-0.4244861,1.339823,-0.09820612,0.07859214,1.337903,4.809308E-05,-0.4148149,1.301706,-0.1421883,-0.1813542,1.336802,0.3232258,-0.1638778,1.357234,NA,NA,NotTracked,Unknown,
0.9174805,-0.3818359,0.05810547,1.121582,0.4804688,0.1928711,0,-2,-2,-2,-1,-1,0,0,-1,-1,-1,-1,-2,-1,0,0,5.0625,5.0625,5.0625,-3.875,-3.875,-3.875,2.618438,3.153153,7.410609,7.390124,3.335253,9.364966,-0.1186324,-0.4648046,1.25344,0.287502,-0.4204607,1.213852,0.09677836,0.3819952,1.356885,-0.1605247,-0.4724996,1.248875,0.3178738,-0.407437,1.197729,0.07955071,-0.09649928,1.352575,0.08107705,-0.4244812,1.339792,-0.09830993,0.07857074,1.338184,5.787388E-05,-0.414855,1.301716,-0.1422413,-0.1814685,1.337163,0.3218022,-0.1660025,1.35599,NA,NA,NotTracked,Unknown,
0.9150391,-0.3886719,0.05761719,1.063477,0.4726563,0.0703125,0,-1,1,1,-1,-1,-1,-2,-1,-2,-1,-1,-5,-2,-2,-3,5.0625,5.0625,5.0625,19.0625,19.0625,19.0625,2.616546,3.152068,7.416146,7.431087,3.204676,9.334712,-0.1184613,-0.464974,1.253667,0.2844909,-0.4324046,1.230379,0.09642718,0.382046,1.356934,-0.1573854,-0.4695389,1.237991,0.3139381,-0.4374833,1.2195,0.07955244,-0.0965307,1.352602,0.08110514,-0.4245315,1.339807,-0.09865969,0.07845441,1.338828,8.793026E-05,-0.4148687,1.301823,-0.1422173,-0.1818898,1.337723,0.3200586,-0.1681634,1.35527,NA,NA,NotTracked,Unknown,
0.8935547,-0.3925781,0.06201172,0.9624023,0.7475586,-0.2695313,-1,0,1,-1,-1,0,0,0,0,-2,0,0,4,0,-1,-1,5.8125,5.8125,5.8125,-1.8125,-1.8125,-1.8125,2.611744,3.150669,7.433293,7.556856,3.100171,9.229293,-0.1186494,-0.4641784,1.255353,0.2730322,-0.4325681,1.248729,0.09624062,0.382008,1.356998,-0.1602944,-0.4658381,1.244282,0.3111892,-0.4465963,1.235188,0.07961521,-0.09660632,1.352654,0.08121756,-0.4246032,1.339849,-0.09890281,0.07843951,1.339311,0.0001856879,-0.4149055,1.301938,-0.1421219,-0.1823445,1.338577,0.3197021,-0.17647,1.354702,NA,NA,NotTracked,NotTracked,
0.8999023,-0.3945313,0.06054688,0.9677734,0.8999023,-0.2915039,-2,0,-3,0,0,0,-2,-1,-1,-2,0,0,-3,-1,0,-1,6.25,6.25,6.25,-41.5625,-41.5625,-41.5625,2.610451,3.150553,7.443145,7.606622,3.107468,9.155137,-0.1189554,-0.4642357,1.255181,0.2697715,-0.4337628,1.256161,0.09617357,0.3819432,1.356956,-0.1597317,-0.4664525,1.242942,0.3076613,-0.4414934,1.247,0.07964111,-0.09662718,1.352685,0.08130506,-0.4245802,1.33988,-0.09900241,0.07840627,1.339674,0.0002709834,-0.4149305,1.302039,-0.1418713,-0.1830606,1.339559,0.3173856,-0.176021,1.354543,NA,NA,NotTracked,NotTracked,
0.8974609,-0.3984375,0.0546875,0.9785156,0.3100586,-0.02001953,-1,-2,1,0,-3,1,0,-1,-3,-1,0,-1,0,-2,-3,-1,5.625,5.625,5.625,-118,-118,-118,2.609749,3.150218,7.447775,7.470726,3.107244,9.087551,-0.1187189,-0.4643461,1.256344,0.263438,-0.4571852,1.255551,0.09581368,0.3816304,1.35629,-0.1697718,-0.4727318,1.258,0.3023627,-0.4581857,1.250627,0.0797045,-0.09671799,1.352773,0.08145906,-0.4245571,1.340087,-0.09924338,0.07820719,1.340574,0.0004354235,-0.4149923,1.302632,-0.1417771,-0.1830327,1.340767,0.3172339,-0.1840529,1.354214,NA,NA,NotTracked,NotTracked,
0.9072266,-0.4082031,0.04541016,0.9023438,0.1386719,0.07080078,-2,-2,0,-1,0,-1,-2,-1,0,0,-1,-2,-1,-1,-2,1,-1.25,-1.25,-1.25,19.875,19.875,19.875,2.602876,3.147347,7.458284,7.431623,3.101505,9.105884,-0.1189066,-0.4637635,1.25772,0.2648776,-0.4613577,1.255086,0.09570582,0.3813189,1.355782,-0.1622246,-0.4664756,1.247553,0.3060413,-0.4615039,1.257882,0.07977655,-0.09679779,1.352862,0.08155771,-0.4245224,1.340296,-0.0993472,0.07813632,1.340898,0.0005367249,-0.41498,1.303024,-0.1417921,-0.1829239,1.341501,0.317137,-0.184759,1.354289,NA,NA,NotTracked,NotTracked,
0.8891602,-0.4135742,0.03271484,0.9248047,0.409668,0.07080078,-1,-1,0,-1,-1,0,1,-1,-2,-3,-3,-1,-2,-1,-1,-2,-5.375,-5.375,-5.375,89.8125,89.8125,89.8125,2.596789,3.14627,7.459878,7.507884,3.117241,9.12087,-0.1183345,-0.4633681,1.258034,0.2666986,-0.4495408,1.255309,0.09561779,0.381156,1.355012,-0.1568348,-0.4571473,1.246741,0.3126875,-0.4539164,1.2609,0.07977612,-0.0968684,1.352919,0.08154818,-0.4245549,1.340407,-0.09946676,0.07812837,1.341326,0.0004944467,-0.4150366,1.303325,-0.1416799,-0.1832936,1.341977,0.316874,-0.1856277,1.354364,NA,NA,NotTracked,NotTracked,
0.887207,-0.4135742,0.04589844,0.9321289,0.4936523,0.06152344,-2,-1,-2,-1,-1,0,-2,-1,-2,0,-3,-1,-1,0,-1,-2,-7.8125,-7.8125,-7.8125,31.4375,31.4375,31.4375,2.594331,3.146026,7.458267,7.540747,3.138078,9.143476,-0.1186424,-0.4638321,1.2587,0.2674699,-0.4476854,1.253494,0.09558026,0.3807662,1.354143,-0.1613997,-0.4762153,1.247444,0.3064897,-0.4625462,1.239875,0.0797906,-0.09696551,1.353119,0.08155438,-0.4245179,1.34068,-0.09945671,0.07812732,1.341665,0.0004803845,-0.4150701,1.303761,-0.1417684,-0.1832514,1.342286,0.3167662,-0.1862613,1.354418,NA,NA,NotTracked,NotTracked,
0.8989258,-0.3974609,0.06640625,0.9291992,0.3564453,0.05224609,-1,-2,-1,0,0,-1,-1,0,0,-2,0,1,0,0,-1,-1,-8.5,-8.5,-8.5,-21.3125,-21.3125,-21.3125,2.591952,3.147626,7.445781,7.503435,3.149641,9.167537,-0.1201247,-0.4639032,1.257586,0.2694908,-0.4452702,1.249583,0.09548968,0.379791,1.352479,-0.1612312,-0.4620992,1.249609,0.3063285,-0.4545846,1.240149,0.07995393,-0.09712167,1.3537,0.08188765,-0.4242894,1.341364,-0.09949981,0.07827867,1.34212,0.0007965643,-0.4150796,1.304541,-0.1418466,-0.1831902,1.342979,0.313678,-0.1865868,1.354097,NA,NA,NotTracked,NotTracked,
0.9033203,-0.3759766,0.07666016,0.9228516,0.3041992,0.03662109,0,-1,-2,-1,-1,-1,-1,0,-1,-3,-1,-4,0,0,-2,-2,-5.875,-5.875,-5.875,-25.3125,-25.3125,-25.3125,2.598,3.147201,7.43314,7.45942,3.157531,9.18315,-0.1199635,-0.4653396,1.258342,0.2681983,-0.4460174,1.247054,0.09548157,0.3794649,1.351764,-0.1635827,-0.4572285,1.261222,0.3083416,-0.4518621,1.233813,0.08011526,-0.09731262,1.354066,0.08222347,-0.4243406,1.341795,-0.09950227,0.07835126,1.342351,0.001117139,-0.4151962,1.304993,-0.1418944,-0.1831333,1.343015,0.3135145,-0.1873973,1.353813,NA,NA,NotTracked,NotTracked,
0.9125977,-0.3793945,0.04882813,0.9130859,0.3173828,0.02099609,-3,0,-1,1,-2,0,-1,0,-2,0,-2,-3,2,-6,-6,-1,-7.25,-7.25,-7.25,-25.75,-25.75,-25.75,2.603162,3.145039,7.417595,7.42137,3.167794,9.194301,-0.1190297,-0.4636506,1.2583,0.2676463,-0.4446874,1.244047,0.09548844,0.3791454,1.351197,-0.1647909,-0.4730983,1.259,0.3038613,-0.4568253,1.223158,0.08025572,-0.09747079,1.354446,0.0825495,-0.4243547,1.342329,-0.09955841,0.07839399,1.342553,0.001441458,-0.4151984,1.305538,-0.1419822,-0.1830325,1.343121,0.3134837,-0.1878037,1.353731,NA,NA,NotTracked,NotTracked,
0.9086914,-0.3837891,0.03320313,0.921875,0.347168,0.04541016,0,-1,-1,-1,-1,-2,-1,-1,-2,0,-1,0,-6,-3,-1,0,-6.75,-6.75,-6.75,-16.75,-16.75,-16.75,2.601948,3.144266,7.415021,7.381922,3.178535,9.211364,-0.1184186,-0.4636476,1.25738,0.2661802,-0.4421359,1.24087,0.09546583,0.3785868,1.35014,-0.1611649,-0.4647244,1.249685,0.3046421,-0.4439201,1.2243,0.08031264,-0.0975619,1.354592,0.08264735,-0.4243111,1.342501,-0.09958006,0.07848036,1.342651,0.001518826,-0.4152057,1.305673,-0.1419747,-0.1829665,1.343149,0.3133891,-0.1881177,1.353481,NA,NA,NotTracked,NotTracked,
0.9086914,-0.3916016,0.009277344,0.9165039,0.3549805,0.05175781,-2,0,-1,-1,1,1,-1,0,-1,0,-1,1,0,0,-2,-1,-7.4375,-7.4375,-7.4375,-4.625,-4.625,-4.625,2.592035,3.143098,7.417221,7.344614,3.183861,9.244096,-0.1181446,-0.4654525,1.257398,0.2639382,-0.4428496,1.235744,0.09555782,0.3780622,1.349027,-0.1601243,-0.4779512,1.249182,0.3013231,-0.4538998,1.22465,0.08035056,-0.09790018,1.354931,0.08283618,-0.4245886,1.34293,-0.09956876,0.07847685,1.342685,0.00162857,-0.4152185,1.305927,-0.1419968,-0.1826952,1.343195,0.3133215,-0.1882115,1.353444,NA,NA,NotTracked,NotTracked,
0.9082031,-0.3945313,0.02685547,0.8920898,0.3510742,0.04931641,-2,-2,0,-1,-2,-1,0,-1,-2,-2,0,-1,-1,-2,-1,-2,-3.875,-3.875,-3.875,2.5,2.5,2.5,2.583581,3.141762,7.417961,7.312673,3.181706,9.279888,-0.1179171,-0.4637849,1.257487,0.2588274,-0.4431642,1.235113,0.09563965,0.3777782,1.348604,-0.1613046,-0.4595072,1.253165,0.2898743,-0.4484092,1.210923,0.08036172,-0.09804517,1.355089,0.08282483,-0.424621,1.343025,-0.09956624,0.07847622,1.342698,0.001608305,-0.415237,1.306006,-0.142012,-0.1826297,1.343185,0.3132173,-0.1886122,1.353484,NA,NA,NotTracked,NotTracked,
0.9038086,-0.3842773,0.03173828,0.8764648,0.3955078,0.03173828,1,-2,-3,-2,0,-3,-2,-2,0,-1,0,-1,1,-3,-1,-1,-4,-4,-4,7.5625,7.5625,7.5625,2.580738,3.141262,7.418842,7.301589,3.173948,9.299727,-0.118593,-0.4637317,1.256704,0.2563866,-0.4429571,1.2345,0.09570877,0.3775289,1.348183,-0.1612898,-0.4697782,1.25336,0.2855783,-0.4584793,1.2096,0.08033115,-0.09817245,1.355231,0.08279798,-0.4247034,1.343131,-0.09958861,0.07847223,1.342717,0.001577984,-0.4152437,1.306079,-0.1420131,-0.1826308,1.343182,0.3130706,-0.1886938,1.353508,NA,NA,NotTracked,NotTracked,
0.9057617,-0.3823242,0.05566406,0.8852539,0.4291992,0.02539063,-1,0,0,-1,0,-2,-1,-1,-1,-1,1,-1,-4,0,-1,-1,-2.625,-2.625,-2.625,-1.0625,-1.0625,-1.0625,2.577623,3.142971,7.417469,7.306703,3.163831,9.297783,-0.1183398,-0.4641678,1.256902,0.2550611,-0.4426972,1.236309,0.09589432,0.3772815,1.347735,-0.1619811,-0.4666756,1.253035,0.2934677,-0.4444572,1.227154,0.08032506,-0.09827447,1.355301,0.08278916,-0.4247008,1.343139,-0.09959227,0.07846416,1.342714,0.001561789,-0.4152307,1.306088,-0.1421575,-0.1820123,1.343041,0.3130246,-0.1887212,1.353521,NA,NA,NotTracked,NotTracked,
0.9057617,-0.3823242,0.05566406,0.8911133,0.4462891,0.015625,-2,-2,-1,0,-1,-2,-2,-2,-2,-1,-1,2,2,-1,1,-1,-2.625,-2.625,-2.625,-12.8125,-12.8125,-12.8125,2.577623,3.142971,7.417469,7.314478,3.153936,9.278571,-0.1181922,-0.4639101,1.256183,0.2527642,-0.4459402,1.240368,0.09617387,0.3768777,1.347244,-0.158704,-0.4719928,1.234571,0.2911472,-0.4537184,1.23455,0.08042157,-0.09852412,1.355644,0.08286675,-0.4246994,1.343375,-0.09960978,0.07846911,1.342838,0.001628148,-0.415169,1.306264,-0.1423259,-0.1817116,1.342947,0.3090599,-0.1837564,1.354448,NA,NA,NotTracked,NotTracked,
0.9116211,-0.3725586,0.04003906,0.9165039,0.4248047,0.02294922,0,-1,-1,-1,0,-2,-2,1,-1,-2,-1,-1,-1,-2,-1,-1,2,2,2,-16,-16,-16,2.580034,3.145281,7.417581,7.32249,3.144821,9.251538,-0.1183949,-0.4630658,1.256859,0.252358,-0.4480587,1.240244,0.09629551,0.3767793,1.347086,-0.1583415,-0.4668208,1.243118,0.2913548,-0.450415,1.233417,0.08048637,-0.0985589,1.355835,0.08288341,-0.4246172,1.343496,-0.09960746,0.07846802,1.342891,0.00164087,-0.4150837,1.306348,-0.14238,-0.181458,1.343093,0.3096234,-0.1848563,1.354666,NA,NA,NotTracked,NotTracked,
0.9116211,-0.3813477,0.03076172,0.9194336,0.4023438,0.04736328,-1,0,0,-1,0,-2,-2,-3,1,-1,-1,0,-1,0,-2,-2,2.125,2.125,2.125,-4.8125,-4.8125,-4.8125,2.579361,3.145941,7.423164,7.336572,3.137942,9.22611,-0.118531,-0.4628063,1.255013,0.2531115,-0.4517488,1.240158,0.09643279,0.3765418,1.346741,-0.1564911,-0.4666763,1.24068,0.2905966,-0.4556489,1.232098,0.08045071,-0.09864133,1.355909,0.08282178,-0.4246073,1.343519,-0.09958802,0.0784755,1.342944,0.001563719,-0.4150601,1.306374,-0.1425217,-0.1811861,1.343,0.3095603,-0.1857945,1.354696,NA,NA,NotTracked,NotTracked,
0.9077148,-0.3886719,0.03173828,0.9277344,0.3862305,0.06445313,-2,-2,-1,-1,0,-2,-1,-2,-1,-3,0,-1,0,-1,0,-2,0.75,0.75,0.75,4.875,4.875,4.875,2.576075,3.146581,7.428834,7.355318,3.132305,9.208817,-0.1187186,-0.4635088,1.256594,0.25398,-0.4521299,1.241831,0.09666649,0.3761968,1.346462,-0.1584097,-0.4647858,1.24418,0.2888831,-0.4714018,1.227267,0.08042145,-0.09881604,1.356079,0.08276676,-0.424694,1.343595,-0.09956526,0.07846886,1.342957,0.001505681,-0.4151333,1.306421,-0.1425573,-0.1811675,1.342997,0.3075189,-0.1839598,1.355452,NA,NA,NotTracked,NotTracked,
0.8945313,-0.3974609,0.03417969,0.9213867,0.3701172,0.05712891,-1,-1,-1,0,-1,-3,-1,0,0,-3,-1,-2,-3,-1,-1,-2,0.5,0.5,0.5,7.0625,7.0625,7.0625,2.574651,3.147253,7.430959,7.374944,3.126087,9.195193,-0.1181015,-0.4642415,1.255841,0.2540592,-0.4519932,1.241902,0.09686714,0.3759446,1.346239,-0.1587595,-0.470711,1.244687,0.287098,-0.4728177,1.221539,0.08043606,-0.0988848,1.356201,0.08278593,-0.4246954,1.343646,-0.09950016,0.07850717,1.342978,0.001519763,-0.4151261,1.306433,-0.1425955,-0.1812351,1.342993,0.3083201,-0.1859859,1.355532,NA,NA,NotTracked,NotTracked,
0.9013672,-0.3823242,0.04980469,0.9238281,0.3623047,0.04785156,-2,-1,1,-2,-2,-2,-1,-1,-1,-2,-2,-2,0,-2,0,0,0.5,0.5,0.5,6,6,6,2.572412,3.148381,7.435303,7.392365,3.120804,9.18299,-0.1197521,-0.4634176,1.256187,0.255394,-0.4510866,1.244138,0.09720147,0.3755393,1.345969,-0.1627749,-0.4587991,1.248667,0.2895421,-0.4690044,1.222919,0.08043442,-0.09909493,1.35642,0.08276813,-0.4247015,1.343675,-0.09942004,0.07857242,1.343162,0.001496169,-0.4151389,1.306445,-0.1426542,-0.1816374,1.343029,0.307194,-0.1842297,1.355939,NA,NA,NotTracked,NotTracked,
0.9086914,-0.3808594,0.04882813,0.9277344,0.3588867,0.05273438,-1,-1,-2,-1,0,-2,-1,-2,-2,-1,-1,-1,-1,-1,-1,0,1,1,1,3.5625,3.5625,3.5625,2.571791,3.148842,7.43859,7.404495,3.114712,9.174875,-0.1194888,-0.4636183,1.255918,0.2582058,-0.4518493,1.244878,0.09729734,0.3753668,1.345782,-0.1666099,-0.4633981,1.2305,0.2909115,-0.4737758,1.2236,0.08042519,-0.09913325,1.356492,0.08274134,-0.4246785,1.343709,-0.09934439,0.07871307,1.343312,0.001484092,-0.4151243,1.30645,-0.1427092,-0.1816547,1.343024,0.3061607,-0.1833111,1.35594,NA,NA,NotTracked,NotTracked,
0.9101563,-0.3833008,0.05175781,0.9301758,0.3535156,0.04394531,-1,0,-3,1,-3,-1,1,0,-1,-1,-2,-1,-1,-2,0,-1,1.875,1.875,1.875,0.625,0.625,0.625,2.572956,3.14945,7.439108,7.407549,3.110659,9.170926,-0.1200645,-0.462095,1.256642,0.2585228,-0.4516396,1.245729,0.09740548,0.3749908,1.345449,-0.1622611,-0.462034,1.246628,0.2909385,-0.4666333,1.224775,0.0804112,-0.09918372,1.356574,0.08255176,-0.4246571,1.343733,-0.09935264,0.078701,1.343404,0.001297788,-0.415092,1.306454,-0.1427172,-0.1817333,1.343018,0.3076032,-0.1858902,1.35568,NA,NA,NotTracked,NotTracked,
0.9023438,-0.3837891,0.04003906,0.9370117,0.3496094,0.04541016,1,-2,-1,-1,-3,0,-2,-1,-1,-1,0,0,-1,1,-2,0,2.6875,2.6875,2.6875,0.25,0.25,0.25,2.574732,3.151053,7.441122,7.404398,3.106048,9.174646,-0.1196936,-0.4623125,1.256115,0.2590685,-0.4513055,1.246026,0.0974369,0.3747724,1.345208,-0.1667572,-0.4522855,1.255286,0.2909413,-0.4791532,1.2237,0.08040874,-0.09923722,1.35665,0.08251728,-0.4246339,1.343744,-0.09929915,0.07869449,1.343499,0.001262693,-0.4150825,1.306468,-0.142778,-0.1817009,1.343051,0.306337,-0.184591,1.355915,NA,NA,NotTracked,NotTracked,
0.9033203,-0.390625,0.02929688,0.9335938,0.3618164,0.05029297,-1,-1,-1,-1,0,0,-2,1,-2,-1,-1,-1,0,-2,-2,-1,3.125,3.125,3.125,2,2,2,2.573009,3.153266,7.449442,7.396308,3.103677,9.184215,-0.1203614,-0.4626879,1.2572,0.259483,-0.4519264,1.247465,0.09744816,0.3746773,1.345116,-0.1645046,-0.4654081,1.249132,0.2973369,-0.4725327,1.230714,0.08036146,-0.0992777,1.356862,0.08248264,-0.4245574,1.343805,-0.09933385,0.07880364,1.34382,0.001238029,-0.415031,1.306487,-0.1428133,-0.1816936,1.343123,0.306802,-0.185477,1.356045,NA,NA,NotTracked,NotTracked,
0.9038086,-0.3881836,0.04248047,0.9282227,0.3696289,0.03564453,1,-2,-1,-1,0,-1,-1,0,-1,-1,0,0,-2,-3,1,1,2.8125,2.8125,2.8125,1.375,1.375,1.375,2.573628,3.153846,7.450789,7.38163,3.102815,9.202983,-0.1210812,-0.4633451,1.258365,0.2592311,-0.4525574,1.248278,0.0974334,0.3740116,1.34436,-0.1578932,-0.4624387,1.241333,0.2805815,-0.503965,1.228,0.08040253,-0.09957999,1.357252,0.08241504,-0.4245049,1.343934,-0.09942734,0.0790614,1.34469,0.00117849,-0.4149901,1.306612,-0.1431077,-0.1814898,1.343613,0.3054345,-0.1844097,1.356619,NA,NA,NotTracked,NotTracked,
0.8979492,-0.3969727,0.04638672,0.925293,0.3676758,0.02978516,0,-1,0,-3,1,-4,1,-2,-1,-1,-1,-2,-1,0,0,-2,1,1,1,1.5625,1.5625,1.5625,2.574663,3.155604,7.453967,7.377648,3.102845,9.207955,-0.1209302,-0.4626742,1.257578,0.2591513,-0.4527199,1.247774,0.09735967,0.3734597,1.343745,-0.1676939,-0.4522561,1.23025,0.295004,-0.4596675,1.23752,0.08039392,-0.09970988,1.357378,0.08235302,-0.4245005,1.343981,-0.09945378,0.07910424,1.344965,0.001106908,-0.4149782,1.306698,-0.1433844,-0.1812419,1.343721,0.3048133,-0.1833664,1.356666,NA,NA,NotTracked,NotTracked,
0.9057617,-0.390625,0.05029297,0.9223633,0.371582,0.02148438,-3,-3,-1,-1,-1,-1,-2,-1,1,-1,-2,1,1,-2,-2,-3,-1.25,-1.25,-1.25,2.9375,2.9375,2.9375,2.576644,3.155688,7.452127,7.376244,3.103154,9.212668,-0.1207712,-0.4635998,1.256785,0.2584616,-0.4513937,1.24685,0.09715491,0.3729507,1.343066,-0.1649114,-0.4680666,1.2495,0.2984818,-0.4617199,1.242235,0.08035567,-0.09981773,1.357469,0.08232949,-0.4244743,1.343999,-0.09949875,0.0791323,1.345203,0.001093238,-0.4149725,1.306713,-0.1434133,-0.1812552,1.343724,0.3041746,-0.1813724,1.356721,NA,NA,NotTracked,NotTracked,
0.9023438,-0.3945313,0.04492188,0.9257813,0.3608398,0.01904297,-1,0,0,-1,-1,-2,-1,-2,0,-1,-2,-3,1,-2,-1,-2,-2.25,-2.25,-2.25,1.375,1.375,1.375,2.577425,3.156123,7.450365,7.380827,3.102518,9.210504,-0.1205709,-0.4627407,1.257872,0.2558104,-0.457746,1.245831,0.09694501,0.3724948,1.34244,-0.1655664,-0.4607891,1.25825,0.2937059,-0.4665363,1.237557,0.08029915,-0.1000923,1.357592,0.08224046,-0.4245181,1.344025,-0.09949027,0.07900246,1.346318,0.0009933183,-0.4150163,1.306747,-0.1434932,-0.1812958,1.343836,0.3038972,-0.1809481,1.356643,NA,NA,NotTracked,NotTracked,
0.9008789,-0.387207,0.04248047,0.9228516,0.362793,0.01464844,-2,-1,0,-2,-2,-2,-3,-2,-2,0,-2,0,0,-1,-2,0,-2.875,-2.875,-2.875,2.1875,2.1875,2.1875,2.580434,3.155465,7.444267,7.385377,3.101302,9.20752,-0.1216419,-0.4633024,1.257968,0.2573555,-0.4521676,1.247855,0.09671253,0.3720784,1.341933,-0.1647401,-0.4601576,1.248249,0.2953866,-0.4557888,1.24,0.08013182,-0.1003077,1.357841,0.08219332,-0.4245245,1.344082,-0.09954023,0.079018,1.346509,0.0009304232,-0.415033,1.306815,-0.1435535,-0.1816121,1.344104,0.3051435,-0.1838686,1.356936,NA,NA,NotTracked,NotTracked,
0.9008789,-0.387207,0.04248047,0.9228516,0.362793,0.01464844,-2,-1,0,-2,-2,-2,-3,-2,-2,0,-2,0,0,-1,-2,0,-2.875,-2.875,-2.875,2.1875,2.1875,2.1875,2.580434,3.155465,7.444267,7.385377,3.101302,9.20752,-0.1216179,-0.4631148,1.258912,0.2572103,-0.4525141,1.249058,0.09639905,0.3716908,1.341569,-0.1647239,-0.4620138,1.248378,0.294838,-0.4639885,1.239184,0.08007786,-0.1005073,1.358204,0.08218388,-0.4244879,1.344416,-0.09968539,0.07910836,1.346835,0.0009251154,-0.4149992,1.307158,-0.143671,-0.1816018,1.34455,0.3061655,-0.1857409,1.357114,NA,NA,NotTracked,NotTracked,
0.9008789,-0.387207,0.04248047,0.9213867,0.3574219,0.03222656,-1,0,0,-1,-1,1,0,-1,-1,-3,0,-1,1,-2,-1,0,-2.875,-2.875,-2.875,1.25,1.25,1.25,2.580434,3.155465,7.444267,7.398902,3.097173,9.196578,-0.1209796,-0.4632006,1.25889,0.2580891,-0.4523249,1.249778,0.09606571,0.3712978,1.340948,-0.1645929,-0.4613099,1.248146,0.3029854,-0.4648755,1.2555,0.08000808,-0.1006112,1.358393,0.08212622,-0.4244201,1.344624,-0.09975133,0.07912734,1.347759,0.0008698305,-0.4149434,1.307324,-0.1438362,-0.1815875,1.344699,0.3047564,-0.1836104,1.357514,NA,NA,NotTracked,NotTracked,
0.9052734,-0.3964844,0.04150391,0.9282227,0.3574219,0.02685547,-1,1,-2,-1,1,-1,0,-1,-1,0,-2,-1,0,-1,-1,0,-3.5,-3.5,-3.5,0.25,0.25,0.25,2.582396,3.153133,7.436688,7.407336,3.093808,9.188267,-0.1209454,-0.463913,1.259076,0.2581654,-0.4524617,1.250409,0.09574363,0.3709134,1.340441,-0.1644996,-0.460919,1.249882,0.2975379,-0.4609081,1.24538,0.07988319,-0.1008554,1.358667,0.08207604,-0.4244562,1.344939,-0.1000335,0.07910559,1.347972,0.0008299499,-0.4150307,1.307594,-0.1439344,-0.1816076,1.344908,0.3057526,-0.1857438,1.357788,NA,NA,NotTracked,NotTracked,
0.8994141,-0.3979492,0.04882813,0.9204102,0.3540039,0.03173828,-1,0,0,-1,-1,0,0,-1,0,0,-1,-1,0,-1,-2,0,-2.75,-2.75,-2.75,-0.75,-0.75,-0.75,2.586062,3.151656,7.428671,7.413995,3.091002,9.18007,-0.1211113,-0.4641998,1.259865,0.2580995,-0.4531377,1.251299,0.09532677,0.3704948,1.339827,-0.1644717,-0.4606719,1.250663,0.3044156,-0.4680026,1.259125,0.07973368,-0.1011257,1.358962,0.08196931,-0.4245171,1.345334,-0.1002748,0.07898852,1.348074,0.000694256,-0.415079,1.308093,-0.144034,-0.1815331,1.345102,0.3043969,-0.1839094,1.358232,NA,NA,NotTracked,NotTracked,
0.9072266,-0.3896484,0.04980469,0.9174805,0.3540039,0.02832031,1,-2,-1,0,-2,0,0,0,-2,-1,-2,-1,-3,-1,0,-2,-3.5,-3.5,-3.5,-1.5,-1.5,-1.5,2.58859,3.149659,7.423194,7.418127,3.088788,9.173842,-0.1213428,-0.4622095,1.260359,0.2588607,-0.4525662,1.252398,0.09497195,0.3703248,1.339573,-0.161645,-0.4602146,1.248921,0.3051006,-0.4613662,1.2606,0.07954288,-0.1012248,1.359203,0.08183589,-0.4244767,1.345697,-0.1005545,0.0789698,1.34817,0.00056904,-0.4150374,1.308387,-0.1440829,-0.1815387,1.345252,0.302792,-0.1816779,1.359088,NA,NA,NotTracked,NotTracked,
0.9038086,-0.3896484,0.06103516,0.9267578,0.3583984,0.03173828,0,-1,1,-1,-2,-2,0,-1,-1,0,-2,0,-1,-1,1,-2,-3.1875,-3.1875,-3.1875,-0.75,-0.75,-0.75,2.59043,3.148602,7.419951,7.421715,3.086696,9.168107,-0.1207287,-0.4630425,1.261002,0.2589196,-0.4529542,1.254309,0.09408002,0.3698096,1.33915,-0.1617835,-0.4613834,1.24776,0.2999138,-0.4607609,1.250959,0.07903506,-0.1015545,1.359969,0.08146942,-0.4245349,1.346805,-0.1013068,0.07888529,1.348466,0.0002227669,-0.4150447,1.309407,-0.1443462,-0.1813014,1.345689,0.3016843,-0.1800601,1.359622,NA,NA,NotTracked,NotTracked,
0.9047852,-0.387207,0.05175781,0.9248047,0.375,0.02099609,-2,2,0,-1,-2,0,1,-1,-1,-2,-1,1,-2,-1,0,-1,-3.625,-3.625,-3.625,-0.875,-0.875,-0.875,2.596749,3.146522,7.408441,7.42719,3.085623,9.161254,-0.1215876,-0.4620164,1.261653,0.2600395,-0.4486468,1.256297,0.0937727,0.3695579,1.33892,-0.1622537,-0.4613739,1.248289,0.3064365,-0.4522978,1.263667,0.07862005,-0.1016634,1.360301,0.08095711,-0.424565,1.347282,-0.1015579,0.07889754,1.348527,-0.0002639133,-0.4149266,1.309828,-0.1444428,-0.1813067,1.345895,0.3006597,-0.1792582,1.359985,NA,NA,NotTracked,NotTracked,
0.90625,-0.3911133,0.05029297,0.925293,0.3720703,0.02490234,-3,-3,1,-3,-2,-1,0,0,-1,0,-1,0,0,0,-2,1,-4.5,-4.5,-4.5,-3.25,-3.25,-3.25,2.600789,3.145227,7.399912,7.431564,3.085344,9.153238,-0.1206584,-0.4624422,1.261546,0.259585,-0.4563006,1.255088,0.09339543,0.3694086,1.338761,-0.1656986,-0.4624316,1.255313,0.2940825,-0.4591725,1.246,0.07848354,-0.1017132,1.360455,0.0808811,-0.4245141,1.347554,-0.1015621,0.07889436,1.349046,-0.0003398618,-0.4149075,1.31006,-0.1445509,-0.1811417,1.346023,0.300463,-0.178619,1.360469,NA,NA,NotTracked,NotTracked,
0.9086914,-0.3964844,0.04150391,0.9282227,0.3583984,0.03027344,0,1,-2,-1,-1,-2,-1,-1,-2,-2,0,-2,1,-2,-2,0,-5.125,-5.125,-5.125,0.3125,0.3125,0.3125,2.600891,3.145174,7.397145,7.433711,3.084511,9.150098,-0.1206052,-0.462404,1.262501,0.2568708,-0.4641484,1.255319,0.09314018,0.3694015,1.338819,-0.1627602,-0.455256,1.255356,0.299726,-0.4651378,1.254283,0.07825166,-0.1016942,1.361033,0.08073553,-0.4242931,1.348384,-0.1018579,0.07886742,1.349144,-0.0004562486,-0.4146953,1.310714,-0.1448472,-0.1808929,1.346407,0.3002321,-0.1780885,1.361005,NA,NA,NotTracked,NotTracked,
0.909668,-0.3876953,0.03515625,0.9204102,0.3500977,0.02539063,0,1,-2,-1,-1,-2,-1,-1,-1,-3,0,-1,-1,-1,0,0,-3.9375,-3.9375,-3.9375,2.5625,2.5625,2.5625,2.60022,3.144488,7.392908,7.437248,3.083428,9.147987,-0.1217857,-0.4620049,1.262195,0.2566017,-0.4643401,1.255075,0.09285334,0.3693751,1.338877,-0.1667922,-0.4535276,1.254727,0.2991216,-0.4693612,1.25298,0.07799598,-0.1016739,1.3614,0.08075302,-0.4242648,1.348894,-0.1021688,0.07886254,1.349159,-0.0004320607,-0.4146841,1.311201,-0.1450102,-0.1806387,1.346605,0.2999814,-0.1776675,1.361301,NA,NA,NotTracked,NotTracked,
0.909668,-0.3876953,0.03515625,0.925293,0.347168,0.03369141,0,1,-2,-1,-1,-2,-1,-1,-2,-1,-1,-1,0,-3,0,-2,-3.9375,-3.9375,-3.9375,3.4375,3.4375,3.4375,2.60022,3.144488,7.392908,7.440655,3.081386,9.147645,-0.121078,-0.4611,1.263632,0.2570096,-0.4642365,1.257108,0.09233128,0.3693612,1.339067,-0.1626787,-0.4605988,1.25165,0.2998857,-0.4658331,1.255093,0.07768892,-0.1016747,1.362189,0.08090197,-0.4241581,1.350152,-0.1027309,0.07880815,1.349121,-0.0003093982,-0.4146882,1.312593,-0.145462,-0.1801646,1.347152,0.2993378,-0.1773529,1.362101,NA,NA,NotTracked,NotTracked,
0.909668,-0.3876953,0.03515625,0.9248047,0.3544922,0.02929688,0,1,-2,-1,-1,-2,-1,-1,0,0,-2,-1,-1,0,0,-2,-3.9375,-3.9375,-3.9375,2.3125,2.3125,2.3125,2.60022,3.144488,7.392908,7.445205,3.080108,9.14533,-0.1211551,-0.4618216,1.264168,0.2565831,-0.4646588,1.258701,0.09195108,0.3693624,1.33941,-0.1628731,-0.4582515,1.252342,0.2985171,-0.4654508,1.253001,0.07750397,-0.1016232,1.362695,0.08102559,-0.4240498,1.351027,-0.103041,0.07889996,1.349217,-0.0002170959,-0.4146317,1.313495,-0.1456507,-0.1800636,1.347458,0.2989466,-0.1768357,1.362902,NA,NA,NotTracked,NotTracked,
0.909668,-0.3876953,0.03515625,0.9272461,0.347168,0.02734375,0,1,-2,-1,-1,-2,-1,-1,-1,-1,-2,0,-2,0,0,0,-3.9375,-3.9375,-3.9375,0.6875,0.6875,0.6875,2.60022,3.144488,7.392908,7.445371,3.078082,9.146137,-0.1212155,-0.4612163,1.264375,0.2569886,-0.4640854,1.257978,0.0917968,0.3694061,1.339545,-0.1660693,-0.4649148,1.262125,0.2994863,-0.4635904,1.253727,0.07719298,-0.1013964,1.363181,0.08106056,-0.4238934,1.351707,-0.1033075,0.07902426,1.3493,-0.0001943292,-0.4145499,1.314106,-0.145954,-0.1798039,1.347786,0.2986036,-0.1766826,1.363175,NA,NA,NotTracked,NotTracked,
0.909668,-0.3876953,0.03515625,0.9404297,0.3374023,0.02148438,0,1,-2,-1,-1,-2,-1,-1,-1,-1,-1,-1,-1,1,-1,-2,-3.9375,-3.9375,-3.9375,1,1,1,2.60022,3.144488,7.392908,7.443348,3.075953,9.148992,-0.1215386,-0.4617435,1.265133,0.2562431,-0.4644618,1.258592,0.09166669,0.3694203,1.339627,-0.1623988,-0.4586954,1.254498,0.2987098,-0.466199,1.254325,0.07696431,-0.1013629,1.363538,0.0808814,-0.4238877,1.352241,-0.1034123,0.07905638,1.349255,-0.0003918241,-0.4145452,1.314606,-0.1461233,-0.1797028,1.34801,0.2984388,-0.1765764,1.363364,NA,NA,NotTracked,NotTracked,
0.909668,-0.3876953,0.03515625,0.9277344,0.3510742,0.01660156,0,1,-2,-1,-1,-2,-1,-1,0,-1,0,-1,-2,-2,0,-1,-3.9375,-3.9375,-3.9375,0.9375,0.9375,0.9375,2.60022,3.144488,7.392908,7.440269,3.075375,9.153234,-0.121586,-0.4602437,1.268078,0.2558486,-0.4646572,1.26036,0.0915291,0.3693805,1.339829,-0.1631126,-0.4607859,1.253814,0.2944544,-0.4663865,1.250228,0.07681911,-0.1012738,1.364277,0.08077771,-0.4236932,1.35338,-0.1037204,0.07925726,1.349344,-0.0004899778,-0.4144333,1.315674,-0.1465756,-0.1796168,1.348565,0.2977974,-0.1761261,1.363973,NA,NA,NotTracked,NotTracked,
0.909668,-0.3876953,0.03515625,0.9223633,0.3500977,0.01220703,0,1,-2,-1,-1,-2,-1,-1,-1,-1,-1,-2,1,-1,-1,-2,-3.9375,-3.9375,-3.9375,-0.25,-0.25,-0.25,2.60022,3.144488,7.392908,7.436882,3.074935,9.15731,-0.1224356,-0.4604985,1.270293,0.2563055,-0.4642999,1.262262,0.09126387,0.3694909,1.34029,-0.1621089,-0.459524,1.256363,0.3017816,-0.4605601,1.267167,0.07622954,-0.1009871,1.365689,0.08010956,-0.4233127,1.355572,-0.1041381,0.07965104,1.349669,-0.001147651,-0.4140151,1.317833,-0.1474866,-0.1789635,1.349639,0.2962176,-0.1757259,1.365226,NA,NA,NotTracked,NotTracked,
0.909668,-0.3876953,0.03515625,0.9189453,0.3505859,0.008789063,0,1,-2,-1,-1,-2,-1,-1,-2,0,-1,0,-1,-2,-1,-2,-3.9375,-3.9375,-3.9375,0,0,0,2.60022,3.144488,7.392908,7.436872,3.075234,9.156828,-0.1234979,-0.4594716,1.270097,0.2563495,-0.4640978,1.262497,0.09112182,0.3695965,1.340672,-0.1682685,-0.4597202,1.266643,0.2982412,-0.4606513,1.261857,0.07559627,-0.100829,1.366526,0.07978254,-0.4232077,1.356383,-0.1044284,0.07973518,1.349798,-0.001436871,-0.4139333,1.318622,-0.1478813,-0.1789248,1.350068,0.2958167,-0.1754495,1.365611,NA,NA,NotTracked,NotTracked,
0.909668,-0.3876953,0.03515625,0.9204102,0.3608398,0.01220703,0,1,-2,-1,-1,-2,-1,-1,-2,-1,-1,0,-2,-1,-2,-1,-3.9375,-3.9375,-3.9375,-1.8125,-1.8125,-1.8125,2.60022,3.144488,7.392908,7.43772,3.075285,9.155103,-0.1227444,-0.4598912,1.272366,0.2552941,-0.4520284,1.267372,0.09089054,0.3697123,1.341272,-0.1661497,-0.4531952,1.265231,0.3024428,-0.4468367,1.274281,0.07529836,-0.1006687,1.367675,0.07942883,-0.4231598,1.357803,-0.1047816,0.08007161,1.350174,-0.001765366,-0.4139157,1.319865,-0.1486212,-0.1787921,1.351102,0.2948012,-0.1752404,1.366636,NA,NA,NotTracked,NotTracked,
0.909668,-0.3876953,0.03515625,0.9233398,0.3632813,0.009765625,0,1,-2,-1,-1,-2,-1,-1,0,-2,-1,0,-3,-2,0,-1,-3.9375,-3.9375,-3.9375,-5.1875,-5.1875,-5.1875,2.60022,3.144488,7.392908,7.439148,3.076158,9.148104,-0.1234604,-0.4602745,1.269587,0.2543685,-0.4513819,1.265659,0.0907893,0.3697302,1.341442,-0.1693044,-0.4629109,1.255406,0.3004187,-0.4548372,1.266614,0.07498585,-0.1005594,1.368087,0.079216,-0.4230748,1.358408,-0.1050627,0.08020169,1.350261,-0.001954302,-0.4138342,1.320304,-0.1488333,-0.178927,1.351304,0.2942567,-0.175405,1.367127,NA,NA,NotTracked,NotTracked,
0.909668,-0.3876953,0.03515625,0.925293,0.3618164,0.02441406,0,1,-2,-1,-1,-2,-1,-1,-1,-2,-1,-1,-1,-1,-2,-1,-3.9375,-3.9375,-3.9375,-4,-4,-4,2.60022,3.144488,7.392908,7.439517,3.07636,9.143118,-0.1242118,-0.4620736,1.271046,0.2548898,-0.4501419,1.268332,0.09071782,0.3696845,1.341775,-0.1676363,-0.4634661,1.263543,0.3033381,-0.4487775,1.279048,0.07417478,-0.1004652,1.368943,0.07823958,-0.4229945,1.359353,-0.1055533,0.0804098,1.350725,-0.002794713,-0.4134837,1.320992,-0.1496101,-0.1775721,1.35231,0.2925263,-0.1744929,1.368297,NA,NA,NotTracked,NotTracked,
0.909668,-0.3876953,0.03515625,0.9223633,0.3574219,0.02441406,0,1,-2,-1,-1,-2,-1,-1,-1,0,0,-1,-1,0,0,-2,-3.9375,-3.9375,-3.9375,-2.625,-2.625,-2.625,2.60022,3.144488,7.392908,7.439895,3.076923,9.139223,-0.1249557,-0.4621427,1.272685,0.2555507,-0.4489999,1.270972,0.09065861,0.3696521,1.34284,-0.1671088,-0.4588859,1.261367,0.3035221,-0.4598193,1.279143,0.07298939,-0.1002998,1.370693,0.0764998,-0.4229632,1.361306,-0.1063355,0.08067546,1.3514,-0.004463707,-0.4130501,1.323236,-0.1504088,-0.1769296,1.353816,0.2901101,-0.1744881,1.370395,NA,NA,NotTracked,NotTracked,
