ALX,ALY,ALZ,ARX,ARY,ARZ,EMG0L,EMG1L,EMG2L,EMG3L,EMG4L,EMG5L,EMG6L,EMG7L,EMG0R,EMG1R,EMG2R,EMG3R,EMG4R,EMG5R,EMG6R,EMG7R,GLX,GLY,GLZ,GRX,GRY,GRZ,ORL,OPL,OYL,ORR,OPR,OYR,LHNX,LHNY,LHNZ,RHNX,RHNY,RHNZ,HX,HY,HZ,LTX,LTY,LTZ,RTX,RTY,RTZ,SpineMidX,SpineMidY,SpineMidZ,SpineBaseX,SpineBaseY,SpineBaseZ,ShoulderLeftX,ShoulderLeftY,ShoulderLeftZ,ShoulderRightX,ShoulderRightY,ShoulderRightZ,ElbowLeftX,ElbowLeftY,ElbowLeftZ,ElbowRightX,ElbowRightY,ElbowRightZ,Myo_Pose_left,Myo_Pose_Right,Kinect_pose_left,Kinect_pose_right
-0.4101563,0.8510742,0.456543,0.9311523,-0.3115234,0.1733398,12,-1,-16,-3,-4,0,4,-8,0,-2,-1,-2,-2,0,-3,0,-11.9375,-11.9375,-11.9375,-3.1875,-3.1875,-3.1875,6.786573,5.581669,4.877593,3.269224,3.076458,6.209053,-0.1804975,-0.4620081,1.099588,0.264721,0.025151,1.018126,0.02516714,0.3754407,1.24039,-0.1713821,-0.4979291,1.10605,0.3008054,0.0352574,0.9962558,0.02269371,-0.09526533,1.258618,0.02361933,-0.408749,1.254229,-0.1540097,0.08122731,1.253841,-0.0530076,-0.4008658,1.219049,-0.1991823,-0.174043,1.234185,0.3397365,-0.1325758,1.280733,NA,NA,Unknown,Unknown,
-0.6625977,0.71875,0.6430664,0.9272461,-0.2993164,0.1669922,-71,1,0,-4,-5,-9,-13,-28,0,-1,0,1,-1,-2,-2,-1,-6.625,-6.625,-6.625,-1.9375,-1.9375,-1.9375,6.75177,5.591931,4.885694,3.272629,3.077033,6.203475,-0.1781458,-0.4650525,1.097786,0.2639934,0.02487551,1.017516,0.02566966,0.3754013,1.240167,-0.1515734,-0.4753406,1.1,0.2979294,0.03713224,0.9939977,0.02286632,-0.09528851,1.258528,0.02423207,-0.4087777,1.25424,-0.1539218,0.08117618,1.253692,-0.05267181,-0.4008306,1.218786,-0.1989541,-0.1739748,1.233868,0.3405094,-0.1331504,1.281017,NA,NA,Unknown,Closed,
0.1508789,0.940918,0.5869141,0.9243164,-0.3110352,0.1689453,-30,-43,-23,-17,-30,-8,3,-1,-2,-1,0,1,-1,-3,0,0,-11.9375,-11.9375,-11.9375,-1.875,-1.875,-1.875,6.743724,5.56783,4.890672,3.271868,3.07865,6.201945,-0.177666,-0.4624439,1.099143,0.261083,0.02451578,1.017488,0.02623233,0.3753935,1.239901,-0.1849581,-0.4972019,1.0989,0.2945927,0.04202928,0.9931251,0.02301911,-0.09532462,1.258481,0.02461718,-0.4088548,1.254257,-0.1538296,0.08112352,1.253556,-0.05234548,-0.4008852,1.21853,-0.1986856,-0.1738662,1.233574,0.3393357,-0.1364113,1.280969,NA,NA,Unknown,Closed,
-0.6489258,0.8813477,-0.05371094,0.9189453,-0.3056641,0.1572266,-5,-38,-20,-3,-21,-11,-13,-7,-1,-2,-2,-9,-2,-3,-1,-1,0.625,0.625,0.625,1.5,1.5,1.5,6.803216,5.587667,4.933229,3.269388,3.079739,6.205671,-0.1781526,-0.462276,1.098652,0.2605243,0.02427824,1.017641,0.0267822,0.3753302,1.239776,-0.1930681,-0.4837778,1.0872,0.2894206,0.01488304,0.9920285,0.02310944,-0.09536499,1.258485,0.02489435,-0.4089621,1.254373,-0.1537291,0.08106583,1.253464,-0.05218486,-0.4009307,1.218445,-0.1984222,-0.1738049,1.233321,0.3400727,-0.1362407,1.281831,NA,NA,Unknown,Unknown,
0.3935547,0.9570313,0.7167969,0.9194336,-0.3032227,0.1640625,10,33,13,-1,-15,3,1,3,0,0,-1,2,-2,1,1,1,-3.3125,-3.3125,-3.3125,1.5625,1.5625,1.5625,6.810483,5.547981,4.947473,3.267597,3.08007,6.208571,-0.1777944,-0.4619775,1.098075,0.257934,0.02423783,1.015898,0.02728365,0.3753166,1.239567,-0.1703386,-0.5008925,1.104333,0.2924581,0.03885468,0.9930668,0.02317729,-0.09537858,1.258479,0.02503079,-0.4089853,1.254445,-0.1536445,0.08102854,1.25335,-0.05210464,-0.400933,1.218393,-0.1982216,-0.1735577,1.232963,0.3310204,-0.1347247,1.257702,NA,NA,Unknown,Unknown,
-0.559082,0.628418,0.6591797,0.9179688,-0.3007813,0.1679688,-17,15,-7,-6,5,-7,-10,-4,-2,1,-2,6,-1,0,-2,-2,-9.75,-9.75,-9.75,2.625,2.625,2.625,6.793909,5.551638,4.950142,3.263041,3.080154,6.216828,-0.1777629,-0.461875,1.097738,0.2565716,0.02440183,1.014473,0.02775263,0.3752796,1.239333,-0.1984025,-0.4737325,1.077944,0.2902034,0.03437922,0.990677,0.02328734,-0.09543101,1.25845,0.0251781,-0.409052,1.254467,-0.1535403,0.08100817,1.253274,-0.05197712,-0.4009696,1.218275,-0.1981032,-0.1734838,1.232814,0.3309135,-0.1353594,1.255539,NA,NA,Unknown,Unknown,
0.04394531,0.7539063,0.8125,0.9199219,-0.300293,0.1713867,-40,6,-10,2,1,68,-26,-15,-1,-1,-1,3,-2,-2,-1,2,-11.0625,-11.0625,-11.0625,4.3125,4.3125,4.3125,6.789979,5.530023,4.958532,3.257588,3.078382,6.227665,-0.1781398,-0.4620954,1.097967,0.2550974,0.02347999,1.013626,0.02807668,0.3753137,1.239241,-0.1963071,-0.4775785,1.077197,0.2872674,0.02688021,0.9882374,0.02340385,-0.09546787,1.258456,0.02546968,-0.4091723,1.254566,-0.1534679,0.08098286,1.253211,-0.05190082,-0.4009906,1.218245,-0.1978603,-0.1732856,1.232629,0.3307878,-0.1362041,1.253426,NA,NA,Unknown,Unknown,
-0.6157227,0.5195313,0.3901367,0.9282227,-0.2973633,0.1635742,10,-4,3,-4,-8,-19,11,1,-1,0,1,-4,-1,-1,-2,-2,3.3125,3.3125,3.3125,5.6875,5.6875,5.6875,6.796494,5.5199,4.955527,3.250883,3.07592,6.241402,-0.1784562,-0.4632987,1.099319,0.2529713,0.02100119,1.012653,0.02834389,0.3753341,1.239127,-0.1942822,-0.4592878,1.065629,0.2845542,0.03619675,0.9867895,0.02346656,-0.09549005,1.258468,0.02564816,-0.4092326,1.254706,-0.1534011,0.08097088,1.253197,-0.05179939,-0.4010157,1.218259,-0.1977223,-0.1729556,1.232708,0.32919,-0.1382163,1.256214,NA,NA,Unknown,Unknown,
0.3935547,0.8295898,0.8481445,0.9257813,-0.2983398,0.1660156,5,1,-2,4,0,-9,12,6,0,-2,0,-5,-1,-3,-1,0,9.375,9.375,9.375,4.9375,4.9375,4.9375,6.782508,5.465455,4.941107,3.247682,3.074137,6.247914,-0.1791385,-0.4643505,1.101068,0.2498917,0.0165991,1.010417,0.02858092,0.3753932,1.239128,-0.1643438,-0.4449374,1.06275,0.2841336,0.01666423,0.9867274,0.02351794,-0.09550693,1.258497,0.02575827,-0.409292,1.254864,-0.1533558,0.08095691,1.253216,-0.05172477,-0.4010501,1.218343,-0.1975927,-0.1729299,1.232813,0.3273956,-0.1398781,1.260381,NA,NA,Unknown,Unknown,
-0.7583008,0.5390625,-0.3232422,0.9165039,-0.3012695,0.1777344,0,-1,-3,-4,-6,1,-2,-2,-2,-1,-1,-2,-2,-1,-2,0,-2.875,-2.875,-2.875,6.25,6.25,6.25,6.800574,5.40776,4.932871,3.243027,3.070964,6.260424,-0.1799897,-0.4627148,1.101992,0.2456854,0.007887039,1.0077,0.02872908,0.3753601,1.239076,-0.167332,-0.4415519,1.067437,0.2720552,-0.009122593,0.9845853,0.0236338,-0.09555189,1.258523,0.02594133,-0.4093558,1.255022,-0.1532889,0.08095749,1.253201,-0.05164158,-0.401074,1.218386,-0.1974748,-0.1728619,1.232852,0.3251304,-0.1397228,1.258662,NA,NA,Unknown,Unknown,
-0.1469727,0.6088867,0.4570313,0.9101563,-0.3017578,0.1821289,1,0,-1,2,2,-2,2,2,0,-1,-2,-2,0,0,-2,-1,-14,-14,-14,7.375,7.375,7.375,6.750218,5.238605,4.909497,3.241668,3.069604,6.266798,-0.1804522,-0.4654526,1.105857,0.2318604,-0.0218669,0.9890344,0.02894758,0.3753718,1.239084,-0.2023864,-0.4759613,1.073059,0.2632292,-0.01553945,0.9696875,0.02377707,-0.09558799,1.258587,0.02612565,-0.409424,1.255247,-0.1531864,0.08092822,1.253224,-0.05138953,-0.4011112,1.218614,-0.1973587,-0.1729437,1.23342,0.3050529,-0.1504912,1.268677,NA,NA,Unknown,Unknown,
-0.1606445,0.6591797,0.4282227,0.9145508,-0.3125,0.1865234,2,-3,-4,-6,-9,-3,0,-1,-1,-1,0,-4,-1,0,0,0,-12.25,-12.25,-12.25,7.6875,7.6875,7.6875,6.741644,5.158705,4.901279,3.239009,3.066594,6.279713,-0.1823571,-0.4649778,1.108075,0.2394939,-0.0528531,0.9993384,0.02896998,0.3753757,1.239097,-0.1959816,-0.4685647,1.071468,0.2642033,-0.0564242,0.9689259,0.02384343,-0.09561379,1.258618,0.02621614,-0.4094668,1.255364,-0.1531587,0.08087432,1.253288,-0.05123733,-0.401201,1.218853,-0.1971699,-0.1729625,1.233953,0.3294321,-0.1519923,1.300287,NA,NA,Lasso,Unknown,
-0.03613281,0.5942383,0.4589844,0.9223633,-0.3071289,0.190918,11,0,-2,0,0,-3,1,1,-2,0,-1,-3,-1,-3,1,-2,6.1875,6.1875,6.1875,9.0625,9.0625,9.0625,6.742558,4.980723,4.882654,3.238955,3.061059,6.296392,-0.1832126,-0.4652166,1.108801,0.2396176,-0.0868587,0.9959251,0.02898123,0.3754082,1.239128,-0.1978393,-0.4661607,1.072867,0.267312,-0.08405314,0.9675335,0.02403276,-0.09558783,1.258693,0.02659695,-0.4093623,1.255705,-0.1531045,0.080851,1.253348,-0.05086794,-0.4010912,1.219353,-0.1971457,-0.1730193,1.234205,0.2309729,-0.1893426,1.251918,NA,NA,Lasso,Unknown,
-0.01269531,0.5458984,0.3959961,0.9121094,-0.309082,0.1845703,5,-1,-3,-2,-2,-1,0,1,0,-1,-1,-2,0,-2,-4,0,13.375,13.375,13.375,6.125,6.125,6.125,6.755033,4.756581,4.865422,3.240668,3.058261,6.303766,-0.1836424,-0.4662545,1.111638,0.2355299,-0.1195953,0.9905846,0.02891266,0.3754554,1.239319,-0.1981545,-0.4544597,1.077345,0.2625469,-0.1249927,0.9675173,0.0240902,-0.09558029,1.258767,0.02670765,-0.4093433,1.255883,-0.1530516,0.08081382,1.253408,-0.05071579,-0.4010751,1.21972,-0.1971707,-0.1731407,1.235238,0.2811047,-0.1032059,1.265759,NA,NA,Lasso,Unknown,
0.1767578,0.5205078,0.3657227,0.9003906,-0.3110352,0.1865234,-32,-4,3,0,0,-1,-1,-4,0,-1,-1,2,2,11,4,-1,36.25,36.25,36.25,5.5,5.5,5.5,6.789906,4.479256,4.843291,3.244434,3.05762,6.30706,-0.1847656,-0.4662473,1.111843,0.2346372,-0.1564001,0.994152,0.0287906,0.3754659,1.239502,-0.1959053,-0.4655314,1.073639,0.2453774,-0.1312783,0.9679353,0.02413061,-0.09557375,1.258809,0.02674691,-0.4093045,1.256045,-0.1530255,0.08073555,1.253499,-0.05061007,-0.4010184,1.22012,-0.1971011,-0.173368,1.23564,0.2771701,-0.1199299,1.301176,NA,NA,Lasso,Unknown,
0.3735352,0.6503906,0.4213867,0.9121094,-0.3105469,0.2089844,-5,-9,-5,-4,-2,-2,-1,-4,-1,0,-3,1,1,7,0,-2,63.75,63.75,63.75,2.6875,2.6875,2.6875,6.830293,4.336762,4.826828,3.251617,3.05747,6.305137,-0.1846173,-0.4665635,1.113794,0.2377337,-0.2069556,0.9958749,0.0286273,0.3755515,1.239685,-0.1965042,-0.4720056,1.075483,0.2427217,-0.1844189,0.9638149,0.02404458,-0.09504609,1.259987,0.02695876,-0.4092605,1.25635,-0.1529784,0.08071075,1.25361,-0.05022442,-0.4010286,1.220729,-0.1970217,-0.1735781,1.236328,0.3059932,-0.1259952,1.259219,NA,NA,Unknown,Unknown,
0.5644531,0.8139648,0.3227539,0.9306641,-0.3203125,0.2172852,7,-5,-3,-1,-8,-1,0,-2,-1,-1,-1,2,-1,-7,-4,-1,93.375,93.375,93.375,2,2,2,6.954504,4.064522,4.773081,3.254611,3.057276,6.30383,-0.183827,-0.4678977,1.11458,0.240086,-0.2574603,1.00681,0.02828526,0.3756756,1.24008,-0.1938746,-0.4826171,1.074733,0.2617695,-0.2630887,0.9745625,0.02406134,-0.09505735,1.259974,0.02696065,-0.4092636,1.25635,-0.1529624,0.08066304,1.253677,-0.05019624,-0.401052,1.220776,-0.1970144,-0.1738358,1.236719,0.3076938,-0.1295823,1.253245,NA,NA,Unknown,Unknown,
1.023438,0.9555664,0.1606445,0.9633789,-0.3286133,0.1977539,17,3,-1,-1,3,-2,-2,3,0,-1,-1,2,1,7,2,1,82.625,82.625,82.625,6.1875,6.1875,6.1875,7.120155,3.798398,4.671698,3.261215,3.057953,6.303431,-0.1845371,-0.4680245,1.114939,0.2422924,-0.3086597,1.022697,0.02789159,0.3757313,1.240371,-0.2090133,-0.4779008,1.093529,0.2462036,-0.2907209,0.9851001,0.02382538,-0.09486016,1.260233,0.02685737,-0.4092676,1.25622,-0.1529479,0.08062385,1.253737,-0.05019623,-0.4010523,1.220776,-0.1969311,-0.1744872,1.237525,0.2919436,-0.1423484,1.263334,NA,NA,Lasso,Unknown,
1.092773,0.9306641,0.137207,0.9545898,-0.3168945,0.1791992,2,-4,0,0,-4,-2,-4,-3,0,-1,-1,-4,-1,-4,-4,-1,44.3125,44.3125,44.3125,2.375,2.375,2.375,7.193024,3.68564,4.604006,3.265407,3.059277,6.303681,-0.183732,-0.4668979,1.114626,0.2477082,-0.34665,1.047371,0.02726288,0.3760436,1.240995,-0.1988655,-0.4808591,1.077576,0.2494988,-0.3382136,1.003892,0.02394824,-0.09483717,1.260142,0.02704465,-0.4091174,1.25612,-0.1529968,0.08057477,1.253927,-0.04985861,-0.4010774,1.22084,-0.1969186,-0.1747107,1.23803,0.288992,-0.1450353,1.265423,NA,NA,Lasso,Unknown,
1.23877,0.7602539,0.05175781,0.9453125,-0.3310547,0.1679688,-15,-4,-1,-1,-2,-2,0,-2,1,0,0,-2,-1,-2,-1,-1,4.9375,4.9375,4.9375,3.9375,3.9375,3.9375,7.342124,3.498998,4.425972,3.269062,3.065769,6.30339,-0.1843871,-0.4665228,1.115744,0.2507411,-0.3862452,1.062315,0.02661566,0.3762052,1.241674,-0.2008559,-0.4711484,1.080686,0.2708309,-0.3817256,1.031655,0.02417924,-0.09486228,1.26005,0.02757627,-0.4090923,1.25598,-0.1529983,0.08049585,1.254154,-0.04893607,-0.4011443,1.220973,-0.1968915,-0.1749724,1.238637,0.2853735,-0.1477037,1.265446,NA,NA,Unknown,Unknown,
1.112793,0.6508789,-0.02050781,0.9179688,-0.3256836,0.175293,-6,1,1,-1,-5,-1,3,0,-2,-2,1,2,-2,-4,-8,-2,6.125,6.125,6.125,7,7,7,7.517384,3.36739,4.225043,3.274451,3.075571,6.3051,-0.1831384,-0.4660971,1.113939,0.2557286,-0.4044836,1.084185,0.0262012,0.3762881,1.242084,-0.1954657,-0.4548231,1.0806,0.2798759,-0.4065508,1.057937,0.02438263,-0.09485603,1.260002,0.02798883,-0.4090225,1.255914,-0.1530468,0.08040933,1.25436,-0.04826108,-0.4013896,1.221171,-0.1968818,-0.1755416,1.239076,0.2814529,-0.1513801,1.265465,NA,NA,Unknown,Unknown,
1.106445,0.5917969,-0.03271484,0.8935547,-0.3144531,0.1708984,-22,-4,-1,-1,-1,-3,-2,-2,0,0,0,1,-2,-5,-1,-1,1.25,1.25,1.25,8.5625,8.5625,8.5625,7.675722,3.28198,4.047034,3.276477,3.080104,6.308012,-0.1828252,-0.4662616,1.112404,0.254201,-0.4300199,1.100342,0.02586197,0.3764999,1.242496,-0.1959479,-0.462944,1.0775,0.2759347,-0.4193229,1.070395,0.02457953,-0.09481267,1.259897,0.02832382,-0.4088391,1.25579,-0.1530229,0.08036641,1.254481,-0.04787112,-0.4014595,1.221279,-0.1967063,-0.1759114,1.239546,0.2783342,-0.1556666,1.265161,NA,NA,Unknown,Unknown,
1.027832,0.512207,-0.03369141,0.8867188,-0.3051758,0.1767578,-5,-3,-1,-2,2,1,0,-1,0,-4,-2,-2,1,-2,1,-2,-7.375,-7.375,-7.375,6.875,6.875,6.875,7.765024,3.226207,3.936115,3.274664,3.086388,6.319507,-0.1830448,-0.4656767,1.112327,0.2574707,-0.4420121,1.114886,0.0256037,0.3765302,1.242809,-0.1959409,-0.454206,1.079362,0.2789301,-0.447723,1.083261,0.02496386,-0.0947945,1.259791,0.02902357,-0.408702,1.255698,-0.1530226,0.08028746,1.254645,-0.04698203,-0.4016703,1.221433,-0.1967408,-0.1760554,1.240017,0.2759211,-0.1595291,1.264675,NA,NA,Unknown,Lasso,
1.027832,0.512207,-0.03369141,0.8867188,-0.3051758,0.1767578,-5,-3,-1,-2,2,1,0,-1,0,-4,-2,-2,1,-2,1,-2,-7.375,-7.375,-7.375,6.875,6.875,6.875,7.765024,3.226207,3.936115,3.274664,3.086388,6.319507,-0.1836371,-0.4657498,1.112341,0.2617511,-0.4393927,1.131213,0.02547644,0.376623,1.243049,-0.1969375,-0.4582283,1.078816,0.2918763,-0.435986,1.120765,0.02539879,-0.09476805,1.259719,0.0299246,-0.4085804,1.255691,-0.1530262,0.08022249,1.254841,-0.04591176,-0.4018946,1.221675,-0.196707,-0.1764111,1.240475,0.2733328,-0.1632829,1.264336,NA,NA,Unknown,Lasso,
0.9257813,0.4897461,-0.03271484,0.9077148,-0.3056641,0.1889648,-9,-5,-3,-2,-2,0,-1,0,-2,-1,0,-5,0,-2,-4,-3,14.75,14.75,14.75,4.625,4.625,4.625,7.817153,3.188813,3.887267,3.265531,3.087461,6.336107,-0.185518,-0.4656089,1.112463,0.2608467,-0.4388284,1.140137,0.02544898,0.3766411,1.243101,-0.1922464,-0.4518617,1.07681,0.2819206,-0.4249672,1.118103,0.02568551,-0.09474972,1.259601,0.03053696,-0.4085359,1.25556,-0.1530291,0.08016506,1.254965,-0.04526685,-0.4020635,1.221754,-0.1966616,-0.1764425,1.240558,0.2717693,-0.1652278,1.264377,NA,NA,Unknown,NotTracked,
0.890625,0.5268555,-0.03564453,0.9208984,-0.2973633,0.1767578,7,-8,-4,-1,1,-2,-2,-2,-2,-1,-1,-7,-1,1,0,-1,19.125,19.125,19.125,4.8125,4.8125,4.8125,7.838069,3.179721,3.87467,3.254039,3.083554,6.354772,-0.1860879,-0.4666786,1.114487,0.2559099,-0.4550083,1.143462,0.02537836,0.3766901,1.243236,-0.196856,-0.4590336,1.07959,0.2828486,-0.4407037,1.127107,0.02598497,-0.09473797,1.259507,0.03115588,-0.4084958,1.255489,-0.1530356,0.0801179,1.255121,-0.04467003,-0.4021458,1.22182,-0.196631,-0.1766165,1.240875,0.2712771,-0.1654673,1.26503,NA,NA,Unknown,NotTracked,
0.8969727,0.4575195,-0.02148438,0.9243164,-0.2900391,0.171875,-18,-7,-3,0,0,-1,1,-1,0,0,-1,-1,0,0,2,0,-20.4375,-20.4375,-20.4375,4.75,4.75,4.75,7.852892,3.164779,3.841756,3.250164,3.079845,6.361949,-0.1869143,-0.4667559,1.11495,0.2538706,-0.4525414,1.14835,0.02538916,0.3766626,1.24322,-0.2007558,-0.4510716,1.081324,0.2857913,-0.4540833,1.137,0.02625689,-0.09475912,1.259356,0.03179153,-0.4084883,1.255289,-0.1530403,0.0800924,1.255212,-0.04407769,-0.4022169,1.2218,-0.1966813,-0.176743,1.241281,0.2703852,-0.1661973,1.265405,NA,NA,Unknown,NotTracked,
0.8994141,0.4101563,-0.05908203,0.9282227,-0.2875977,0.1821289,4,0,-1,-1,0,-1,-2,-2,-1,-2,-1,0,1,1,2,1,-17.1875,-17.1875,-17.1875,-8.4375,-8.4375,-8.4375,7.850209,3.1584,3.818621,3.242176,3.065006,6.36618,-0.1878173,-0.4663961,1.116682,0.2512291,-0.4585694,1.1506,0.02539108,0.3766791,1.243226,-0.1976934,-0.4574237,1.080396,0.2852974,-0.4615325,1.137667,0.0265445,-0.09475943,1.259256,0.03234336,-0.4084705,1.255177,-0.1530342,0.08010974,1.255294,-0.04349365,-0.4022896,1.221782,-0.1967745,-0.1768827,1.241505,0.2695224,-0.1669639,1.26645,NA,NA,Unknown,NotTracked,
0.8994141,0.4101563,-0.05908203,0.9282227,-0.2875977,0.1821289,4,0,-1,-1,0,-1,-2,-2,-3,-2,1,0,-1,0,-3,-2,-17.1875,-17.1875,-17.1875,-8.4375,-8.4375,-8.4375,7.850209,3.1584,3.818621,3.242176,3.065006,6.36618,-0.1878817,-0.4664583,1.118415,0.2505401,-0.4583539,1.151918,0.02543548,0.3766896,1.243163,-0.1986351,-0.4555244,1.082567,0.2836496,-0.458417,1.136399,0.02680755,-0.09479883,1.259106,0.032791,-0.4084913,1.255034,-0.1530186,0.08011264,1.255303,-0.04305834,-0.4023607,1.221721,-0.1967977,-0.1769309,1.241583,0.2686023,-0.1675959,1.267076,NA,NA,Unknown,NotTracked,
0.9443359,0.4257813,-0.07226563,0.9243164,-0.3149414,0.1953125,4,-2,-2,-1,-5,1,-2,1,-1,0,-1,-4,-2,-8,-4,1,-9.1875,-9.1875,-9.1875,-10.125,-10.125,-10.125,7.853642,3.15848,3.80259,3.234306,3.055023,6.36285,-0.1872578,-0.4685203,1.119175,0.2572949,-0.4345849,1.159673,0.0255633,0.3766359,1.24295,-0.2021843,-0.4573991,1.085153,0.2799912,-0.4441657,1.134435,0.027119,-0.09480263,1.259048,0.03370339,-0.4084264,1.255071,-0.1530019,0.08010326,1.255325,-0.04260288,-0.4023109,1.221704,-0.1969321,-0.1768524,1.241886,0.2673755,-0.168574,1.267495,NA,NA,Unknown,NotTracked,
0.9208984,0.3950195,-0.07128906,0.9257813,-0.3085938,0.1860352,-2,-2,-1,-2,-2,-1,-1,-1,-2,-1,0,-5,-2,-2,-3,-2,-7.5,-7.5,-7.5,-4.8125,-4.8125,-4.8125,7.840123,3.15848,3.806266,3.232635,3.047148,6.35854,-0.1874671,-0.4686249,1.120989,0.2498681,-0.4566417,1.152991,0.02565007,0.37664,1.242822,-0.1951146,-0.4523874,1.086264,0.2804375,-0.4644737,1.129429,0.02742338,-0.09486282,1.258957,0.03452152,-0.4086129,1.255039,-0.153004,0.08010172,1.255329,-0.0421382,-0.4023865,1.221606,-0.1969112,-0.1771304,1.242082,0.2667987,-0.1691452,1.268032,NA,NA,Unknown,NotTracked,
0.9169922,0.3935547,-0.05712891,0.9243164,-0.3061523,0.1787109,-8,4,1,2,4,-2,-4,-3,0,0,-1,-6,1,1,0,1,-5.1875,-5.1875,-5.1875,-5.3125,-5.3125,-5.3125,7.824254,3.161701,3.816383,3.232217,3.040273,6.353889,-0.1868405,-0.4681963,1.120815,0.2495764,-0.4561311,1.152093,0.02584644,0.376563,1.242569,-0.2029336,-0.4767508,1.082588,0.2824571,-0.4567817,1.132216,0.02780746,-0.09491938,1.258832,0.03542453,-0.4086972,1.254985,-0.1530051,0.08009914,1.255323,-0.04168684,-0.4024272,1.221424,-0.1969558,-0.1773543,1.242166,0.2659739,-0.1695966,1.267957,NA,NA,Unknown,NotTracked,
0.9101563,0.3798828,-0.05175781,0.9306641,-0.3081055,0.1728516,4,1,-1,-1,-5,-2,0,0,0,-2,-2,1,0,-1,0,0,-9.375,-9.375,-9.375,-3.1875,-3.1875,-3.1875,7.804746,3.16481,3.826419,3.233216,3.037086,6.349051,-0.1876918,-0.4686564,1.121875,0.2488142,-0.4557925,1.151825,0.02589615,0.3765626,1.242537,-0.1990432,-0.463586,1.083771,0.279544,-0.4608753,1.126153,0.0278857,-0.09492573,1.258747,0.03545563,-0.4087039,1.254942,-0.1530045,0.08009906,1.255323,-0.04159175,-0.4024155,1.221412,-0.1969238,-0.1776223,1.242333,0.2654863,-0.1704285,1.26816,NA,NA,Unknown,NotTracked,
0.9047852,0.3686523,-0.04589844,0.9257813,-0.3046875,0.1806641,-19,-9,-2,-1,-1,0,-2,-4,-1,-1,-2,2,-1,9,2,-1,-5.4375,-5.4375,-5.4375,-3.75,-3.75,-3.75,7.786051,3.165955,3.838197,3.235672,3.036043,6.342793,-0.1874613,-0.4683488,1.121428,0.2482123,-0.4590629,1.150074,0.0260222,0.3765067,1.242281,-0.197315,-0.4870188,1.0808,0.243624,-0.4470608,1.113564,0.02821621,-0.09495265,1.258642,0.03622113,-0.4086682,1.255005,-0.1529931,0.08009022,1.255298,-0.04111617,-0.4023944,1.221341,-0.1969986,-0.1774241,1.242397,0.2651444,-0.1705598,1.268102,NA,NA,NotTracked,NotTracked,
0.9047852,0.3686523,-0.04589844,0.9257813,-0.3046875,0.1806641,-19,-9,-2,-1,-1,0,-2,-4,-1,-1,-2,2,-1,9,2,-1,-5.4375,-5.4375,-5.4375,-3.75,-3.75,-3.75,7.786051,3.165955,3.838197,3.235672,3.036043,6.342793,-0.1860997,-0.4696541,1.120946,0.2480319,-0.461496,1.146964,0.02608795,0.3765196,1.242131,-0.199286,-0.4786465,1.082915,0.2422611,-0.4907032,1.107,0.02827935,-0.09496293,1.258555,0.03625548,-0.4086528,1.254923,-0.1529912,0.0800967,1.255276,-0.04100298,-0.402416,1.221252,-0.1970007,-0.1774805,1.242395,0.2644755,-0.1709045,1.267905,NA,NA,NotTracked,NotTracked,
0.9067383,0.3774414,-0.04492188,0.9335938,-0.3041992,0.1757813,-2,4,3,-1,-1,0,-5,-4,1,-2,0,0,0,-1,1,-1,-1.6875,-1.6875,-1.6875,-2.625,-2.625,-2.625,7.775296,3.167721,3.846374,3.237774,3.036973,6.337876,-0.1863091,-0.4698258,1.121741,0.249767,-0.4610875,1.144514,0.02622947,0.3765635,1.24201,-0.2132808,-0.4786808,1.1005,0.268618,-0.456792,1.112372,0.02839651,-0.09493456,1.258516,0.03638054,-0.4085801,1.254934,-0.152978,0.08011134,1.255252,-0.04072459,-0.4024032,1.221286,-0.1971397,-0.1773454,1.242523,0.2633033,-0.1715025,1.267681,NA,NA,NotTracked,NotTracked,
0.9121094,0.3862305,-0.0390625,0.9301758,-0.300293,0.1640625,-7,2,0,-1,1,0,0,-2,-2,1,-1,0,-3,-3,-2,-1,-6.1875,-6.1875,-6.1875,-0.75,-0.75,-0.75,7.761822,3.169547,3.854622,3.239777,3.039696,6.335104,-0.1866301,-0.4690914,1.120639,0.2491647,-0.4600948,1.14218,0.02632586,0.3765806,1.241875,-0.1948316,-0.4733594,1.081185,0.2673487,-0.4608589,1.109568,0.02841251,-0.09493177,1.258486,0.03636653,-0.4085654,1.254921,-0.1529656,0.08012966,1.255205,-0.04071892,-0.4024027,1.221282,-0.1971409,-0.1773769,1.242544,0.2617427,-0.1722502,1.26689,NA,NA,NotTracked,NotTracked,
0.9189453,0.3701172,-0.04101563,0.9296875,-0.2875977,0.1689453,14,3,-2,0,-7,-3,-2,0,0,0,0,1,-3,-3,-3,-1,-4.8125,-4.8125,-4.8125,-0.625,-0.625,-0.625,7.747737,3.169717,3.861976,3.242469,3.043072,6.332108,-0.1862055,-0.4684854,1.11952,0.2487202,-0.4619199,1.140907,0.02646927,0.376584,1.241638,-0.2014848,-0.4737994,1.08556,0.2530381,-0.45513,1.103205,0.02844691,-0.09494156,1.258443,0.03636385,-0.4085671,1.254901,-0.1529634,0.08013997,1.255132,-0.04066745,-0.4023658,1.221211,-0.1971694,-0.177338,1.242538,0.2613697,-0.1722491,1.266562,NA,NA,NotTracked,NotTracked,
0.9199219,0.3818359,-0.04150391,0.9257813,-0.2885742,0.1679688,4,-4,-1,0,0,-3,-1,0,-1,-2,0,1,-1,-3,-3,-1,0.5625,0.5625,0.5625,0,0,0,7.735342,3.170291,3.874207,3.244534,3.046052,6.330053,-0.1858358,-0.4678098,1.119072,0.2514399,-0.4344993,1.151145,0.02664858,0.3765068,1.241412,-0.1929325,-0.4541675,1.0845,0.2705573,-0.3923106,1.13107,0.02846185,-0.09495265,1.258416,0.03635505,-0.40857,1.254892,-0.1529682,0.08014427,1.255128,-0.04065727,-0.4023691,1.221198,-0.1971883,-0.1773142,1.242533,0.2613275,-0.1723428,1.266513,NA,NA,NotTracked,NotTracked,
0.9038086,0.3876953,-0.03662109,0.925293,-0.2832031,0.1660156,6,3,-1,-1,2,0,0,1,-1,-1,-1,10,-1,-3,-2,0,-2.25,-2.25,-2.25,-0.125,-0.125,-0.125,7.720282,3.170622,3.888606,3.246377,3.048773,6.328876,-0.1851813,-0.468183,1.118198,0.248641,-0.4490408,1.143294,0.02677615,0.3765534,1.241274,-0.1924967,-0.4563411,1.082155,0.2794046,-0.450603,1.120824,0.02852931,-0.09496531,1.258355,0.0363821,-0.4085733,1.254868,-0.1529648,0.08015116,1.255092,-0.04056351,-0.4023933,1.221169,-0.1972448,-0.1771619,1.242522,0.2610528,-0.1724669,1.266253,NA,NA,NotTracked,NotTracked,
0.9160156,0.3808594,-0.04199219,0.9248047,-0.2890625,0.1757813,-6,-1,0,0,-1,0,0,-3,-1,1,-2,-11,-3,-4,1,-2,-0.9375,-0.9375,-0.9375,-0.3125,-0.3125,-0.3125,7.70589,3.170506,3.902721,3.245882,3.050154,6.329881,-0.185523,-0.4668412,1.119127,0.2471826,-0.4539682,1.139512,0.02699167,0.3765334,1.241035,-0.1995055,-0.4539684,1.084796,0.2491852,-0.4392129,1.103655,0.02878792,-0.09495822,1.258281,0.03681259,-0.4084967,1.254879,-0.1529417,0.08018421,1.255055,-0.04044278,-0.402383,1.221112,-0.1973304,-0.177119,1.242481,0.2596428,-0.1733724,1.265603,NA,NA,NotTracked,NotTracked,
0.9057617,0.4003906,-0.03271484,0.9248047,-0.2856445,0.175293,10,4,0,0,1,-1,-3,3,-3,-1,-1,6,-1,-4,-2,-1,-0.4375,-0.4375,-0.4375,0.5,0.5,0.5,7.691499,3.171441,3.917644,3.245831,3.050503,6.330958,-0.1857951,-0.4671849,1.117396,0.2463195,-0.4496772,1.139001,0.02713745,0.3765056,1.240883,-0.1966552,-0.4580487,1.083583,0.2765626,-0.4474457,1.116875,0.02884433,-0.0949474,1.258219,0.03684817,-0.4084575,1.254802,-0.1529391,0.08018304,1.255042,-0.04032977,-0.4023783,1.221039,-0.1974087,-0.177192,1.242426,0.2595676,-0.1734048,1.265408,NA,NA,NotTracked,NotTracked,
0.9135742,0.3916016,-0.02880859,0.9277344,-0.284668,0.1630859,5,-2,-2,-2,-1,1,-1,-1,-1,-1,-1,-9,-2,1,2,-1,-4.5,-4.5,-4.5,0,0,0,7.677979,3.171305,3.926888,3.242219,3.049006,6.335419,-0.1863197,-0.4673218,1.11819,0.2467871,-0.4509812,1.137075,0.02723076,0.3764484,1.240849,-0.1942557,-0.4760644,1.078826,0.2850121,-0.4625569,1.129667,0.02889003,-0.09495328,1.258223,0.03695757,-0.4084495,1.254881,-0.1529311,0.08019209,1.255028,-0.04032447,-0.4023741,1.22104,-0.1974429,-0.1771495,1.242508,0.2587003,-0.1737288,1.26486,NA,NA,NotTracked,NotTracked,
0.9067383,0.3950195,-0.04101563,0.9301758,-0.2885742,0.1723633,3,-2,-2,-3,-3,-1,-2,-1,2,0,1,2,-1,3,3,0,-1.8125,-1.8125,-1.8125,0.8125,0.8125,0.8125,7.668285,3.171633,3.933921,3.240036,3.047791,6.339176,-0.1863509,-0.4676387,1.117826,0.2478454,-0.4488378,1.138184,0.02735562,0.3764502,1.240757,-0.1921395,-0.4508268,1.082636,0.2669998,-0.4478737,1.105195,0.02890938,-0.09497581,1.258183,0.03689883,-0.4084702,1.254846,-0.1529309,0.08019007,1.255026,-0.0403245,-0.4023767,1.22104,-0.1974484,-0.1771738,1.242504,0.2583797,-0.1736923,1.264423,NA,NA,NotTracked,NotTracked,
0.9140625,0.4013672,-0.03222656,0.9223633,-0.2973633,0.1704102,9,0,-1,1,2,0,0,1,-2,-2,1,5,2,9,3,-1,0.125,0.125,0.125,1.25,1.25,1.25,7.662772,3.172474,3.940031,3.238647,3.046421,6.342833,-0.1857314,-0.4674632,1.119277,0.2465355,-0.4528074,1.132782,0.02750594,0.3764731,1.240694,-0.1936057,-0.4527912,1.083241,0.2731553,-0.4518182,1.11379,0.02901472,-0.09496178,1.25819,0.03696759,-0.4084111,1.254915,-0.1529081,0.08019803,1.255021,-0.04032468,-0.4023303,1.221053,-0.1974671,-0.1771374,1.242529,0.2578497,-0.1735968,1.263982,NA,NA,NotTracked,NotTracked,
0.9116211,0.4008789,-0.02832031,0.9228516,-0.284668,0.1704102,-1,-5,-3,-1,3,0,-4,1,-1,-1,0,8,0,-1,-1,0,-1.1875,-1.1875,-1.1875,1.4375,1.4375,1.4375,7.653965,3.173529,3.948173,3.238785,3.045002,6.345119,-0.1864142,-0.4675443,1.120193,0.2452822,-0.4548371,1.131223,0.02771706,0.3763972,1.240619,-0.1978197,-0.455565,1.085016,0.243372,-0.5000741,1.155,0.02915109,-0.09502152,1.258145,0.03699805,-0.4084789,1.254897,-0.1528727,0.08020645,1.254999,-0.04013474,-0.4023798,1.221059,-0.1974991,-0.1770653,1.242609,0.257778,-0.1738338,1.26388,NA,NA,NotTracked,NotTracked,
0.8984375,0.4003906,-0.01855469,0.9277344,-0.300293,0.1738281,-1,-1,-1,1,0,-2,0,-2,-2,0,-1,-2,0,2,1,-2,0.9375,0.9375,0.9375,0.75,0.75,0.75,7.648367,3.174823,3.954392,3.238795,3.044367,6.346847,-0.1858677,-0.4681675,1.120131,0.2454792,-0.4517854,1.132249,0.02780419,0.3763942,1.240599,-0.1941518,-0.4541346,1.084925,0.2030048,-0.4707814,1.110375,0.02924621,-0.09501274,1.258162,0.03707496,-0.4084505,1.254932,-0.1528283,0.08022816,1.254976,-0.04011922,-0.4023705,1.221043,-0.197489,-0.1770185,1.242631,0.2577437,-0.173831,1.263838,NA,NA,NotTracked,NotTracked,
0.9140625,0.4008789,-0.02832031,0.9228516,-0.2915039,0.1811523,3,-1,-2,0,1,0,0,3,0,-1,0,2,1,-4,-1,2,0.5,0.5,0.5,1.9375,1.9375,1.9375,7.645415,3.175767,3.957648,3.239883,3.043868,6.348451,-0.1865755,-0.4686058,1.121524,0.2466194,-0.4522447,1.131825,0.02791137,0.3764306,1.240707,-0.2020551,-0.4658343,1.088428,0.2082381,-0.4617287,1.127429,0.02946326,-0.09497299,1.258241,0.03744475,-0.4083591,1.255101,-0.1528006,0.08022994,1.254996,-0.03996451,-0.4023758,1.221109,-0.1975691,-0.1768273,1.24283,0.2574022,-0.173835,1.263645,NA,NA,NotTracked,NotTracked,
0.90625,0.3974609,-0.02392578,0.921875,-0.296875,0.1723633,11,-2,-3,1,0,-1,-4,-2,-1,0,-1,-16,-2,-5,-5,0,1.1875,1.1875,1.1875,0.8125,0.8125,0.8125,7.644077,3.176356,3.959825,3.240408,3.0426,6.350017,-0.186142,-0.46771,1.121401,0.245571,-0.4527707,1.130199,0.02799533,0.3764423,1.240683,-0.1964535,-0.4585457,1.085197,0.2049865,-0.4676482,1.116703,0.02947324,-0.09498075,1.258243,0.03740725,-0.4083766,1.255108,-0.1527642,0.08022752,1.255003,-0.03996057,-0.4023891,1.221127,-0.19753,-0.1768287,1.242954,0.2574099,-0.1738446,1.263621,NA,NA,NotTracked,NotTracked,
0.9047852,0.4018555,-0.01123047,0.9248047,-0.2993164,0.1743164,-14,-5,-3,-2,-1,-1,-1,-1,0,-1,0,-1,0,2,2,-2,0.8125,0.8125,0.8125,1.1875,1.1875,1.1875,7.642416,3.176559,3.961994,3.241788,3.043053,6.350312,-0.1856503,-0.4689108,1.121523,0.2466897,-0.4512829,1.132304,0.0280704,0.3764237,1.240745,-0.1960464,-0.4567,1.086503,0.2169436,-0.4658032,1.1383,0.02949442,-0.0949766,1.258257,0.03739244,-0.4083574,1.255146,-0.1527292,0.0802465,1.255072,-0.03991655,-0.402369,1.221202,-0.1973388,-0.1773958,1.243342,0.257424,-0.1738544,1.263596,NA,NA,NotTracked,NotTracked,
0.9101563,0.3935547,-0.01416016,0.9238281,-0.3017578,0.1850586,6,0,-1,-2,2,-2,1,3,-2,-3,-1,-1,0,-1,-6,2,1.625,1.625,1.625,1.5625,1.5625,1.5625,7.63966,3.176689,3.965902,3.24667,3.044461,6.347677,-0.1851733,-0.4681635,1.120606,0.2471066,-0.4487202,1.131589,0.0282404,0.3764342,1.240755,-0.1976609,-0.4576671,1.086269,0.2094592,-0.458416,1.124609,0.02971858,-0.09505634,1.258224,0.03768916,-0.4085175,1.255098,-0.1527031,0.08023647,1.255089,-0.03965176,-0.4024343,1.221129,-0.1971039,-0.1774981,1.243852,0.257344,-0.1735478,1.263156,NA,NA,NotTracked,NotTracked,
0.9042969,0.40625,-0.01220703,0.9243164,-0.2954102,0.1801758,9,-1,-2,-2,-4,-3,-2,-1,0,-1,0,-1,1,-1,0,0,1.375,1.375,1.375,-0.0625,-0.0625,-0.0625,7.637527,3.177552,3.96975,3.24942,3.0453,6.34603,-0.1851206,-0.4686666,1.120303,0.2472786,-0.4515112,1.128782,0.02828267,0.3764549,1.240782,-0.1972044,-0.4609125,1.085433,0.2091683,-0.4611539,1.122167,0.02972513,-0.09505261,1.258223,0.03767821,-0.4085142,1.255088,-0.1526918,0.08023788,1.255092,-0.03963215,-0.4024368,1.221147,-0.1970537,-0.1774856,1.243866,0.2574211,-0.1735202,1.263133,NA,NA,NotTracked,NotTracked,
0.9121094,0.3930664,-0.01855469,0.9243164,-0.2988281,0.1733398,-20,-1,0,0,0,-3,-3,-4,-1,-2,0,-1,-2,2,0,-1,-2.0625,-2.0625,-2.0625,-0.375,-0.375,-0.375,7.625639,3.178222,3.977764,3.250016,3.045378,6.345423,-0.1833752,-0.4683532,1.120946,0.2470167,-0.4543716,1.126929,0.02837025,0.3764705,1.24084,-0.2008737,-0.4773724,1.083385,0.209304,-0.4629328,1.12515,0.02980841,-0.09504219,1.258224,0.03772885,-0.408507,1.255073,-0.1526454,0.08020722,1.255134,-0.03943276,-0.4024762,1.221178,-0.1969985,-0.1774655,1.243922,0.2571795,-0.1734058,1.262822,NA,NA,NotTracked,NotTracked,
0.9023438,0.4013672,-0.01269531,0.9291992,-0.2905273,0.1782227,5,-2,0,-2,0,-1,0,-1,-1,-1,-1,-7,-3,2,0,0,1.0625,1.0625,1.0625,-0.6875,-0.6875,-0.6875,7.618283,3.179209,3.986297,3.252195,3.045607,6.343364,-0.1835799,-0.4677845,1.120709,0.2472401,-0.4544709,1.126697,0.02841288,0.3764497,1.240849,-0.1925984,-0.4550971,1.087352,0.2156049,-0.4629987,1.130601,0.0299022,-0.09504035,1.258236,0.03780693,-0.4085072,1.255058,-0.1526225,0.08020309,1.255137,-0.03921432,-0.402524,1.221182,-0.1969486,-0.1772841,1.243945,0.2572014,-0.1733189,1.262608,NA,NA,NotTracked,NotTracked,
0.9067383,0.4135742,-0.01318359,0.9282227,-0.2954102,0.1777344,11,1,1,-1,0,-1,-2,-2,-1,-1,-2,3,0,-2,-1,1,-0.5625,-0.5625,-0.5625,-1.4375,-1.4375,-1.4375,7.613187,3.180085,3.990998,3.254162,3.046078,6.340815,-0.1827906,-0.4684586,1.121068,0.2472222,-0.4511893,1.126591,0.02852411,0.3764598,1.241028,-0.1942299,-0.4604301,1.085713,0.2095922,-0.4614406,1.114803,0.03018359,-0.09508378,1.258306,0.03823848,-0.408597,1.255189,-0.152539,0.08017829,1.255172,-0.03890497,-0.4026139,1.221241,-0.1968294,-0.1773218,1.244049,0.2570272,-0.1732629,1.262389,NA,NA,NotTracked,NotTracked,
0.8984375,0.402832,-0.01367188,0.925293,-0.2973633,0.1733398,1,-2,0,-1,2,-1,2,-2,-1,-1,-2,-6,-1,-1,-2,-1,-2.125,-2.125,-2.125,-1.125,-1.125,-1.125,7.596997,3.180791,4.003762,3.255532,3.04647,6.338874,-0.1820254,-0.4690123,1.120463,0.2470282,-0.4505765,1.126298,0.02857417,0.3764684,1.241121,-0.1946408,-0.4584714,1.086712,0.2095253,-0.4597851,1.117855,0.0302038,-0.09507855,1.25832,0.03822523,-0.4085772,1.255209,-0.1524957,0.08018966,1.25519,-0.03887644,-0.4025995,1.221284,-0.1967192,-0.1773093,1.244176,0.2569917,-0.1732674,1.262322,NA,NA,NotTracked,NotTracked,
0.9077148,0.4038086,-0.007324219,0.9296875,-0.2929688,0.1748047,11,3,0,-1,0,1,2,0,-1,-2,-2,-6,-2,1,2,-1,1.3125,1.3125,1.3125,-0.6875,-0.6875,-0.6875,7.589081,3.180858,4.012465,3.257159,3.046981,6.337423,-0.1821182,-0.4681867,1.120099,0.2466671,-0.4512436,1.125298,0.02860807,0.3764502,1.241245,-0.1891776,-0.4526615,1.085622,0.2022108,-0.4715379,1.112833,0.03027922,-0.0951158,1.258344,0.03829729,-0.4086369,1.25524,-0.1524629,0.08017331,1.255223,-0.03868378,-0.402607,1.221391,-0.1964397,-0.1774315,1.244263,0.256823,-0.1733309,1.262215,NA,NA,NotTracked,NotTracked,
0.9091797,0.4116211,-0.009277344,0.9296875,-0.2988281,0.1630859,-4,-3,-3,-2,-1,0,1,1,0,-2,-1,2,1,10,3,-1,1.9375,1.9375,1.9375,-2.25,-2.25,-2.25,7.584756,3.181452,4.018306,3.254044,3.046813,6.338001,-0.180742,-0.4693205,1.120136,0.2474444,-0.4503031,1.126045,0.02871638,0.3764303,1.24138,-0.1912096,-0.4584889,1.085769,0.2087576,-0.4583838,1.117408,0.03057452,-0.09514484,1.258482,0.03883721,-0.4086564,1.255518,-0.1524015,0.08016118,1.255286,-0.03841302,-0.4026468,1.221518,-0.196356,-0.1774755,1.244457,0.2566869,-0.1732751,1.262125,NA,NA,NotTracked,NotTracked,
0.9116211,0.4194336,-0.007324219,0.9321289,-0.2993164,0.1713867,0,1,0,-1,0,0,-2,1,0,-1,1,-4,-2,0,-1,-1,0.625,0.625,0.625,-1.9375,-1.9375,-1.9375,7.572086,3.183609,4.033659,3.252762,3.046426,6.33842,-0.1806781,-0.4689431,1.120867,0.2471765,-0.4491503,1.125188,0.02878366,0.376413,1.241428,-0.1942567,-0.4599229,1.085707,0.2114746,-0.4483532,1.1321,0.03082384,-0.09514318,1.258559,0.03928815,-0.4086284,1.255688,-0.1523664,0.08014892,1.255315,-0.0381586,-0.4026492,1.221626,-0.1960771,-0.1774759,1.244597,0.2565248,-0.1734602,1.261933,NA,NA,NotTracked,NotTracked,
0.8969727,0.4267578,0.001953125,0.9316406,-0.3051758,0.1704102,-9,-1,0,-1,-1,-1,-1,0,-2,-1,1,0,-2,0,-2,0,-1.375,-1.375,-1.375,-2.25,-2.25,-2.25,7.554924,3.186873,4.051179,3.248623,3.046713,6.340874,-0.1801577,-0.4691734,1.119962,0.2452272,-0.4481749,1.12316,0.0289617,0.3763416,1.241559,-0.1920125,-0.4625252,1.084682,0.2071,-0.4556336,1.10025,0.03098052,-0.09515066,1.25865,0.03946027,-0.4086263,1.255847,-0.1521958,0.08015771,1.255371,-0.03808267,-0.4026238,1.221685,-0.1958574,-0.1775922,1.244729,0.2561707,-0.173418,1.261733,NA,NA,NotTracked,NotTracked,
0.8886719,0.4272461,0.002929688,0.9248047,-0.3017578,0.1679688,4,-1,-2,1,-1,-1,-2,-1,-1,0,-1,-2,-1,-3,-2,2,-4.5,-4.5,-4.5,-1.4375,-1.4375,-1.4375,7.54049,3.19016,4.062007,3.242004,3.046842,6.346346,-0.1811642,-0.4677152,1.12091,0.2448321,-0.4493039,1.123454,0.02911673,0.3763678,1.241682,-0.1886045,-0.4739298,1.0833,0.2078525,-0.4556503,1.112957,0.03100398,-0.09515484,1.258679,0.03945941,-0.4086317,1.255859,-0.1521556,0.08015025,1.255419,-0.03801433,-0.4025874,1.221756,-0.19577,-0.1775628,1.244802,0.2561819,-0.1734344,1.261731,NA,NA,NotTracked,NotTracked,
0.8876953,0.4082031,0.003417969,0.925293,-0.2983398,0.1757813,7,0,0,0,-1,-1,-2,0,1,0,-2,-2,-3,-3,-3,0,-2.0625,-2.0625,-2.0625,-2.5,-2.5,-2.5,7.532186,3.191958,4.066679,3.234421,3.047242,6.352226,-0.1813816,-0.4682717,1.121391,0.2448053,-0.4488232,1.12353,0.02935215,0.3763974,1.241909,-0.1911744,-0.4562493,1.087031,0.2077563,-0.455478,1.112328,0.03106685,-0.09517696,1.258755,0.03943902,-0.4086713,1.255955,-0.1521267,0.08015482,1.255461,-0.03793239,-0.4025686,1.221922,-0.1956114,-0.1776256,1.245074,0.2562035,-0.1734169,1.261805,NA,NA,NotTracked,NotTracked,
0.8984375,0.4140625,-0.002441406,0.9223633,-0.3037109,0.1777344,11,1,-2,0,0,-1,-2,0,0,0,-2,-6,-2,-1,-4,0,3.0625,3.0625,3.0625,-3,-3,-3,7.532515,3.192954,4.068886,3.225902,3.047931,6.358944,-0.1815069,-0.4679125,1.120084,0.244738,-0.4485187,1.121681,0.02953863,0.3763705,1.242015,-0.1916429,-0.4529999,1.087,0.2063725,-0.4569538,1.108248,0.0312053,-0.09524443,1.258867,0.03963368,-0.4087994,1.256092,-0.1520732,0.08014604,1.25547,-0.03783871,-0.4025937,1.221982,-0.1955904,-0.1776391,1.245078,0.2562669,-0.1734668,1.261837,NA,NA,NotTracked,NotTracked,
0.9067383,0.4165039,-0.003417969,0.9272461,-0.3051758,0.1748047,-9,-4,-1,-2,-1,0,-1,-1,-1,0,-1,-1,0,2,1,1,0.3125,0.3125,0.3125,-1.9375,-1.9375,-1.9375,7.531748,3.193684,4.070556,3.221061,3.047962,6.363013,-0.1820137,-0.4686075,1.121164,0.2445216,-0.4487041,1.122029,0.02970246,0.3763145,1.242189,-0.1937462,-0.4579097,1.086196,0.2077171,-0.455521,1.112489,0.03134187,-0.0952841,1.259027,0.03988372,-0.4088694,1.256375,-0.1520105,0.08011699,1.255522,-0.03770561,-0.402595,1.22212,-0.1955088,-0.1776372,1.245191,0.2563084,-0.1734301,1.261913,NA,NA,NotTracked,NotTracked,
0.9057617,0.4116211,-0.002929688,0.9335938,-0.2978516,0.1762695,2,-6,-1,-2,-1,-1,-2,-1,-1,0,-1,0,-3,-6,-4,-3,-0.8125,-0.8125,-0.8125,-0.625,-0.625,-0.625,7.530387,3.194117,4.07125,3.218997,3.049167,6.365557,-0.1827881,-0.4676003,1.121187,0.2448797,-0.4495957,1.121559,0.02997544,0.376305,1.242426,-0.1969394,-0.473222,1.08368,0.2070371,-0.4556041,1.0995,0.03146581,-0.09529787,1.259142,0.04002141,-0.4088877,1.256571,-0.1519951,0.08011834,1.255555,-0.03765582,-0.4026269,1.222212,-0.1954346,-0.1775717,1.245241,0.2565419,-0.1735083,1.262035,NA,NA,NotTracked,NotTracked,
0.8984375,0.4111328,-0.0009765625,0.9243164,-0.2919922,0.1767578,-30,-5,2,-3,0,-1,-2,-3,-1,-2,-1,-1,-1,2,-1,-4,1.1875,1.1875,1.1875,-0.5625,-0.5625,-0.5625,7.530266,3.193911,4.072219,3.212702,3.051853,6.372211,-0.1828422,-0.4654112,1.121036,0.244052,-0.450627,1.121125,0.03050483,0.3762932,1.243092,-0.1966193,-0.4541782,1.087256,0.2103912,-0.4505423,1.138,0.03154217,-0.09534714,1.259281,0.04003799,-0.4090133,1.256682,-0.1518687,0.08009546,1.25567,-0.03741108,-0.4026834,1.222382,-0.1952704,-0.1773123,1.24548,0.2566116,-0.1735016,1.262182,NA,NA,NotTracked,NotTracked,
0.9023438,0.4150391,0.01074219,0.9213867,-0.2915039,0.1650391,4,3,1,-2,0,-1,-1,1,0,-2,-2,6,0,-3,-3,-1,1.625,1.625,1.625,-1,-1,-1,7.528123,3.19406,4.075946,3.210649,3.05287,6.374214,-0.1832144,-0.4654042,1.120599,0.2517444,-0.4244433,1.130695,0.03070825,0.3762469,1.243154,-0.1932733,-0.4748868,1.080565,0.2212442,-0.4322638,1.12875,0.03169468,-0.09535006,1.259357,0.04022589,-0.4090073,1.256759,-0.1517737,0.0801031,1.255719,-0.03731848,-0.4026844,1.222402,-0.1951864,-0.1773301,1.245513,0.2568256,-0.1734538,1.262358,NA,NA,NotTracked,NotTracked,
0.9052734,0.4169922,0.004394531,0.9208984,-0.293457,0.1665039,9,-2,-1,-1,-1,0,-3,0,0,-2,0,3,2,0,-3,0,0.625,0.625,0.625,0.25,0.25,0.25,7.527081,3.19401,4.077645,3.209436,3.053234,6.375986,-0.1830018,-0.4645946,1.120695,0.2451148,-0.4492254,1.120211,0.03098651,0.3761949,1.243259,-0.1977466,-0.4506997,1.08724,0.2133883,-0.4553307,1.1265,0.03191148,-0.09530304,1.259475,0.04059993,-0.4088509,1.256949,-0.151718,0.08012934,1.255757,-0.03705895,-0.4026491,1.222506,-0.1950859,-0.1774241,1.245552,0.2567941,-0.1734557,1.262294,NA,NA,NotTracked,NotTracked,
0.902832,0.4165039,0.009765625,0.9248047,-0.2905273,0.1689453,-13,-1,-2,-1,-1,1,1,-4,-1,-1,-1,-1,-1,-3,-3,-2,-0.25,-0.25,-0.25,-0.375,-0.375,-0.375,7.523336,3.194183,4.081206,3.210455,3.052328,6.375826,-0.1834869,-0.4657395,1.120482,0.2452035,-0.4491946,1.12096,0.03124464,0.3761952,1.24339,-0.1956697,-0.4546985,1.086683,0.2083718,-0.4539483,1.097833,0.03214354,-0.09531987,1.25966,0.04094275,-0.4088395,1.257237,-0.1516318,0.0801324,1.2558,-0.03684358,-0.4026954,1.222694,-0.1950252,-0.1774486,1.245704,0.2565851,-0.1734761,1.262183,NA,NA,NotTracked,Unknown,
0.9018555,0.4169922,0.01171875,0.9223633,-0.2944336,0.1689453,5,-3,-1,-1,0,-3,-1,-1,-2,-1,0,-8,1,1,-2,-1,0.25,0.25,0.25,-2.4375,-2.4375,-2.4375,7.51664,3.194785,4.08799,3.209596,3.049904,6.375158,-0.1824161,-0.4660341,1.121278,0.2448021,-0.4486763,1.120572,0.03141665,0.3761629,1.243492,-0.1996362,-0.4695352,1.085529,0.2083176,-0.4534186,1.0965,0.03217769,-0.09536473,1.259696,0.04091779,-0.4089269,1.257269,-0.1515762,0.08015095,1.255834,-0.03677538,-0.402727,1.22276,-0.1949509,-0.1774154,1.245775,0.2568914,-0.1737259,1.262307,NA,NA,NotTracked,Unknown,
0.8989258,0.418457,0.008300781,0.9238281,-0.2978516,0.1689453,-3,-2,-2,-1,0,-1,-1,-3,-1,-1,0,1,0,-3,-2,-1,0.3125,0.3125,0.3125,-1.6875,-1.6875,-1.6875,7.51089,3.195079,4.094369,3.209042,3.048272,6.374107,-0.1825099,-0.4663455,1.121346,0.2443164,-0.4481662,1.120553,0.03164155,0.3760594,1.243533,-0.1970725,-0.4567218,1.087668,0.2110894,-0.4509131,1.123929,0.0321765,-0.09541264,1.259749,0.04081444,-0.4090222,1.257329,-0.151491,0.08016767,1.255897,-0.03677568,-0.4027415,1.222825,-0.194887,-0.1773673,1.245841,0.2574965,-0.1730803,1.262757,NA,NA,NotTracked,Lasso,
0.8989258,0.418457,0.008300781,0.9238281,-0.2978516,0.1689453,-3,-2,-2,-1,0,-1,-1,-3,-1,-1,-1,-5,-1,-2,3,-1,0.3125,0.3125,0.3125,-1.6875,-1.6875,-1.6875,7.51089,3.195079,4.094369,3.209042,3.048272,6.374107,-0.1819276,-0.4666196,1.121106,0.2442203,-0.4479376,1.11988,0.03175959,0.3759994,1.243587,-0.1965967,-0.4597071,1.086476,0.2095451,-0.4500107,1.113201,0.03220556,-0.09545096,1.259799,0.04075217,-0.4091171,1.25738,-0.1514136,0.08015348,1.255932,-0.03676003,-0.4027519,1.222863,-0.1949085,-0.1773396,1.245825,0.2572814,-0.1730126,1.262506,NA,NA,NotTracked,Lasso,
0.902832,0.4233398,0.01074219,0.9272461,-0.3037109,0.1679688,0,-1,0,-1,-2,-1,0,-2,-2,-1,-1,-4,-2,-5,-5,-1,0.875,0.875,0.875,-2.9375,-2.9375,-2.9375,7.506984,3.194843,4.099454,3.207191,3.045242,6.373748,-0.1825493,-0.466809,1.124538,0.2446547,-0.4486554,1.121117,0.03191473,0.3759063,1.243861,-0.1980664,-0.4606587,1.088751,0.209612,-0.451086,1.112378,0.03229087,-0.09548298,1.259977,0.04078883,-0.4091479,1.257577,-0.1513346,0.08013108,1.256018,-0.03657398,-0.4028268,1.223132,-0.1948271,-0.1774067,1.245966,0.2574369,-0.1730348,1.262636,NA,NA,NotTracked,Lasso,
0.8920898,0.4228516,0.004882813,0.9243164,-0.3046875,0.1669922,-4,-1,-2,-2,-1,-2,-1,-2,1,0,0,2,1,4,-1,-2,1.125,1.125,1.125,-2.3125,-2.3125,-2.3125,7.504859,3.19497,4.103079,3.206312,3.043275,6.372301,-0.1830148,-0.4654185,1.122423,0.2437017,-0.4477805,1.119356,0.03203261,0.3758415,1.243897,-0.198481,-0.4588292,1.087717,0.2043799,-0.4562306,1.103687,0.03237801,-0.09548752,1.260057,0.04083597,-0.4091347,1.257663,-0.1512875,0.08014956,1.256062,-0.03657098,-0.4028342,1.223194,-0.1948062,-0.1772069,1.246126,0.2572845,-0.1731068,1.262576,NA,NA,NotTracked,Lasso,
0.8950195,0.4267578,0.009765625,0.9287109,-0.3105469,0.1723633,-7,-3,-2,-1,0,-1,-1,0,-1,-2,0,-2,-4,-8,-4,-1,0.5625,0.5625,0.5625,-1.1875,-1.1875,-1.1875,7.504314,3.195285,4.103922,3.205855,3.042538,6.371634,-0.1817174,-0.4667284,1.122934,0.2432633,-0.4478366,1.119226,0.03210218,0.3757634,1.243929,-0.196329,-0.4611472,1.086394,0.2075669,-0.4491091,1.1276,0.03245893,-0.09555703,1.260107,0.0408935,-0.4092366,1.257697,-0.1512569,0.08014616,1.256067,-0.03639796,-0.4028929,1.223275,-0.194764,-0.1772371,1.246223,0.2572498,-0.1730746,1.262492,NA,NA,NotTracked,Lasso,
0.8969727,0.4267578,0.0078125,0.925293,-0.3076172,0.1772461,1,-3,-2,-1,-1,1,-1,-1,-3,-2,0,-1,0,0,2,0,1.125,1.125,1.125,-0.6875,-0.6875,-0.6875,7.504687,3.195441,4.10404,3.207124,3.043053,6.370389,-0.1823429,-0.4665234,1.123379,0.2494804,-0.4263322,1.128705,0.03211117,0.3756969,1.243999,-0.1966675,-0.4580629,1.088031,0.2186944,-0.4284916,1.131187,0.03254141,-0.09555186,1.260231,0.04104871,-0.4092146,1.257895,-0.1512105,0.08014884,1.256088,-0.03635673,-0.4029213,1.223408,-0.1946984,-0.1772183,1.246319,0.2571128,-0.1730296,1.262446,NA,NA,NotTracked,Lasso,
0.8969727,0.4296875,0.009277344,0.9248047,-0.3071289,0.1640625,1,-2,-2,-1,1,-2,-2,-1,-1,-1,0,-3,0,9,5,-1,1.3125,1.3125,1.3125,-0.6875,-0.6875,-0.6875,7.506352,3.195378,4.103714,3.207903,3.044711,6.369257,-0.1826216,-0.4659975,1.123463,0.2434972,-0.4476967,1.120057,0.03217268,0.3756788,1.244064,-0.198505,-0.4634992,1.087919,0.2065745,-0.4524805,1.0935,0.03269146,-0.09555978,1.260371,0.04129645,-0.4091838,1.25811,-0.151176,0.08017032,1.256125,-0.03621908,-0.4029277,1.223563,-0.1946709,-0.1772391,1.246397,0.2569134,-0.1730037,1.262395,NA,NA,NotTracked,Lasso,
0.8964844,0.4189453,0.008789063,0.9267578,-0.3066406,0.1694336,-5,-2,-2,-2,0,-1,1,1,0,-2,-1,1,-1,-2,-1,-2,1.0625,1.0625,1.0625,-1.0625,-1.0625,-1.0625,7.508249,3.194652,4.102278,3.208553,3.045982,6.368311,-0.1824465,-0.4666018,1.123514,0.2435324,-0.4479177,1.120015,0.03223817,0.3756459,1.244166,-0.1971117,-0.4606897,1.087542,0.2087171,-0.4484531,1.116995,0.03288678,-0.09553678,1.260597,0.04157267,-0.4090775,1.258446,-0.1511272,0.08014236,1.256188,-0.03610342,-0.4029101,1.223761,-0.1944644,-0.1770382,1.246603,0.2569347,-0.1730174,1.262492,NA,NA,NotTracked,Lasso,
0.890625,0.421875,0.009277344,0.9213867,-0.3041992,0.1713867,12,3,2,0,-2,-1,-1,-1,-2,0,0,1,0,1,-1,-2,2.1875,2.1875,2.1875,-1,-1,-1,7.512245,3.194689,4.099822,3.208594,3.047175,6.367983,-0.1821712,-0.4659479,1.122792,0.2439926,-0.4479593,1.120382,0.03223111,0.3755877,1.24425,-0.1986646,-0.4581589,1.088567,0.204418,-0.45631,1.103875,0.03292336,-0.09557414,1.260681,0.04158812,-0.4091373,1.258563,-0.1511025,0.08013784,1.256216,-0.03590456,-0.4029372,1.224053,-0.1944164,-0.1770204,1.246668,0.2571799,-0.1729167,1.26288,NA,NA,NotTracked,Lasso,
0.9057617,0.4228516,0.006835938,0.9223633,-0.3056641,0.1723633,1,-1,0,-2,0,-1,-1,0,-2,-3,1,-1,-1,-2,-1,-2,0.875,0.875,0.875,-0.875,-0.875,-0.875,7.514456,3.194984,4.098244,3.20941,3.049021,6.366785,-0.1819085,-0.4659279,1.121955,0.2442004,-0.4476755,1.119906,0.03216734,0.3755109,1.244312,-0.194499,-0.4682289,1.084567,0.20738,-0.4500688,1.11208,0.03293641,-0.09561115,1.260709,0.0415814,-0.4091856,1.258572,-0.1510914,0.0801392,1.256239,-0.03584513,-0.4029509,1.224107,-0.1943785,-0.1770045,1.246726,0.2569485,-0.1730646,1.262787,NA,NA,NotTracked,Lasso,
0.9018555,0.421875,0.01220703,0.9243164,-0.2944336,0.1694336,-7,-2,0,-1,-2,-1,-1,2,-1,-1,-1,-3,1,-1,0,-3,0.125,0.125,0.125,-1.5,-1.5,-1.5,7.515067,3.19448,4.097246,3.212774,3.051558,6.362517,-0.1820454,-0.4651109,1.122249,0.2446757,-0.4476389,1.120583,0.03214834,0.3754422,1.244364,-0.1966873,-0.4740993,1.084643,0.2063677,-0.4545031,1.098,0.03290615,-0.09564599,1.260769,0.04147692,-0.4092549,1.258631,-0.1510585,0.08015978,1.25627,-0.03586563,-0.4029482,1.22421,-0.1943552,-0.1769593,1.246784,0.2569919,-0.1730366,1.262814,NA,NA,NotTracked,Lasso,
