ALX,ALY,ALZ,ARX,ARY,ARZ,EMG0L,EMG1L,EMG2L,EMG3L,EMG4L,EMG5L,EMG6L,EMG7L,EMG0R,EMG1R,EMG2R,EMG3R,EMG4R,EMG5R,EMG6R,EMG7R,GLX,GLY,GLZ,GRX,GRY,GRZ,ORL,OPL,OYL,ORR,OPR,OYR,LHNX,LHNY,LHNZ,RHNX,RHNY,RHNZ,HX,HY,HZ,LTX,LTY,LTZ,RTX,RTY,RTZ,SpineMidX,SpineMidY,SpineMidZ,SpineBaseX,SpineBaseY,SpineBaseZ,ShoulderLeftX,ShoulderLeftY,ShoulderLeftZ,ShoulderRightX,ShoulderRightY,ShoulderRightZ,ElbowLeftX,ElbowLeftY,ElbowLeftZ,ElbowRightX,ElbowRightY,ElbowRightZ,Myo_Pose_left,Myo_Pose_Right,Kinect_pose_left,Kinect_pose_right
0.5678711,-0.7963867,0.1542969,0.628418,0.7373047,0.08935547,1,-4,0,-3,0,-3,-13,-7,-32,-50,-10,-1,2,19,1,7,5.4375,5.4375,5.4375,-7.3125,-7.3125,-7.3125,2.788614,4.079544,8.741714,7.238748,3.9393,2.986253,-0.1207535,-0.347764,1.058557,0.3069135,-0.331581,1.061361,0.114622,0.3780703,1.329011,-0.1643555,-0.3583509,1.044812,0.2738596,-0.3579413,1.098698,0.09988401,-0.09810913,1.333984,0.105353,-0.4244622,1.319121,-0.07554625,0.08404495,1.320031,0.02342152,-0.414979,1.281686,-0.130497,-0.1479158,1.292777,0.3134814,-0.1638553,1.298456,NA,NA,Closed,Closed,
0.5800781,-0.7875977,0.1542969,0.640625,0.7241211,0.06103516,5,-29,-9,-1,3,11,46,-20,-26,-3,-4,-2,4,-4,-4,-11,11.9375,11.9375,11.9375,-18.625,-18.625,-18.625,2.803552,4.063832,8.738447,7.223908,3.913968,2.980408,-0.1203912,-0.3488946,1.057482,0.3068355,-0.3330621,1.061268,0.1146247,0.3780394,1.328958,-0.1636051,-0.3643897,1.045922,0.2729729,-0.3573439,1.099128,0.09982359,-0.09821741,1.333608,0.1053324,-0.4245947,1.318377,-0.07584584,0.08373471,1.319457,0.02341341,-0.4150948,1.28093,-0.130273,-0.1482809,1.291869,0.3131701,-0.1642096,1.297977,NA,NA,Closed,Closed,
0.5878906,-0.8520508,0.1733398,0.6513672,0.7329102,0.1479492,6,11,3,3,8,23,5,45,27,1,2,0,0,-2,-4,6,13.25,13.25,13.25,-37.5625,-37.5625,-37.5625,2.814886,4.046387,8.742043,7.191688,3.887423,2.979187,-0.1198759,-0.3522864,1.057774,0.3061948,-0.3365524,1.061979,0.1146403,0.3780106,1.328929,-0.1680298,-0.3646747,1.055081,0.3451751,-0.3765248,1.0545,0.09976976,-0.09825465,1.333404,0.1052321,-0.4246195,1.317903,-0.07602303,0.08370342,1.3193,0.02329855,-0.4151347,1.280347,-0.1302395,-0.1490751,1.291223,0.313106,-0.1643522,1.297989,NA,NA,Closed,Closed,
0.5927734,-0.7856445,0.1293945,0.6582031,0.5810547,0.1459961,-1,3,0,-2,-5,-6,23,8,14,-2,-1,-1,-5,-2,-3,-4,24.375,24.375,24.375,-32.3125,-32.3125,-32.3125,2.835831,4.019979,8.738667,7.151073,3.842808,2.98886,-0.1184924,-0.3570766,1.057969,0.3027949,-0.3429626,1.063176,0.1146542,0.3779879,1.328881,-0.1625911,-0.378823,1.0578,0.265342,-0.3775659,1.085917,0.09969996,-0.09830409,1.333165,0.1051232,-0.4246812,1.317343,-0.07619677,0.08354749,1.319042,0.02319855,-0.4151851,1.279807,-0.1303483,-0.1494625,1.291041,0.3130981,-0.1645777,1.298148,NA,NA,Closed,Closed,
0.5678711,-0.7021484,0.1762695,0.6293945,0.628418,0.2592773,-1,1,-1,0,3,5,4,0,-9,-4,-1,-2,-3,-5,3,-3,24.5,24.5,24.5,-20.5,-20.5,-20.5,2.869993,3.990536,8.730222,7.111616,3.803449,3.002225,-0.115952,-0.3617739,1.058276,0.2983242,-0.352601,1.0632,0.1145431,0.3778788,1.328622,-0.1661477,-0.3904279,1.07,0.2800327,-0.4049122,1.106667,0.09967528,-0.09846416,1.332614,0.1051931,-0.4248202,1.316651,-0.07668519,0.08325996,1.31872,0.02326748,-0.4153658,1.27901,-0.1305416,-0.1509909,1.290363,0.3132029,-0.1645679,1.298258,NA,NA,Closed,Unknown,
0.5800781,-0.7216797,0.1918945,0.6816406,0.6352539,0.2006836,-2,-5,3,0,-5,-7,-5,-2,4,8,0,-1,-3,0,-1,-1,14.75,14.75,14.75,-15.125,-15.125,-15.125,2.883634,3.956625,8.733535,7.090044,3.746747,3.001675,-0.1144751,-0.3766796,1.067861,0.2957158,-0.3665267,1.069704,0.114262,0.3775822,1.327879,-0.1114795,-0.4182403,1.119143,0.2770786,-0.4183665,1.1166,0.09913937,-0.0988061,1.331464,0.1043538,-0.4255728,1.314912,-0.07777645,0.08269428,1.318147,0.02249795,-0.4159813,1.277497,-0.1309025,-0.1535276,1.289746,0.314065,-0.1675715,1.300333,NA,NA,Unknown,Unknown,
0.6665039,-0.6918945,0.1914063,0.6738281,0.6625977,0.1474609,0,0,0,-2,0,-1,6,0,4,4,-2,-2,-3,2,1,-1,24.6875,24.6875,24.6875,7.375,7.375,7.375,2.902869,3.896163,8.743253,7.101194,3.69414,2.992132,-0.1140174,-0.3838188,1.072671,0.2955829,-0.3737477,1.078417,0.114052,0.3774574,1.327531,-0.07042123,-0.3976344,1.069,0.255945,-0.3927041,1.109167,0.09900101,-0.09890073,1.331085,0.1042529,-0.4256606,1.314587,-0.07791181,0.08270861,1.317942,0.02238712,-0.4160602,1.277163,-0.1310431,-0.154406,1.290226,0.3143014,-0.1684549,1.301459,NA,NA,Unknown,Unknown,
0.6772461,-0.6928711,0.1806641,0.6640625,0.7016602,0.1494141,-1,0,-2,0,-3,0,6,2,-2,0,-1,0,-1,0,-2,-2,17.875,17.875,17.875,2.625,2.625,2.625,2.918503,3.830396,8.753548,7.114577,3.634379,2.982773,-0.1146148,-0.3903614,1.080459,0.2944664,-0.3838727,1.08678,0.1136713,0.3772097,1.326738,-0.06990844,-0.393867,1.071768,0.2431697,-0.4008859,1.1005,0.09855686,-0.09911034,1.330207,0.1037178,-0.4259458,1.313826,-0.07836753,0.08250059,1.317522,0.02188788,-0.416336,1.276502,-0.1313805,-0.1551776,1.29035,0.3157384,-0.1705721,1.303028,NA,NA,Unknown,Unknown,
0.7285156,-0.7006836,0.2163086,0.7016602,0.6567383,0.1337891,1,0,0,-1,-1,-1,2,-2,2,0,-2,-2,-1,-3,-1,-2,14.5,14.5,14.5,-6.6875,-6.6875,-6.6875,2.932583,3.709216,8.771749,7.121606,3.558161,2.968949,-0.1142459,-0.3994955,1.089203,0.2939155,-0.3925699,1.096539,0.1130514,0.3769479,1.325721,-0.06981149,-0.4007086,1.081583,0.249863,-0.3863373,1.084259,0.09839865,-0.09933762,1.329633,0.1035741,-0.4261158,1.313552,-0.07876332,0.08224593,1.316649,0.02178391,-0.4164687,1.276286,-0.1317479,-0.1586784,1.290308,0.315673,-0.170716,1.303739,NA,NA,Unknown,Unknown,
0.7397461,-0.6630859,0.2133789,0.7709961,0.5639648,0.1235352,0,-2,0,-1,1,-1,-1,1,2,4,1,-1,-1,-1,-1,0,25.9375,25.9375,25.9375,-0.8125,-0.8125,-0.8125,2.946255,3.663385,8.773622,7.139265,3.459364,2.94289,-0.1135837,-0.4082878,1.101056,0.2926349,-0.404203,1.108904,0.1123196,0.3767844,1.324566,-0.07481591,-0.4255574,1.1014,0.2519838,-0.3945813,1.095766,0.09817822,-0.09948008,1.329127,0.103475,-0.4262235,1.31328,-0.07931785,0.08216452,1.315931,0.02173703,-0.4165175,1.276201,-0.1319021,-0.1597786,1.290583,0.3151648,-0.171313,1.304708,NA,NA,Unknown,Unknown,
0.7617188,-0.5336914,0.2236328,0.909668,0.4814453,0.1386719,-1,0,0,0,-1,-1,0,-2,-2,-3,-2,-3,-2,0,-2,-1,10.375,10.375,10.375,22.6875,22.6875,22.6875,2.967019,3.564513,8.77503,7.187387,3.349858,2.904916,-0.1136705,-0.4235131,1.128171,0.2924388,-0.4268754,1.137902,0.1100402,0.3761317,1.321552,-0.1490047,-0.4312491,1.1335,0.2559837,-0.4176677,1.1226,0.09790036,-0.09987564,1.327911,0.1029543,-0.4265772,1.312552,-0.07996204,0.0818854,1.314813,0.02139138,-0.4167557,1.275897,-0.1321761,-0.1643428,1.29219,0.3146881,-0.173222,1.306563,NA,NA,Unknown,Unknown,
0.8237305,-0.503418,0.230957,0.9868164,0.4389648,0.09326172,-1,0,1,-2,0,-2,-1,-1,-1,-3,-3,0,0,0,-2,-2,-31.875,-31.875,-31.875,56.5,56.5,56.5,2.937366,3.476445,8.788144,7.287364,3.25193,2.851014,-0.1108761,-0.4301289,1.140504,0.2931714,-0.436677,1.152544,0.1086883,0.3756605,1.319528,-0.1316876,-0.439079,1.11,0.2579599,-0.4489109,1.158571,0.0977765,-0.1001783,1.327132,0.1026321,-0.4268072,1.312042,-0.08012655,0.08173995,1.314181,0.02111865,-0.4169438,1.275564,-0.1326223,-0.1666869,1.293282,0.3142385,-0.1742634,1.30677,NA,NA,Closed,Unknown,
0.8808594,-0.5102539,0.1904297,1.008301,0.4477539,0.05322266,-2,0,-2,0,-2,-1,-1,0,-1,-1,-2,-2,-2,0,-3,0,-67.4375,-67.4375,-67.4375,65.0625,65.0625,65.0625,2.862497,3.401004,8.801802,7.349515,3.210959,2.821733,-0.1111333,-0.4370576,1.155095,0.2956573,-0.4439691,1.167433,0.1076503,0.3754513,1.318104,-0.1451841,-0.4269497,1.1543,0.2568289,-0.4485353,1.156152,0.09792831,-0.1004728,1.326669,0.1027359,-0.4269379,1.311961,-0.08037242,0.08163337,1.313659,0.02120688,-0.4171543,1.27559,-0.132219,-0.1681941,1.294625,0.3141485,-0.1755701,1.307117,NA,NA,Closed,Unknown,
0.8852539,-0.5112305,0.1206055,0.9829102,0.4042969,-0.01513672,0,-2,-2,0,-2,-1,-1,0,0,-1,-1,-3,0,0,0,0,-78.875,-78.875,-78.875,54.125,54.125,54.125,2.780848,3.334804,8.799596,7.499523,3.117287,2.76665,-0.1110987,-0.4423464,1.169798,0.2963283,-0.4516415,1.180158,0.1065467,0.3751634,1.316183,-0.1346759,-0.4584191,1.143875,0.256227,-0.4551533,1.169652,0.097894,-0.1006427,1.326129,0.102653,-0.4271079,1.311661,-0.08086837,0.08140793,1.312958,0.02111978,-0.4173204,1.275461,-0.1318558,-0.1708346,1.296171,0.3139923,-0.176371,1.307348,NA,NA,Unknown,Unknown,
0.8759766,-0.4897461,0.06494141,0.9619141,0.3759766,-0.0078125,-1,-1,0,0,0,-1,-1,-1,0,0,-2,-1,-1,-1,1,0,-82.8125,-82.8125,-82.8125,46.1875,46.1875,46.1875,2.702948,3.275154,8.784516,7.548734,3.076714,2.771496,-0.1102123,-0.4511963,1.196803,0.2963068,-0.4589311,1.20357,0.1055136,0.3747096,1.313873,-0.1480169,-0.456531,1.187071,0.2588103,-0.4537989,1.193433,0.09816837,-0.1009098,1.325436,0.1036885,-0.4273528,1.311647,-0.08137316,0.08129136,1.312084,0.02220895,-0.4178895,1.27583,-0.1301793,-0.1743862,1.300689,0.3141022,-0.1785338,1.308341,NA,NA,Unknown,Unknown,
0.8935547,-0.4804688,0.03662109,0.9453125,0.4038086,0.0234375,-2,0,-3,-1,-1,0,1,-3,-6,-8,-2,-1,-1,0,-1,-1,-75.3125,-75.3125,-75.3125,24.75,24.75,24.75,2.629789,3.221264,8.769349,7.558103,3.049215,2.797952,-0.1090035,-0.451906,1.208364,0.2954373,-0.4568864,1.210623,0.1049341,0.374289,1.312018,-0.1482848,-0.4570765,1.199134,0.2555615,-0.4367929,1.214808,0.09844633,-0.1009779,1.325148,0.1044936,-0.4271639,1.311757,-0.08174725,0.08125614,1.311363,0.02298455,-0.4180717,1.276074,-0.1296896,-0.1746232,1.302076,0.3141088,-0.1783918,1.308952,NA,NA,Unknown,NotTracked,
0.8935547,-0.5063477,0.07617188,0.9335938,0.4174805,0.04833984,0,-1,0,1,1,1,-1,0,0,0,-2,-2,-1,-2,-2,1,-15.9375,-15.9375,-15.9375,-9.4375,-9.4375,-9.4375,2.582452,3.151746,8.746746,7.517079,3.031135,2.83933,-0.1051115,-0.4498134,1.219353,0.29259,-0.4586493,1.215398,0.1044547,0.37389,1.310487,-0.1440056,-0.4508975,1.203842,0.2528775,-0.4389856,1.211752,0.09865651,-0.1010862,1.324788,0.1046507,-0.4271594,1.311747,-0.08235243,0.08108377,1.311007,0.02313091,-0.4181577,1.276179,-0.1290876,-0.1753914,1.303777,0.3146237,-0.1787235,1.310013,NA,NA,NotTracked,NotTracked,
0.8974609,-0.4458008,0.07421875,0.9482422,0.3637695,0.04931641,0,-2,0,-1,0,0,-2,1,0,-1,-1,-1,-2,1,0,-1,27.5,27.5,27.5,-34.75,-34.75,-34.75,2.619928,3.110753,8.730099,7.437152,3.014183,2.886466,-0.101862,-0.449714,1.226623,0.2888194,-0.4404022,1.221759,0.1041412,0.3737456,1.309041,-0.1404519,-0.4596367,1.2156,0.2411159,-0.4307059,1.207222,0.09887371,-0.1010493,1.32464,0.1054228,-0.4269144,1.312109,-0.08262511,0.08108972,1.310524,0.02382564,-0.4181592,1.276633,-0.1282979,-0.1760111,1.30591,0.315298,-0.1791614,1.311675,NA,NA,NotTracked,NotTracked,
0.8945313,-0.496582,0.03125,0.9291992,0.3564453,0.02148438,-1,1,-1,1,-2,-1,0,-2,-1,0,-1,0,-3,-1,-1,-2,38.5,38.5,38.5,-30.5625,-30.5625,-30.5625,2.634391,3.09895,8.737453,7.410588,3.006353,2.896687,-0.1005841,-0.4501806,1.229155,0.2821604,-0.4631951,1.219154,0.103765,0.3734042,1.307389,-0.1356996,-0.4564803,1.216923,0.2405579,-0.4635249,1.202,0.09899727,-0.1010522,1.324466,0.1058962,-0.4267632,1.312301,-0.08301771,0.08126459,1.310066,0.02425913,-0.4181555,1.276942,-0.1277855,-0.1772455,1.307461,0.3153703,-0.1790501,1.312413,NA,NA,NotTracked,NotTracked,
0.9277344,-0.4775391,0.03076172,0.9379883,0.4521484,-0.08496094,0,2,-2,-1,-1,0,-1,-2,-2,0,0,-1,-3,-1,-2,-2,55.75,55.75,55.75,-15.5,-15.5,-15.5,2.670716,3.090515,8.788372,7.449487,3.004584,2.831768,-0.09871132,-0.4551557,1.233361,0.2779939,-0.4460015,1.223818,0.1029499,0.3728187,1.304673,-0.1350193,-0.4621901,1.224637,0.2283679,-0.418505,1.1992,0.09912235,-0.1009613,1.324229,0.1066835,-0.4262736,1.313039,-0.08390273,0.08166268,1.308863,0.02495563,-0.4178936,1.27791,-0.1268147,-0.1786811,1.311359,0.3158174,-0.1786199,1.314868,NA,NA,NotTracked,NotTracked,
0.9086914,-0.3535156,0.03125,0.9667969,0.3203125,-0.04345703,-1,0,-1,-2,-1,-1,1,0,-2,-1,0,-3,0,-4,0,-2,40.8125,40.8125,40.8125,-19.375,-19.375,-19.375,2.714595,3.083248,8.797784,7.458398,2.9999,2.799895,-0.09745451,-0.4549918,1.236107,0.2757615,-0.463845,1.221641,0.1026579,0.3726174,1.303365,-0.1365555,-0.4536295,1.2316,0.2274454,-0.4469081,1.195417,0.09913213,-0.1009404,1.324176,0.1068678,-0.4261347,1.31347,-0.08410278,0.0818575,1.30841,0.02511282,-0.417839,1.278469,-0.1260758,-0.1785178,1.313904,0.3157537,-0.1783184,1.315823,NA,NA,NotTracked,NotTracked,
0.9033203,-0.3344727,0.03515625,0.9379883,0.2338867,0.01513672,-1,0,-1,-1,-1,0,0,-1,0,-2,-1,-2,-2,-1,-2,-2,18.4375,18.4375,18.4375,16.4375,16.4375,16.4375,2.721839,3.078771,8.800681,7.464015,2.989579,2.800984,-0.09712385,-0.4530023,1.237456,0.2757185,-0.4634722,1.222781,0.1023669,0.3726029,1.302674,-0.1385042,-0.4583029,1.224922,0.2268154,-0.4423885,1.196708,0.0991769,-0.1009301,1.324128,0.107241,-0.4260498,1.314115,-0.08426164,0.08199801,1.307886,0.02543654,-0.4178235,1.279225,-0.1256023,-0.178532,1.315419,0.3157032,-0.1779156,1.316582,NA,NA,NotTracked,NotTracked,
0.9155273,-0.4003906,0.08105469,0.949707,0.2944336,0.03662109,-2,1,-2,-1,0,1,-1,-2,0,-1,-1,-1,-1,-2,-2,-3,-20.375,-20.375,-20.375,42,42,42,2.707081,3.079764,8.792794,7.502049,2.985492,2.805181,-0.09622651,-0.4537748,1.237124,0.2785083,-0.4694088,1.222096,0.1020119,0.3723782,1.301365,-0.1323078,-0.4739055,1.2176,0.2351511,-0.4573102,1.202656,0.09921709,-0.1008788,1.324078,0.1077415,-0.4258185,1.314699,-0.08459262,0.08219235,1.307396,0.02588869,-0.4176704,1.279874,-0.1254733,-0.1785395,1.315943,0.3155296,-0.1777443,1.316841,NA,NA,NotTracked,NotTracked,
0.9155273,-0.4003906,0.08105469,0.9438477,0.3291016,0.03125,0,-1,0,0,0,0,0,-1,-2,-2,-3,0,0,-2,0,0,-20.375,-20.375,-20.375,25.5,25.5,25.5,2.707081,3.079764,8.792794,7.525085,2.985101,2.816788,-0.09631875,-0.4531671,1.237462,0.2782762,-0.4608663,1.223411,0.1016857,0.372293,1.300859,-0.1329171,-0.464826,1.229035,0.2308998,-0.4414098,1.200022,0.09920992,-0.1008349,1.324038,0.1080101,-0.4256716,1.31512,-0.08496673,0.0822833,1.306981,0.02615992,-0.4176396,1.280454,-0.1252957,-0.1783231,1.316598,0.3154345,-0.1775065,1.317076,NA,NA,NotTracked,NotTracked,
0.9145508,-0.3662109,0.07568359,0.9438477,0.3291016,0.03125,0,-1,0,0,0,0,0,-1,-2,-2,-3,0,0,-2,0,0,-11.625,-11.625,-11.625,25.5,25.5,25.5,2.708492,3.083663,8.775696,7.525085,2.985101,2.816788,-0.09741918,-0.4517987,1.236864,0.2795838,-0.4585765,1.223673,0.1013066,0.3722163,1.30034,-0.1352371,-0.4451393,1.23,0.2313476,-0.4356468,1.201078,0.09924516,-0.1007866,1.32398,0.1083703,-0.4254784,1.315572,-0.08535413,0.08246469,1.30661,0.0265237,-0.4175606,1.28121,-0.1251837,-0.1781462,1.316946,0.3154323,-0.177367,1.31711,NA,NA,NotTracked,NotTracked,
0.9165039,-0.3305664,0.0703125,0.9360352,0.2919922,0.02734375,1,0,0,-1,1,-1,-1,-1,-1,0,-1,-3,-2,-1,0,-1,-11.5625,-11.5625,-11.5625,4.3125,4.3125,4.3125,2.707267,3.084585,8.764737,7.515604,2.984459,2.836045,-0.09681199,-0.4531299,1.238241,0.2805584,-0.4568637,1.225032,0.1009644,0.3722984,1.299984,-0.1352256,-0.4576048,1.229735,0.2329044,-0.4406157,1.202649,0.09924667,-0.1006813,1.323963,0.1084715,-0.4251713,1.31609,-0.08560863,0.0826171,1.306432,0.02659908,-0.4173264,1.282,-0.12501,-0.1779626,1.317405,0.3155138,-0.1772619,1.317199,NA,NA,NotTracked,NotTracked,
0.9101563,-0.3320313,0.07226563,0.9331055,0.2573242,0.01708984,1,0,-1,-2,-2,-1,-2,-2,-1,-2,0,1,-1,-1,0,0,-11.5,-11.5,-11.5,-1.1875,-1.1875,-1.1875,2.704595,3.085537,8.761091,7.497441,2.982177,2.85347,-0.09735426,-0.4530061,1.237064,0.2798917,-0.4557651,1.2232,0.1006283,0.3723274,1.299789,-0.136207,-0.4563301,1.231889,0.2327993,-0.4391992,1.201952,0.09926887,-0.1005757,1.323883,0.1084748,-0.4250488,1.316272,-0.08603163,0.08275986,1.306126,0.02657757,-0.4172048,1.282406,-0.1250169,-0.1779633,1.317493,0.3154621,-0.1770896,1.317172,NA,NA,NotTracked,NotTracked,
0.9204102,-0.3310547,0.07128906,0.9321289,0.2768555,0.0004882813,3,3,0,-2,-1,-3,0,1,-2,-1,-2,-1,-1,-1,-2,0,-5.9375,-5.9375,-5.9375,5.75,5.75,5.75,2.701731,3.086773,8.75593,7.493175,2.980667,2.862606,-0.09712432,-0.4529546,1.236844,0.2798504,-0.4549726,1.223048,0.1002372,0.3723573,1.299549,-0.1367453,-0.4592266,1.231045,0.2332022,-0.4376434,1.202612,0.09926918,-0.1004148,1.323893,0.1087005,-0.4247285,1.316693,-0.08635592,0.08287092,1.305982,0.0268077,-0.4169761,1.28314,-0.1249674,-0.1779642,1.317583,0.315338,-0.176795,1.317139,NA,NA,NotTracked,NotTracked,
0.9223633,-0.3457031,0.05419922,0.9443359,0.3037109,-0.01171875,-1,-2,-1,-2,-1,0,0,-2,-1,-1,-1,0,0,0,-1,-1,-1.75,-1.75,-1.75,4.75,4.75,4.75,2.698066,3.086736,8.757082,7.497577,2.980289,2.864769,-0.09732062,-0.4532474,1.23658,0.2793821,-0.454949,1.222129,0.0997118,0.3724434,1.299305,-0.136724,-0.458198,1.232657,0.2331408,-0.437898,1.202482,0.09912334,-0.1002472,1.323707,0.1085871,-0.4246413,1.316758,-0.0866584,0.08298477,1.305854,0.02662825,-0.4168565,1.283345,-0.1249314,-0.1775353,1.317876,0.3153297,-0.1767009,1.317122,NA,NA,NotTracked,NotTracked,
0.9267578,-0.3413086,0.06396484,0.9462891,0.2978516,-0.02392578,-1,-1,-2,-1,-1,-1,0,0,-2,-1,-1,0,-2,-2,0,-2,-2.8125,-2.8125,-2.8125,1.0625,1.0625,1.0625,2.696437,3.086495,8.757518,7.506835,2.978778,2.857864,-0.09643437,-0.4525865,1.235908,0.278313,-0.4530681,1.222397,0.09890624,0.3724552,1.299036,-0.13544,-0.4570156,1.229164,0.2297574,-0.4317793,1.200619,0.09912634,-0.09997104,1.323547,0.1086795,-0.4243451,1.317045,-0.08457709,0.08458538,1.309397,0.02667806,-0.4166084,1.283953,-0.1247859,-0.1776037,1.317977,0.3152335,-0.1763771,1.316962,NA,NA,NotTracked,NotTracked,
0.9331055,-0.3540039,0.06103516,0.9555664,0.2841797,-0.01416016,0,1,1,-2,-2,-1,1,-1,0,-1,0,0,-1,-1,-1,-1,-1.9375,-1.9375,-1.9375,0.9375,0.9375,0.9375,2.690101,3.086005,8.762447,7.517164,2.9769,2.84862,-0.09791614,-0.4529488,1.235773,0.2783476,-0.4529279,1.222549,0.09858897,0.3726053,1.299085,-0.1367077,-0.4514106,1.230657,0.2315293,-0.4308758,1.202595,0.09912476,-0.0997893,1.32352,0.1087159,-0.4241387,1.317304,-0.08265114,0.08543663,1.312399,0.02670818,-0.4164284,1.284351,-0.1246561,-0.1772733,1.318205,0.3152281,-0.1761561,1.316881,NA,NA,NotTracked,NotTracked,
0.9179688,-0.3388672,0.05957031,0.9570313,0.2773438,0.0078125,0,-2,-1,0,0,2,1,0,0,0,-1,-1,0,-1,0,-2,-2.125,-2.125,-2.125,2.875,2.875,2.875,2.686208,3.085541,8.764952,7.519095,2.975691,2.849185,-0.09603307,-0.4533983,1.235397,0.2790276,-0.4619921,1.220448,0.09830117,0.3728757,1.299088,-0.1345409,-0.4596446,1.228151,0.2344592,-0.4506803,1.202,0.0991314,-0.09946472,1.323471,0.1087534,-0.4239289,1.317496,-0.08400749,0.08562586,1.310768,0.02672756,-0.4162622,1.284627,-0.1244553,-0.1765172,1.318369,0.315201,-0.1760608,1.316829,NA,NA,NotTracked,NotTracked,
0.9179688,-0.3339844,0.06689453,0.9555664,0.2792969,0.01611328,-2,-1,0,1,0,-1,-1,0,-2,0,-2,0,0,1,-2,0,-5,-5,-5,0.5625,0.5625,0.5625,2.68192,3.085204,8.765253,7.518038,2.975032,2.851491,-0.0973239,-0.4531886,1.235891,0.2795348,-0.4559648,1.22127,0.09807343,0.3730081,1.2992,-0.1357584,-0.4587984,1.230672,0.2334806,-0.4405424,1.2022,0.09922326,-0.0991343,1.323402,0.1087926,-0.4236227,1.31765,-0.08246946,0.08621174,1.313086,0.02675709,-0.4159774,1.284859,-0.1244053,-0.1764569,1.318478,0.315227,-0.1759068,1.316768,NA,NA,NotTracked,NotTracked,
0.9238281,-0.3486328,0.06787109,0.9492188,0.2753906,0.02001953,0,0,-1,-5,-1,-1,-1,-1,-1,-2,-2,-1,-1,-2,0,-1,-4.125,-4.125,-4.125,-3,-3,-3,2.677144,3.085427,8.765753,7.507173,2.973353,2.859951,-0.09720571,-0.4528499,1.234891,0.2805785,-0.4467227,1.222429,0.0979088,0.3730755,1.299225,-0.1450771,-0.4581851,1.246,0.2316863,-0.4423804,1.199975,0.0992749,-0.09897682,1.323388,0.1088887,-0.4235004,1.317757,-0.08387876,0.08608137,1.310538,0.02687026,-0.4158899,1.285027,-0.1244036,-0.1763704,1.31848,0.3152974,-0.1756685,1.316619,NA,NA,NotTracked,NotTracked,
0.9262695,-0.3413086,0.07128906,0.9213867,0.2734375,0.02001953,-1,0,0,0,0,0,-1,-1,-1,-1,0,-1,-3,-2,-2,-2,-0.8125,-0.8125,-0.8125,-4.0625,-4.0625,-4.0625,2.67401,3.083906,8.767891,7.495635,2.971183,2.866978,-0.09709234,-0.4527964,1.235355,0.2784556,-0.4442891,1.222691,0.09766307,0.3733675,1.299548,-0.1397855,-0.4498149,1.244429,0.2261381,-0.4425563,1.195063,0.0994646,-0.09857913,1.323416,0.1091643,-0.4231876,1.318041,-0.08342869,0.08673543,1.310652,0.02714509,-0.415619,1.285425,-0.1243088,-0.1764112,1.318443,0.3165424,-0.1772034,1.3166,NA,NA,NotTracked,NotTracked,
0.9106445,-0.3256836,0.04736328,0.8964844,0.2763672,-0.0004882813,1,2,-2,0,-1,-3,0,-1,-1,-3,-2,-3,-2,-2,-1,0,-1.6875,-1.6875,-1.6875,-3.75,-3.75,-3.75,2.669865,3.081165,8.771482,7.490505,2.970237,2.867753,-0.09676179,-0.4513241,1.235987,0.280002,-0.4444735,1.224025,0.09765299,0.3734378,1.299649,-0.1335146,-0.4546499,1.224913,0.2297298,-0.4405626,1.19891,0.09941435,-0.09834372,1.323362,0.1090088,-0.4229604,1.318143,-0.08187044,0.08722638,1.313008,0.02695427,-0.4152936,1.2856,-0.1242585,-0.1763756,1.318483,0.3165932,-0.1772088,1.316603,NA,NA,NotTracked,NotTracked,
0.887207,-0.3232422,0.04833984,0.8994141,0.284668,-0.004394531,0,-3,1,3,-1,-1,-3,0,-1,1,-2,0,-2,-2,-1,-1,-3,-3,-3,-3.75,-3.75,-3.75,2.667326,3.080099,8.772539,7.487872,2.97156,2.866076,-0.09664513,-0.4511324,1.235968,0.2794787,-0.444442,1.223423,0.09766335,0.3734773,1.299662,-0.1370918,-0.454749,1.233778,0.2277185,-0.4428231,1.195855,0.09930167,-0.09816466,1.323336,0.1089195,-0.4228276,1.31814,-0.08319501,0.08717656,1.310882,0.02687294,-0.4151675,1.285622,-0.1240503,-0.1759847,1.318581,0.3165563,-0.1768534,1.316533,NA,NA,NotTracked,NotTracked,
0.8793945,-0.3222656,0.04541016,0.934082,0.2783203,0.007324219,1,3,-1,-2,-2,0,-1,-2,-1,-2,-1,0,-1,0,-1,-1,-1.9375,-1.9375,-1.9375,-5.0625,-5.0625,-5.0625,2.660501,3.082371,8.774966,7.484062,2.974791,2.864912,-0.09671535,-0.4522141,1.237497,0.2789719,-0.4452257,1.224116,0.09773871,0.3736656,1.29979,-0.1372833,-0.4550546,1.23667,0.2260282,-0.4506346,1.195308,0.0993186,-0.09805934,1.323328,0.1088272,-0.4226745,1.318226,-0.08378178,0.08715016,1.309918,0.02678091,-0.4150237,1.285741,-0.123923,-0.1757975,1.318644,0.3165608,-0.1767328,1.316543,NA,NA,NotTracked,NotTracked,
0.9003906,-0.3354492,0.06689453,0.9833984,0.2929688,0.02490234,-5,-1,-2,1,-1,0,-1,1,0,0,0,-1,-1,-1,-3,-1,3.6875,3.6875,3.6875,-1.8125,-1.8125,-1.8125,2.662558,3.08589,8.775723,7.480695,2.979749,2.864864,-0.09703663,-0.4515327,1.236233,0.2787159,-0.4455511,1.223294,0.09785759,0.3737175,1.299756,-0.137204,-0.4497156,1.230467,0.2295575,-0.4278891,1.200913,0.09945789,-0.09801888,1.323305,0.1088941,-0.422653,1.318303,-0.08411862,0.08697322,1.309235,0.02684963,-0.4150243,1.28582,-0.1238595,-0.1758634,1.318639,0.3165653,-0.1765994,1.316553,NA,NA,NotTracked,NotTracked,
1.001465,-0.3686523,0.07666016,1.054688,0.296875,0.0390625,0,-2,-1,-2,-2,-1,-1,-1,1,0,-1,-1,-2,-1,0,-2,9.125,9.125,9.125,-14.125,-14.125,-14.125,2.664681,3.088336,8.784163,7.473596,2.978814,2.859093,-0.09774195,-0.4523945,1.236592,0.2788648,-0.4496261,1.222775,0.09839213,0.3739012,1.29953,-0.1372636,-0.4516293,1.228721,0.2282736,-0.4395161,1.197673,0.09951785,-0.09800573,1.32327,0.1088904,-0.4226295,1.318336,-0.08262489,0.08659599,1.311028,0.02682907,-0.4150046,1.285824,-0.1236533,-0.1757807,1.318725,0.3165041,-0.1760608,1.316517,NA,NA,NotTracked,NotTracked,
0.9741211,-0.3608398,0.08984375,0.9326172,0.3037109,-0.02929688,0,5,-1,-3,1,-1,-1,-2,-2,-2,-3,0,0,-1,1,0,10.1875,10.1875,10.1875,-19.6875,-19.6875,-19.6875,2.668706,3.083892,8.793828,7.46415,2.978766,2.847033,-0.09711065,-0.4519099,1.236893,0.2761492,-0.4600056,1.220389,0.09878076,0.3740409,1.299491,-0.1384934,-0.4558294,1.232454,0.228663,-0.4402254,1.197956,0.09955534,-0.0980107,1.323253,0.1088581,-0.4226351,1.31834,-0.08308058,0.08645288,1.310471,0.02677116,-0.4150059,1.285798,-0.1236014,-0.1756646,1.318825,0.3166272,-0.1758575,1.316681,NA,NA,NotTracked,NotTracked,
0.8876953,-0.3564453,0.02001953,0.9174805,0.2895508,-0.0004882813,-1,-3,-1,0,-1,0,0,2,-2,-2,0,-2,-3,0,0,-2,6.3125,6.3125,6.3125,-7.375,-7.375,-7.375,2.667963,3.084326,8.804165,7.456449,2.979052,2.842032,-0.09699251,-0.4519515,1.236546,0.2750069,-0.4601052,1.220226,0.09923548,0.3741434,1.29936,-0.1367154,-0.4640097,1.211667,0.2287653,-0.4401249,1.198145,0.09962705,-0.09799143,1.323297,0.1089728,-0.4226531,1.31842,-0.0811178,0.08680401,1.313202,0.02688442,-0.4150419,1.285884,-0.1235162,-0.1757334,1.318911,0.3166126,-0.1757123,1.316804,NA,NA,NotTracked,NotTracked,
0.8955078,-0.3657227,0.04150391,0.9257813,0.3334961,0.01220703,1,6,0,1,-3,-1,0,-1,-1,-2,-1,-1,0,-2,-1,0,-4.875,-4.875,-4.875,6.8125,6.8125,6.8125,2.663944,3.08777,8.806235,7.469668,2.982391,2.833606,-0.09549368,-0.451548,1.236478,0.2763784,-0.462314,1.21959,0.09975002,0.3742818,1.299232,-0.1349257,-0.457011,1.228638,0.2297598,-0.4441206,1.198081,0.09980109,-0.09797414,1.32326,0.1090017,-0.4226524,1.318451,-0.08166675,0.08668707,1.312158,0.02689868,-0.4150375,1.285878,-0.1235086,-0.1758469,1.318939,0.316627,-0.1756154,1.316903,NA,NA,NotTracked,NotTracked,
0.8964844,-0.3774414,0.04785156,0.9570313,0.328125,0.03564453,0,0,-2,0,0,0,1,0,-2,1,0,-1,0,2,0,1,-8.125,-8.125,-8.125,-8.0625,-8.0625,-8.0625,2.658753,3.089849,8.807197,7.471394,2.985346,2.827317,-0.09642452,-0.4508585,1.236215,0.2757283,-0.4622098,1.220195,0.1003552,0.374457,1.29916,-0.1359829,-0.4580519,1.228274,0.2284099,-0.4396686,1.197597,0.1000502,-0.09793732,1.323249,0.1091596,-0.4226819,1.318503,-0.08218773,0.08644072,1.310862,0.02706589,-0.4151087,1.285883,-0.1233889,-0.1758783,1.318968,0.3166602,-0.1755001,1.317085,NA,NA,NotTracked,NotTracked,
0.9316406,-0.3608398,0.07421875,0.953125,0.2670898,0.04492188,1,3,-1,1,-1,0,-1,-1,-1,0,-1,-1,-1,-2,0,0,2.375,2.375,2.375,-8.8125,-8.8125,-8.8125,2.649378,3.093738,8.813834,7.453979,2.983618,2.832006,-0.09574143,-0.4516169,1.234392,0.2773005,-0.4663039,1.21863,0.1014804,0.3747364,1.299276,-0.135046,-0.4612302,1.226868,0.2324459,-0.4527937,1.198334,0.1005166,-0.09784792,1.323288,0.1093825,-0.4226725,1.318539,-0.08253176,0.0861937,1.309882,0.02730459,-0.4151082,1.285819,-0.123289,-0.1758951,1.318957,0.3170762,-0.1756505,1.317606,NA,NA,NotTracked,NotTracked,
0.9291992,-0.324707,0.05957031,0.9458008,0.2954102,0.02636719,0,-2,-1,-1,0,-2,-1,-2,-1,-1,-1,0,-1,0,-2,-1,-0.5,-0.5,-0.5,3.0625,3.0625,3.0625,2.650616,3.092761,8.815484,7.452017,2.983886,2.835508,-0.09625745,-0.4528963,1.2345,0.2774342,-0.4690461,1.218917,0.1019903,0.3747599,1.299208,-0.1382357,-0.4493307,1.237077,0.2321922,-0.4535447,1.19769,0.1006898,-0.09783892,1.323292,0.1095525,-0.4227242,1.318559,-0.08260407,0.08608466,1.309466,0.02747206,-0.4151359,1.285797,-0.1231441,-0.1758219,1.318934,0.3174841,-0.1758857,1.31781,NA,NA,NotTracked,NotTracked,
0.9174805,-0.3295898,0.06347656,0.9360352,0.3154297,0.01464844,-2,-2,-1,0,0,-1,1,-1,0,-2,0,-1,-1,-1,-2,-1,-6.5625,-6.5625,-6.5625,-1.4375,-1.4375,-1.4375,2.649337,3.092734,8.813333,7.447233,2.98705,2.841033,-0.09510629,-0.4534301,1.233387,0.2771125,-0.4459327,1.222349,0.1024433,0.3748152,1.299194,-0.1346982,-0.4566469,1.226426,0.2250611,-0.4339362,1.193905,0.1009858,-0.09773307,1.323262,0.1096384,-0.4226642,1.318536,-0.0826306,0.08601808,1.30913,0.02758536,-0.4150863,1.285709,-0.1230169,-0.1759454,1.318771,0.3173889,-0.1757803,1.317921,NA,NA,NotTracked,NotTracked,
0.9003906,-0.3657227,0.05517578,0.9458008,0.2944336,0.01171875,-2,0,0,3,0,-2,0,0,-1,-2,-1,-1,0,-1,1,-2,-6.5,-6.5,-6.5,-4.625,-4.625,-4.625,2.643826,3.096721,8.810967,7.441525,2.988903,2.838671,-0.0950406,-0.4517741,1.231541,0.2774402,-0.4551443,1.218912,0.1029386,0.3748963,1.299085,-0.1362756,-0.4458773,1.231267,0.2291722,-0.4363107,1.196424,0.1010765,-0.09768254,1.323182,0.1096533,-0.4226328,1.318448,-0.08260467,0.08600874,1.308689,0.02759638,-0.4150284,1.285558,-0.1228138,-0.1760316,1.31851,0.3173299,-0.1756899,1.317958,NA,NA,NotTracked,NotTracked,
0.9277344,-0.3432617,0.04541016,0.9482422,0.2944336,0.01171875,3,-4,-1,-1,0,0,-1,0,-2,-1,-1,-2,-1,-1,-1,-1,1.6875,1.6875,1.6875,-2.9375,-2.9375,-2.9375,2.640113,3.099846,8.816647,7.442223,2.98904,2.836302,-0.09541072,-0.4522787,1.231033,0.2765324,-0.4621064,1.21759,0.1037492,0.3752883,1.299245,-0.1357775,-0.4539981,1.228175,0.2289739,-0.4399981,1.196152,0.1016579,-0.09764025,1.322995,0.110125,-0.4226838,1.318188,-0.08267973,0.08578248,1.307839,0.02807059,-0.4150501,1.285136,-0.1222246,-0.1769812,1.317651,0.3172867,-0.175618,1.317962,NA,NA,NotTracked,NotTracked,
0.9208984,-0.3466797,0.04931641,0.9526367,0.3032227,0.02099609,-2,1,-2,0,-1,0,0,-1,-1,-3,-2,-1,-1,-1,-1,-1,0.8125,0.8125,0.8125,-2.5625,-2.5625,-2.5625,2.637968,3.100203,8.820867,7.442584,2.989977,2.832884,-0.0958749,-0.4519153,1.2316,0.2778237,-0.46342,1.2171,0.1040764,0.3754232,1.299349,-0.1365863,-0.4534305,1.229289,0.2328822,-0.449422,1.197207,0.1017739,-0.09758529,1.322896,0.1101991,-0.422695,1.31804,-0.08262882,0.08578352,1.307453,0.02816985,-0.4150328,1.284811,-0.1220922,-0.1773541,1.317459,0.3174103,-0.1757429,1.317946,NA,NA,NotTracked,NotTracked,
0.9179688,-0.3476563,0.04589844,0.9438477,0.2983398,0.01953125,3,-1,-1,-2,-1,0,1,0,-2,-2,-1,-1,-2,-1,-1,0,0.125,0.125,0.125,-1.375,-1.375,-1.375,2.636127,3.100107,8.823074,7.440697,2.990299,2.830868,-0.09469794,-0.4528705,1.230595,0.2774267,-0.4634605,1.217017,0.1045306,0.3757106,1.299513,-0.1346264,-0.4657376,1.228824,0.2310507,-0.4462035,1.196077,0.1020027,-0.0975114,1.322714,0.1102526,-0.4226775,1.317865,-0.08267988,0.0857439,1.307355,0.02822119,-0.4149863,1.284609,-0.1218745,-0.177653,1.317189,0.3174048,-0.1757554,1.317961,NA,NA,NotTracked,NotTracked,
0.9111328,-0.3515625,0.05224609,0.940918,0.3046875,0.02392578,-1,0,-1,-2,-2,-1,-1,-2,0,-1,-1,-2,0,-1,0,-2,0.5625,0.5625,0.5625,-1.3125,-1.3125,-1.3125,2.635813,3.101361,8.825738,7.440547,2.990804,2.830187,-0.09575496,-0.4521034,1.231138,0.2776514,-0.4640015,1.217015,0.104965,0.3759776,1.299708,-0.1391095,-0.46022,1.234625,0.2328795,-0.4475896,1.197415,0.1021642,-0.09746778,1.322668,0.110279,-0.4226668,1.317794,-0.08266818,0.08571661,1.307182,0.02825017,-0.4149795,1.284525,-0.1218017,-0.1777204,1.317109,0.3173772,-0.1757006,1.317988,NA,NA,NotTracked,NotTracked,
0.9121094,-0.3564453,0.05615234,0.9448242,0.3032227,0.02539063,-1,0,-1,-1,-1,-1,1,0,-2,0,-2,-1,-2,-1,-2,-2,1.5625,1.5625,1.5625,-1.75,-1.75,-1.75,2.636139,3.101819,8.827449,7.437346,2.991144,2.83116,-0.09374067,-0.4527195,1.229901,0.2878468,-0.4537991,1.217909,0.1053811,0.376198,1.299929,-0.1343704,-0.4618057,1.228069,0.2553845,-0.4264219,1.207552,0.1022398,-0.09743443,1.322629,0.1103179,-0.4226781,1.317693,-0.08267438,0.08570679,1.307167,0.02830402,-0.4149748,1.284361,-0.1216986,-0.177878,1.316823,0.3173263,-0.1755804,1.318024,NA,NA,NotTracked,NotTracked,
0.9155273,-0.3520508,0.05957031,0.9306641,0.3022461,0.02148438,-1,0,-1,-2,-1,-1,-1,-1,-1,-1,-1,-1,-1,-1,0,0,1.4375,1.4375,1.4375,-0.8125,-0.8125,-0.8125,2.638325,3.101665,8.828459,7.433939,2.991816,2.833041,-0.09506399,-0.4519794,1.22995,0.2778005,-0.4618511,1.216722,0.1058195,0.3765093,1.300104,-0.135839,-0.4538818,1.221097,0.2333267,-0.4445785,1.1973,0.1025318,-0.09732294,1.322464,0.1105097,-0.4226896,1.317459,-0.08264066,0.08565841,1.306878,0.02851091,-0.4150124,1.284019,-0.1213614,-0.178649,1.316238,0.3175836,-0.1758289,1.318072,NA,NA,NotTracked,NotTracked,
0.9091797,-0.355957,0.05957031,0.9365234,0.2978516,0.01904297,-1,-1,-3,-2,0,0,-1,-1,-1,-2,0,-1,-2,-1,-2,-1,-0.5,-0.5,-0.5,-0.375,-0.375,-0.375,2.63791,3.101721,8.829484,7.432471,2.992095,2.834374,-0.09521978,-0.4527622,1.229191,0.2775126,-0.4652733,1.214918,0.1059177,0.3765643,1.300121,-0.1377159,-0.4476258,1.234429,0.2339475,-0.45013,1.195793,0.1027033,-0.09728193,1.322274,0.1106301,-0.4227014,1.317156,-0.08252534,0.08555846,1.306468,0.02864742,-0.414986,1.283648,-0.1211291,-0.1788506,1.315897,0.3175217,-0.1756324,1.317984,NA,NA,NotTracked,NotTracked,
0.9106445,-0.3583984,0.05273438,0.9423828,0.2924805,0.02099609,-2,-5,0,0,0,-2,0,1,0,1,0,-1,-1,-1,0,-1,0.5625,0.5625,0.5625,-0.3125,-0.3125,-0.3125,2.635918,3.102644,8.832687,7.431368,2.992517,2.835339,-0.09572811,-0.4517834,1.229044,0.2770367,-0.4668085,1.213428,0.1060465,0.3766549,1.300113,-0.1440621,-0.4557256,1.242,0.2333669,-0.4521282,1.194893,0.1028006,-0.09721828,1.32209,0.110683,-0.4227183,1.316813,-0.08240241,0.08549727,1.306128,0.0286785,-0.4149756,1.283384,-0.1209715,-0.1787613,1.315507,0.3175359,-0.1755801,1.317937,NA,NA,NotTracked,NotTracked,
0.9116211,-0.3496094,0.05078125,0.9526367,0.2983398,0.01513672,-3,-2,-1,0,0,0,-1,0,-3,-2,-1,-2,-1,-2,-1,-1,1.875,1.875,1.875,-3.6875,-3.6875,-3.6875,2.635613,3.10273,8.834535,7.426631,2.992242,2.835468,-0.09526252,-0.4525052,1.229455,0.2774298,-0.4661944,1.214368,0.1061407,0.376745,1.300184,-0.1357274,-0.4593155,1.227998,0.2339396,-0.4529194,1.195552,0.1028828,-0.09720683,1.321998,0.110754,-0.4227597,1.316593,-0.08238906,0.0854551,1.306106,0.0287388,-0.4150013,1.283109,-0.1209043,-0.1787706,1.315472,0.3174984,-0.1755403,1.31793,NA,NA,NotTracked,NotTracked,
0.9194336,-0.355957,0.05517578,0.940918,0.3056641,0.01220703,0,1,0,0,-1,-2,-1,1,-1,-1,0,-1,0,-1,1,1,3.8125,3.8125,3.8125,-1.6875,-1.6875,-1.6875,2.635548,3.103405,8.839355,7.425993,2.991385,2.833447,-0.09513381,-0.4525182,1.228839,0.278331,-0.4629399,1.214611,0.1061786,0.3768075,1.300214,-0.1360551,-0.4462261,1.222,0.2354873,-0.4413391,1.197342,0.1029964,-0.09714525,1.321882,0.1108106,-0.4227176,1.316346,-0.08239991,0.08544381,1.306092,0.02879464,-0.4149803,1.282807,-0.120848,-0.1786413,1.315427,0.3174847,-0.1754797,1.317883,NA,NA,NotTracked,NotTracked,
0.9130859,-0.3618164,0.05175781,0.9370117,0.3056641,0.008789063,-1,-1,-2,0,-1,-1,2,1,-1,0,0,0,-1,-1,-2,-2,4,4,4,0.25,0.25,0.25,2.636011,3.103917,8.848071,7.42883,2.991365,2.83075,-0.09518275,-0.4525085,1.229408,0.2776363,-0.4663666,1.214254,0.1062252,0.3770121,1.300279,-0.1345054,-0.4527716,1.221657,0.2347849,-0.4499894,1.196042,0.1032352,-0.09704582,1.321645,0.1110201,-0.4227486,1.316039,-0.08236443,0.08534779,1.306004,0.02898904,-0.4150472,1.282489,-0.1206625,-0.1791583,1.315055,0.3174491,-0.1754045,1.317845,NA,NA,NotTracked,NotTracked,
0.9121094,-0.3691406,0.04394531,0.9438477,0.3164063,0.02636719,0,-1,-1,-3,0,0,-1,0,-2,-2,-1,-1,-2,-2,-1,-2,5.125,5.125,5.125,0.0625,0.0625,0.0625,2.634746,3.105772,8.855462,7.42908,2.991503,2.830503,-0.0954844,-0.4531004,1.228051,0.277484,-0.4653112,1.213226,0.1062151,0.3770889,1.300285,-0.1370397,-0.4497558,1.226282,0.2358152,-0.4462683,1.196732,0.1033107,-0.09697604,1.321525,0.111026,-0.4227742,1.315728,-0.08239774,0.08526175,1.305929,0.02898715,-0.415045,1.28219,-0.1206442,-0.1792642,1.314983,0.3174807,-0.1753864,1.317752,NA,NA,NotTracked,NotTracked,
0.918457,-0.3613281,0.05273438,0.9438477,0.3076172,0.03320313,0,1,-2,1,-2,0,1,1,-1,-1,0,-2,-1,-1,-2,-2,4.5625,4.5625,4.5625,-0.6875,-0.6875,-0.6875,2.634701,3.107862,8.862126,7.427328,2.991601,2.831417,-0.0953122,-0.4526725,1.227373,0.2876989,-0.4563713,1.215344,0.1061901,0.3773006,1.300359,-0.1329801,-0.4582861,1.21744,0.2608162,-0.4515282,1.19184,0.1033921,-0.0969179,1.321463,0.1111309,-0.4227991,1.315606,-0.08244117,0.08515278,1.305951,0.02908658,-0.4150915,1.282071,-0.1206013,-0.1794202,1.314903,0.3178694,-0.1757958,1.31764,NA,NA,NotTracked,NotTracked,
0.9125977,-0.3647461,0.05419922,0.940918,0.3076172,0.02832031,-1,1,-2,-2,-1,-1,-1,-1,-2,-2,-2,-1,-3,-2,-1,1,2.1875,2.1875,2.1875,-0.6875,-0.6875,-0.6875,2.633946,3.10809,8.867115,7.425843,2.991774,2.832905,-0.09640351,-0.4526694,1.227774,0.2789505,-0.4636483,1.213933,0.1060462,0.3777862,1.300509,-0.1357684,-0.4550432,1.223721,0.2365218,-0.4481249,1.196334,0.1034197,-0.096857,1.321349,0.111097,-0.4228676,1.315409,-0.08240556,0.08508596,1.305931,0.02906099,-0.4151174,1.281943,-0.1205953,-0.1793803,1.31486,0.3178653,-0.1757949,1.317623,NA,NA,NotTracked,NotTracked,
0.9067383,-0.3642578,0.05859375,0.9428711,0.3032227,0.02099609,4,0,-1,1,-2,0,-1,-2,0,-1,-2,0,0,-2,1,-1,1.4375,1.4375,1.4375,-1.8125,-1.8125,-1.8125,2.633504,3.107758,8.868916,7.422778,2.992884,2.834033,-0.09653492,-0.45285,1.227554,0.2791923,-0.463311,1.214053,0.105986,0.3782997,1.300696,-0.1364442,-0.4557173,1.225693,0.2365943,-0.4448456,1.197179,0.103448,-0.09667828,1.321211,0.1110829,-0.4228555,1.315126,-0.08241279,0.08502217,1.305912,0.02903066,-0.4150951,1.281658,-0.1205704,-0.1794998,1.314728,0.3180489,-0.1760222,1.317471,NA,NA,NotTracked,NotTracked,
0.9072266,-0.3652344,0.06347656,0.9379883,0.2910156,0.01416016,-3,-1,-2,-4,0,1,-1,1,-1,-2,0,-1,-1,-1,-1,-2,-0.4375,-0.4375,-0.4375,-3.125,-3.125,-3.125,2.634102,3.107731,8.869559,7.41971,2.994047,2.834323,-0.09547658,-0.4552444,1.227273,0.2784482,-0.4640267,1.213288,0.1056933,0.3795828,1.301432,-0.1416651,-0.4602346,1.228773,0.2383032,-0.445483,1.195499,0.1034533,-0.09634356,1.321032,0.1109661,-0.4228558,1.314833,-0.07994401,0.08545559,1.311007,0.02891775,-0.4150281,1.28141,-0.1205573,-0.1794481,1.314668,0.3180124,-0.1758529,1.31741,NA,NA,NotTracked,NotTracked,
0.9135742,-0.3774414,0.05615234,0.9536133,0.3007813,0.01904297,-2,1,-1,-1,-1,0,-1,0,-1,-1,0,-1,0,-2,-2,-3,-1.0625,-1.0625,-1.0625,-2.1875,-2.1875,-2.1875,2.635442,3.109017,8.867424,7.420538,2.994279,2.830293,-0.09531447,-0.453535,1.226878,0.2784656,-0.4633892,1.212451,0.1055853,0.3799503,1.301706,-0.1211466,-0.4694294,1.196762,0.23835,-0.4451783,1.194986,0.103492,-0.09621434,1.32087,0.1110096,-0.4228971,1.314673,-0.08052777,0.08511031,1.310204,0.02894327,-0.4150691,1.281293,-0.1205569,-0.1795746,1.314614,0.3181618,-0.1761017,1.317277,NA,NA,NotTracked,NotTracked,
0.9145508,-0.3681641,0.05175781,0.9492188,0.3144531,0.01269531,-2,0,0,0,0,-2,-1,-2,-3,0,-2,-2,-1,-1,-2,-1,-1.125,-1.125,-1.125,-2.375,-2.375,-2.375,2.635354,3.109786,8.867224,7.42521,2.994624,2.823115,-0.09541613,-0.4543183,1.225822,0.2783541,-0.4643562,1.21237,0.1055442,0.3803213,1.301944,-0.1354469,-0.4469772,1.217191,0.2356135,-0.4443565,1.193741,0.1034809,-0.09606485,1.320794,0.1110289,-0.422915,1.314543,-0.08086388,0.08491527,1.309806,0.02895645,-0.4150798,1.281147,-0.1204258,-0.1799138,1.314335,0.3183345,-0.1764184,1.317142,NA,NA,NotTracked,NotTracked,
0.9140625,-0.3608398,0.04931641,0.9487305,0.3081055,0.02197266,1,3,1,-1,-1,-1,-3,-1,-1,-1,0,1,-1,-1,-1,-1,-2.4375,-2.4375,-2.4375,-3.6875,-3.6875,-3.6875,2.632985,3.111674,8.867946,7.427123,2.995341,2.817302,-0.09659694,-0.4524406,1.226217,0.2784485,-0.4632286,1.212202,0.1055178,0.3807293,1.302281,-0.1338862,-0.4573475,1.214721,0.2335041,-0.4360994,1.192389,0.1034968,-0.09594014,1.320678,0.1110342,-0.4229941,1.314359,-0.08096778,0.08478822,1.309395,0.028959,-0.4151168,1.281017,-0.1203023,-0.1801492,1.314116,0.3184012,-0.1765048,1.317071,NA,NA,NotTracked,NotTracked,
0.9091797,-0.3681641,0.05029297,0.9394531,0.2983398,0.02783203,-2,-2,-2,-1,-1,-2,0,-1,-2,0,-1,-1,0,-1,-2,-2,-0.75,-0.75,-0.75,-2.9375,-2.9375,-2.9375,2.630994,3.113048,8.868487,7.426445,2.995558,2.814218,-0.09511737,-0.4546134,1.225413,0.2790257,-0.4635671,1.212236,0.1055436,0.3811267,1.302704,-0.1362235,-0.4546372,1.222867,0.2377682,-0.4433556,1.194339,0.103501,-0.09579407,1.320502,0.1110348,-0.4230275,1.314148,-0.08104967,0.08469934,1.309189,0.0289536,-0.4151512,1.280897,-0.120204,-0.1802147,1.31386,0.3183236,-0.1764825,1.317013,NA,NA,NotTracked,NotTracked,
0.909668,-0.3579102,0.05810547,0.9423828,0.296875,0.03027344,-1,-3,-1,-1,1,0,-1,-2,0,-2,0,-2,-1,0,0,0,1.25,1.25,1.25,-2.4375,-2.4375,-2.4375,2.632642,3.113056,8.868676,7.426081,2.995508,2.812909,-0.09441,-0.4547868,1.224993,0.2795556,-0.4610111,1.213472,0.1055519,0.3816697,1.303198,-0.1274209,-0.4834776,1.201583,0.2334991,-0.4286644,1.193765,0.1034747,-0.09557564,1.320325,0.1109785,-0.4230969,1.313889,-0.0813405,0.08425503,1.308266,0.02889083,-0.4151963,1.28063,-0.1199472,-0.1804584,1.313479,0.3183496,-0.1767952,1.3169,NA,NA,NotTracked,NotTracked,
0.921875,-0.3583984,0.05957031,0.9360352,0.2890625,0.02783203,0,1,-1,-2,-1,0,0,0,-1,-1,-2,-3,-1,1,-1,-2,-0.4375,-0.4375,-0.4375,-3.75,-3.75,-3.75,2.634304,3.111595,8.867887,7.422942,2.993879,2.809334,-0.09495181,-0.4543326,1.225623,0.279292,-0.4612454,1.213649,0.1054999,0.3820909,1.303715,-0.1400075,-0.4553107,1.229572,0.2338832,-0.4297977,1.193737,0.1035593,-0.09543853,1.320247,0.1110817,-0.423116,1.313791,-0.08143264,0.08418395,1.308078,0.0289859,-0.4152123,1.280522,-0.1199202,-0.1802569,1.313357,0.3184253,-0.1768908,1.316891,NA,NA,NotTracked,NotTracked,
0.921875,-0.3583984,0.05957031,0.9453125,0.3144531,0.02099609,0,-3,-2,0,-1,-1,-1,-1,0,-1,-2,-3,-1,0,-1,1,-0.4375,-0.4375,-0.4375,-3.125,-3.125,-3.125,2.634304,3.111595,8.867887,7.425552,2.993947,2.802821,-0.09426075,-0.4527217,1.225263,0.2788907,-0.4589533,1.214085,0.1055349,0.3825103,1.304311,-0.1354202,-0.4611906,1.220966,0.2355345,-0.4329659,1.194857,0.1035722,-0.09523778,1.32022,0.111185,-0.4230787,1.313677,-0.08149083,0.08412831,1.307921,0.02910081,-0.4151737,1.28039,-0.1198491,-0.180372,1.313261,0.3185448,-0.1769774,1.31688,NA,NA,NotTracked,NotTracked,
0.90625,-0.3632813,0.04736328,0.9399414,0.3125,0.02587891,-2,1,-3,-1,-3,0,0,-1,-2,-2,-1,-2,-2,-3,-2,-1,-1.6875,-1.6875,-1.6875,-4.1875,-4.1875,-4.1875,2.637511,3.109843,8.863184,7.426063,2.99426,2.797714,-0.09474305,-0.454217,1.22508,0.2790639,-0.4633902,1.212561,0.1054711,0.382831,1.304697,-0.1354578,-0.4593071,1.221711,0.2352668,-0.4371796,1.19374,0.1036193,-0.0951181,1.320093,0.111226,-0.4231218,1.313541,-0.08157799,0.08401614,1.307504,0.02914418,-0.4152031,1.280285,-0.1197865,-0.1804016,1.313002,0.3186121,-0.1770842,1.316872,NA,NA,NotTracked,NotTracked,
0.9189453,-0.3569336,0.05126953,0.9448242,0.3095703,0.02539063,0,-4,-1,-1,0,-1,0,1,-2,-1,-1,-2,-1,-1,0,0,-3.75,-3.75,-3.75,-4.3125,-4.3125,-4.3125,2.637867,3.107542,8.859699,7.426651,2.99485,2.792114,-0.09426447,-0.4535689,1.225495,0.2790073,-0.4629723,1.213376,0.1054708,0.3829278,1.304899,-0.1320587,-0.4693843,1.2125,0.2356764,-0.4365441,1.194184,0.1036365,-0.09501263,1.319995,0.1112342,-0.4231493,1.313361,-0.08155115,0.08384609,1.307145,0.0291312,-0.4152198,1.280079,-0.1196853,-0.1805385,1.312746,0.3185847,-0.1770134,1.316866,NA,NA,NotTracked,NotTracked,
0.9208984,-0.3603516,0.05273438,0.940918,0.3056641,0.03564453,0,0,-1,0,-1,1,0,0,-1,-2,-1,0,-1,0,0,-1,-4.8125,-4.8125,-4.8125,-3.5,-3.5,-3.5,2.636657,3.106084,8.858377,7.425208,2.994914,2.789098,-0.09351008,-0.4528505,1.225291,0.2800855,-0.4634156,1.213104,0.1054016,0.3831977,1.305279,-0.1313815,-0.4608887,1.214525,0.236852,-0.4416929,1.194768,0.1037473,-0.09484871,1.319717,0.1114911,-0.4232296,1.313088,-0.08166198,0.08346561,1.306413,0.02937374,-0.4153413,1.27978,-0.1194827,-0.1811757,1.312091,0.3187095,-0.1772752,1.316778,NA,NA,NotTracked,NotTracked,
0.918457,-0.3608398,0.05175781,0.9477539,0.3100586,0.03320313,-3,-2,-1,0,0,-1,-1,0,-1,-1,-2,-1,-1,-2,0,-3,-4.625,-4.625,-4.625,-2.5625,-2.5625,-2.5625,2.632706,3.102916,8.854853,7.424163,2.994308,2.786376,-0.09384163,-0.4535706,1.22552,0.2794559,-0.463122,1.213323,0.1053473,0.3833261,1.305434,-0.1346772,-0.4590676,1.224357,0.2355283,-0.4368745,1.193939,0.1037681,-0.09472746,1.319591,0.1115442,-0.4232184,1.313001,-0.08173909,0.08337789,1.306214,0.0294302,-0.4153472,1.279681,-0.1194987,-0.1811436,1.311974,0.318825,-0.1774153,1.316774,NA,NA,NotTracked,NotTracked,
