ALX,ALY,ALZ,ARX,ARY,ARZ,EMG0L,EMG1L,EMG2L,EMG3L,EMG4L,EMG5L,EMG6L,EMG7L,EMG0R,EMG1R,EMG2R,EMG3R,EMG4R,EMG5R,EMG6R,EMG7R,GLX,GLY,GLZ,GRX,GRY,GRZ,ORL,OPL,OYL,ORR,OPR,OYR,LHNX,LHNY,LHNZ,RHNX,RHNY,RHNZ,HX,HY,HZ,LTX,LTY,LTZ,RTX,RTY,RTZ,SpineMidX,SpineMidY,SpineMidZ,SpineBaseX,SpineBaseY,SpineBaseZ,ShoulderLeftX,ShoulderLeftY,ShoulderLeftZ,ShoulderRightX,ShoulderRightY,ShoulderRightZ,ElbowLeftX,ElbowLeftY,ElbowLeftZ,ElbowRightX,ElbowRightY,ElbowRightZ,Myo_Pose_left,Myo_Pose_Right,Kinect_pose_left,Kinect_pose_right
0.2646484,1.050293,0.1303711,-0.02197266,-0.7866211,0.4716797,0,-3,-3,-1,2,1,-1,0,-1,-2,0,-3,0,3,0,0,7.5,7.5,7.5,-15.0625,-15.0625,-15.0625,7.410923,4.686871,1.701607,3.298458,5.194099,2.498694,0.1628325,-0.05114798,1.325033,0.4247513,-0.1673888,1.305526,0.2621132,0.3570199,1.647857,0.1517645,-0.03883499,1.28671,0.4303745,-0.1413207,1.273061,0.2458386,-0.09233938,1.665861,0.2405518,-0.4048452,1.653426,0.07718494,0.09503359,1.665392,0.1600337,-0.3976161,1.626437,-0.04043411,-0.1057778,1.585003,0.4964394,-0.1122058,1.619313,NA,NA,Unknown,Unknown,
0.1015625,1.073242,0.1191406,-0.07080078,-0.8081055,0.4550781,2,-1,-3,0,0,1,-2,-1,-1,-1,0,-2,-1,-4,-2,-1,12.5625,12.5625,12.5625,-11.0625,-11.0625,-11.0625,7.417091,4.887313,1.740824,3.281007,5.244874,2.459622,0.1690956,-0.03768533,1.323928,0.4212381,-0.1279944,1.29303,0.2616432,0.3565559,1.649923,0.159029,-0.03773545,1.283755,0.4041262,-0.0952727,1.313923,0.2451107,-0.09214749,1.666321,0.2400782,-0.4045235,1.653121,0.0769003,0.09547275,1.665037,0.1595326,-0.3970786,1.625655,-0.04003116,-0.1047789,1.575582,0.4994366,-0.1089809,1.606696,NA,NA,Unknown,Closed,
0.06152344,1.085449,0.1367188,-0.109375,-0.8032227,0.4360352,-10,-7,-4,-2,1,-2,-3,0,1,0,-1,-2,-6,-5,4,-1,13.375,13.375,13.375,-9.25,-9.25,-9.25,7.422925,4.987749,1.761149,3.265339,5.27973,2.424076,0.1726863,-0.02666702,1.322936,0.4153909,-0.09114812,1.274321,0.2612673,0.3565362,1.651534,0.1782717,-0.0650911,1.291368,0.4003226,-0.05961537,1.264571,0.2447506,-0.09198786,1.666417,0.2394325,-0.4040765,1.65259,0.07633213,0.09590657,1.664538,0.1589733,-0.3965217,1.624788,-0.04007144,-0.1047274,1.57477,0.4912949,-0.1127654,1.610807,NA,NA,Unknown,Closed,
-0.1103516,1.035645,0.1118164,-0.1259766,-0.8017578,0.4370117,0,3,1,-2,-2,-1,-9,-2,-2,-2,-2,-2,-1,-4,-8,-5,8.9375,8.9375,8.9375,-10.1875,-10.1875,-10.1875,7.442511,5.283798,1.833032,3.257896,5.292051,2.408859,0.1819745,-0.01300957,1.322514,0.4063997,-0.008365276,1.274364,0.2606232,0.355949,1.655494,0.1886327,-0.05138995,1.289576,0.3697287,0.003408194,1.277933,0.2440768,-0.09184679,1.66683,0.2387197,-0.4036268,1.651871,0.07415488,0.0962804,1.662139,0.158425,-0.3961657,1.62388,-0.03754208,-0.1035475,1.563646,0.5077779,-0.1345575,1.543967,NA,NA,Unknown,Unknown,
-0.2915039,1.02002,0.1142578,-0.1401367,-0.8505859,0.4301758,1,1,2,1,-1,-1,-2,0,-2,-2,-2,-1,-1,-1,0,-2,10.6875,10.6875,10.6875,-10.5625,-10.5625,-10.5625,7.485514,5.569505,1.921801,3.232857,5.312663,2.374094,0.1861601,-0.008789429,1.320774,0.3964022,0.03292966,1.272142,0.2605029,0.3557954,1.656702,0.1930834,-0.04672178,1.289909,0.4011911,0.06355685,1.2785,0.2439017,-0.0918276,1.666795,0.2382186,-0.4035121,1.651129,0.07406286,0.09663826,1.661867,0.1579773,-0.396046,1.622743,-0.03499255,-0.1022,1.552343,0.511107,-0.1208782,1.526722,NA,NA,Unknown,Unknown,
-0.2915039,1.02002,0.1142578,-0.1401367,-0.8505859,0.4301758,1,1,2,1,-1,-1,-2,0,-2,-2,-2,-1,-1,-1,0,-2,10.6875,10.6875,10.6875,-10.5625,-10.5625,-10.5625,7.485514,5.569505,1.921801,3.232857,5.312663,2.374094,0.1885337,-0.005478872,1.321343,0.3869993,0.07454013,1.275191,0.2604161,0.3558963,1.658316,0.1943906,-0.04337045,1.287537,0.39126,0.1077149,1.275533,0.2437167,-0.09179824,1.666805,0.237737,-0.4034034,1.650618,0.07432825,0.09738173,1.661785,0.1575651,-0.3959182,1.622102,0.001805759,-0.080778,1.536191,0.5130965,-0.1116423,1.519795,NA,NA,Open,Unknown,
-0.4082031,0.9145508,0.07324219,-0.1557617,-0.8603516,0.4106445,-3,1,1,-1,-2,-4,-1,2,-1,0,0,-2,0,-2,0,-3,4.1875,4.1875,4.1875,-3.875,-3.875,-3.875,7.535052,5.838492,2.020716,3.223571,5.315556,2.354223,0.1913517,-0.004669342,1.320556,0.3783527,0.1130962,1.279595,0.2602598,0.3561331,1.659169,0.1863637,-0.004228611,1.278671,0.3959592,0.1480521,1.2894,0.2435952,-0.09177642,1.666772,0.2372524,-0.4034081,1.649903,0.07442575,0.09799965,1.661611,0.157079,-0.3958256,1.620832,0.002046173,-0.08041038,1.535897,0.5117139,-0.09083615,1.50323,NA,NA,Open,Closed,
-0.4086914,0.8564453,0.06591797,-0.1640625,-0.8911133,0.4101563,4,5,0,0,-1,1,2,4,-1,-1,-1,1,-1,-2,-5,-1,-1.75,-1.75,-1.75,-3.625,-3.625,-3.625,7.573135,6.005612,2.094987,3.206943,5.308926,2.328121,0.1946757,-0.004256234,1.320264,0.3716574,0.1469165,1.290689,0.2601312,0.3563591,1.659929,0.2365408,-0.03743453,1.353333,0.3310353,0.1546007,1.311615,0.2435442,-0.09170641,1.666788,0.237122,-0.4031798,1.649499,0.07466425,0.09852488,1.661463,0.1569878,-0.3956086,1.620403,0.00257579,-0.0792298,1.535952,0.5126423,-0.08301966,1.499652,NA,NA,Open,Closed,
-0.4370117,0.7944336,0.04980469,-0.1621094,-0.8935547,0.4106445,4,9,2,-1,0,-1,-4,1,0,0,-1,-2,-3,0,-1,-3,-0.875,-0.875,-0.875,-0.6875,-0.6875,-0.6875,7.596584,6.087067,2.135053,3.205551,5.30542,2.324227,0.1958394,-0.004568595,1.320178,0.3642458,0.1793372,1.302819,0.2600178,0.3568899,1.661068,0.2434195,-0.0231137,1.3654,0.3284076,0.1927141,1.34075,0.2434985,-0.09157179,1.666766,0.2371187,-0.4027702,1.649013,0.07400779,0.09816743,1.660012,0.1569637,-0.3952633,1.619831,0.00273885,-0.07893071,1.535713,0.5116346,-0.06541509,1.484221,NA,NA,Open,Closed,
-0.4370117,0.7944336,0.04980469,-0.1757813,-0.8916016,0.4086914,-5,-3,-1,-3,-1,-2,-1,-2,-3,-2,-1,-1,-4,-5,1,-1,-0.875,-0.875,-0.875,0.75,0.75,0.75,7.596584,6.087067,2.135053,3.204023,5.297611,2.316779,0.1976265,-0.00650687,1.319297,0.3613523,0.2029823,1.31622,0.2598219,0.3568214,1.66183,0.2409609,-0.04100156,1.349875,0.3211876,0.2255784,1.326571,0.2434174,-0.09151442,1.666706,0.2370975,-0.4024726,1.648322,0.0734612,0.0977563,1.658721,0.1569736,-0.3950146,1.619034,0.003244862,-0.07731725,1.536789,0.5066687,-0.04955922,1.471183,NA,NA,Unknown,Closed,
-0.5224609,0.6235352,-0.02441406,-0.1821289,-0.9038086,0.4189453,1,3,3,-1,1,0,0,-1,-2,-2,-1,-1,-4,-6,1,-4,-7.125,-7.125,-7.125,1.3125,1.3125,1.3125,7.680213,6.302893,2.271907,3.204011,5.290749,2.313101,0.198868,-0.00774416,1.319143,0.3538035,0.2279642,1.325461,0.2595219,0.3568977,1.662362,0.2088671,-0.04671331,1.289357,0.3205508,0.2290645,1.359714,0.2433603,-0.09144682,1.666582,0.237044,-0.4021389,1.647531,0.07313629,0.09748228,1.658057,0.1568998,-0.3946662,1.618359,0.002914242,-0.07723384,1.536865,0.4996631,-0.03427381,1.461811,NA,NA,Unknown,Unknown,
-0.5302734,0.5292969,-0.04931641,-0.1845703,-0.9233398,0.4130859,8,6,3,1,-1,1,-1,4,0,-1,-2,-3,-1,8,-1,-1,-8.125,-8.125,-8.125,3.375,3.375,3.375,7.739008,6.417208,2.362693,3.205476,5.284159,2.312243,0.1993562,-0.009819251,1.318865,0.3497242,0.2454928,1.334845,0.2593534,0.356743,1.662423,0.2435018,-0.04511869,1.3412,0.3473601,0.2196009,1.4108,0.2431526,-0.09140441,1.666351,0.236776,-0.4018421,1.646749,0.07311921,0.09737395,1.657519,0.1565742,-0.3945224,1.61752,0.002722985,-0.07755278,1.536773,0.4960983,-0.02681653,1.457225,NA,NA,Unknown,Unknown,
-0.5673828,0.4926758,-0.08154297,-0.1967773,-0.9199219,0.4296875,4,-1,1,1,0,-2,2,2,0,-1,-2,-1,-3,2,3,-1,-8.1875,-8.1875,-8.1875,4.6875,4.6875,4.6875,7.768984,6.463431,2.406719,3.209126,5.279873,2.311293,0.1999341,-0.01449696,1.317967,0.3390245,0.2732874,1.351578,0.2585948,0.3560529,1.662473,0.2098109,-0.05083991,1.285251,0.3275452,0.2548306,1.415875,0.2428214,-0.09124793,1.665614,0.2365219,-0.4010202,1.644632,0.07395371,0.09734785,1.655927,0.156414,-0.3939418,1.61567,0.002304053,-0.07849957,1.537485,0.4858712,-0.007255964,1.442808,NA,NA,Unknown,Unknown,
-0.6484375,0.4458008,-0.07910156,-0.2128906,-0.9140625,0.4428711,-3,-4,-2,-2,0,2,4,-1,2,-1,-1,-1,-4,-7,-1,0,-17.9375,-17.9375,-17.9375,5.1875,5.1875,5.1875,7.852002,6.605304,2.568713,3.224473,5.278495,2.309524,0.2002606,-0.01505956,1.316907,0.3325258,0.2759788,1.350571,0.2577937,0.3557646,1.661729,0.2099179,-0.0515772,1.285041,0.334233,0.2504389,1.445,0.2427285,-0.09099569,1.664957,0.2365452,-0.4004317,1.643532,0.07520127,0.09747826,1.654626,0.1564529,-0.393545,1.614635,0.002221928,-0.07872707,1.537668,0.482128,-0.003208515,1.437801,NA,NA,Unknown,Unknown,
-0.6484375,0.4458008,-0.07910156,-0.203125,-0.9208984,0.4482422,-3,-4,1,2,0,0,11,4,0,-1,0,-2,-2,4,-1,3,-17.9375,-17.9375,-17.9375,4.875,4.875,4.875,7.852002,6.605304,2.568713,3.227043,5.279628,2.309003,0.2004695,-0.01506742,1.316045,0.3280359,0.2729141,1.347028,0.2568561,0.3554391,1.660789,0.2109063,-0.05203208,1.284535,0.3209135,0.2533746,1.411667,0.242755,-0.09079669,1.664524,0.2366126,-0.3999989,1.642885,0.07569205,0.09752953,1.654061,0.1564278,-0.3931729,1.614061,-0.01171152,-0.07785558,1.538147,0.4802044,-0.002744985,1.437279,NA,NA,Unknown,Unknown,
-0.6025391,0.4414063,-0.08251953,-0.1918945,-0.9174805,0.4560547,2,2,0,-1,-1,-2,-1,-1,1,1,-4,1,2,-2,2,0,-26.875,-26.875,-26.875,5.625,5.625,5.625,7.823519,6.597816,2.58675,3.233206,5.284113,2.307859,0.2009209,-0.01514013,1.315503,0.3229525,0.2648913,1.344321,0.2559114,0.3550023,1.659933,0.2107449,-0.04980127,1.282464,0.3139015,0.245808,1.401111,0.2427195,-0.09070419,1.664182,0.2366693,-0.3997898,1.642413,0.07612637,0.09747881,1.653443,0.1563969,-0.3929469,1.613518,-0.01482572,-0.07772586,1.538494,0.4786825,-0.003932545,1.435712,NA,NA,Unknown,Closed,
-0.6020508,0.512207,-0.05419922,-0.1962891,-0.918457,0.4350586,-4,-3,0,1,-2,-2,2,7,0,-2,0,-1,-2,0,-1,-1,-24.125,-24.125,-24.125,9.3125,9.3125,9.3125,7.802511,6.549141,2.609357,3.240916,5.28977,2.30615,0.201634,-0.01446885,1.315557,0.3173934,0.254197,1.343389,0.2548013,0.3545033,1.659005,0.1961969,-0.01263812,1.274505,0.2774507,0.2786174,1.380333,0.2427273,-0.09060464,1.663916,0.2367414,-0.399526,1.64198,0.07635042,0.09745839,1.653004,0.1563525,-0.3926329,1.613021,-0.01574902,-0.07754333,1.538981,0.4763767,-0.008620973,1.436634,NA,NA,Open,Closed,
-0.6811523,0.5444336,-0.06982422,-0.1918945,-0.9125977,0.4570313,5,3,-1,0,-2,-3,-10,-6,0,-1,0,1,2,5,6,2,-28.8125,-28.8125,-28.8125,14.125,14.125,14.125,7.787381,6.493896,2.62885,3.253429,5.296445,2.302808,0.2009164,-0.0123192,1.314454,0.3133477,0.2359216,1.341009,0.2535544,0.3543319,1.657827,0.2126676,-0.04989722,1.280857,0.28833,0.2238076,1.377267,0.242736,-0.09051245,1.663536,0.2366314,-0.3992633,1.641432,0.07859531,0.09789577,1.652013,0.1561425,-0.3923588,1.612577,-0.00310929,-0.07465007,1.533983,0.4800093,-0.02306433,1.440563,NA,NA,Open,Unknown,
-0.6054688,0.5478516,-0.02587891,-0.2036133,-0.9106445,0.4663086,-3,-1,-1,-1,0,3,1,1,0,-2,0,0,0,2,-1,-1,-36.25,-36.25,-36.25,16.875,16.875,16.875,7.768341,6.455469,2.63167,3.270424,5.303603,2.298871,0.1999514,-0.01083527,1.314991,0.3061925,0.218338,1.338248,0.2520308,0.3542881,1.656499,0.2142614,-0.04980059,1.28378,0.2709529,0.2200215,1.3728,0.2428705,-0.09042734,1.662852,0.2365541,-0.3990383,1.64064,0.07964391,0.09809129,1.651303,0.1559909,-0.392197,1.612134,0.002740565,-0.07362928,1.529776,0.4798757,-0.02919051,1.442525,NA,NA,Open,Unknown,
-0.6054688,0.5478516,-0.02587891,-0.2119141,-0.8989258,0.4628906,-3,-1,-3,-1,-2,0,2,3,-1,-1,-2,-3,-4,-2,-4,-1,-36.25,-36.25,-36.25,14.5,14.5,14.5,7.768341,6.455469,2.63167,3.285815,5.314506,2.297707,0.20015,-0.008888756,1.315216,0.3041352,0.1898313,1.336773,0.2510481,0.3542822,1.655427,0.1996466,-0.01308494,1.270889,0.2647965,0.1890193,1.349192,0.242803,-0.0903482,1.66201,0.2363764,-0.3990761,1.63986,0.07810604,0.09771237,1.650805,0.1558167,-0.3922188,1.611931,0.003029526,-0.07454189,1.528863,0.4881054,-0.05419786,1.456882,NA,NA,Open,Closed,
-0.6054688,0.5478516,-0.02587891,-0.2197266,-0.8955078,0.4648438,-4,-2,-4,-4,0,1,-4,-8,0,0,-2,-2,-2,-7,-1,-4,-36.25,-36.25,-36.25,12.6875,12.6875,12.6875,7.768341,6.455469,2.63167,3.292224,5.321709,2.298171,0.1971009,-0.003311671,1.313971,0.2796673,0.1396639,1.333816,0.2497997,0.3543186,1.654559,0.1986615,-0.008355163,1.272371,0.2508396,0.1644422,1.35528,0.2414393,-0.09114324,1.659865,0.2348876,-0.4022371,1.638172,0.07502006,0.09725157,1.650014,0.1538873,-0.3958532,1.613609,0.005839066,-0.07562687,1.525264,0.4839334,-0.06480236,1.463735,NA,NA,NotTracked,NotTracked,
-0.5498047,0.9423828,-0.07080078,-0.2236328,-0.8720703,0.4780273,-1,-2,1,-1,-1,-1,7,5,2,1,-2,-4,-5,-9,-12,-4,-58.8125,-58.8125,-58.8125,3.5,3.5,3.5,7.561484,5.71547,2.756054,3.311091,5.357152,2.301101,0.2147939,0.02047276,1.310644,0.1565138,-0.001757981,1.332144,0.249521,0.3535659,1.652827,0.2278603,0.07888322,1.351889,0.1218087,-0.05383902,1.352056,0.2403058,-0.09307049,1.658931,0.2336347,-0.4071456,1.636256,0.07190472,0.09668031,1.648808,0.1526427,-0.4003876,1.612637,0.009648611,-0.07808479,1.518076,0.4535587,-0.05852819,1.465566,NA,NA,NotTracked,NotTracked,
-0.3540039,1.122559,-0.07421875,-0.21875,-0.859375,0.4848633,11,7,-2,-3,0,0,-3,-1,-2,0,1,2,1,2,0,2,-48.1875,-48.1875,-48.1875,1.3125,1.3125,1.3125,7.484665,5.395855,2.79719,3.312262,5.369862,2.298573,0.2034581,0.008286824,1.300531,0.2203458,0.009512683,1.295853,0.2495608,0.3534562,1.651946,0.1736218,0.04764153,1.307724,0.1724501,-0.02899221,1.299263,0.239997,-0.09308155,1.658587,0.2335149,-0.4065781,1.63591,0.07155429,0.09740584,1.647839,0.1527562,-0.3995933,1.611421,0.01006546,-0.07862607,1.517121,0.4493697,-0.06886271,1.474295,NA,NA,NotTracked,NotTracked,
-0.230957,1.057129,-0.007324219,-0.2255859,-0.8251953,0.4882813,-8,-5,-1,0,-1,2,-2,-1,1,2,-1,0,-2,-6,8,3,-41.3125,-41.3125,-41.3125,-2.75,-2.75,-2.75,7.444757,5.197705,2.817907,3.310364,5.381316,2.292111,0.19868,0.005837853,1.303492,0.2118619,-0.01244114,1.307776,0.2493757,0.3529448,1.650277,0.1729127,0.04535949,1.295702,0.1483876,-0.01990056,1.311238,0.239527,-0.09299198,1.657816,0.2332844,-0.4055395,1.635127,0.07086418,0.09865369,1.646471,0.1531053,-0.3982499,1.608791,0.01015265,-0.07972598,1.513295,0.4547279,-0.1068956,1.497277,NA,NA,NotTracked,NotTracked,
-0.1069336,1.115723,0.02783203,-0.2250977,-0.8325195,0.4746094,-4,2,-3,-1,-1,-2,-7,-4,0,-2,-1,-3,-3,-2,-1,-2,-40.875,-40.875,-40.875,-11,-11,-11,7.422995,5.096992,2.825253,3.30078,5.38904,2.286921,0.1957141,0.01296034,1.300726,0.2039379,-0.007436628,1.301672,0.2492785,0.3529387,1.649854,0.172964,0.04738768,1.303429,0.1465477,-0.0184857,1.313273,0.239442,-0.09296405,1.657751,0.233228,-0.4053486,1.635016,0.07014357,0.09837119,1.64624,0.1532525,-0.3979288,1.607685,0.009739182,-0.07991781,1.51185,0.4494365,-0.1039068,1.479952,NA,NA,NotTracked,NotTracked,
-0.09912109,1.170898,-0.02294922,-0.2260742,-0.859375,0.4799805,-3,-4,-3,0,-1,-1,0,2,0,0,-1,0,1,3,-1,-1,-13,-13,-13,-8.5625,-8.5625,-8.5625,7.405657,4.928212,2.833263,3.288244,5.394206,2.281377,0.1944445,0.01364895,1.300896,0.1925576,-0.003784814,1.301836,0.2491634,0.3527798,1.649306,0.1720956,0.04715424,1.305727,0.1404059,-0.01587735,1.313682,0.2392764,-0.09296871,1.657637,0.2330728,-0.4052432,1.634877,0.06950431,0.09810907,1.645989,0.1531212,-0.3978113,1.606818,0.009733343,-0.0798258,1.511151,0.4452101,-0.1085915,1.478576,NA,NA,NotTracked,NotTracked,
-0.005371094,1.141602,0.03515625,-0.2475586,-0.8486328,0.4775391,-9,-6,-3,-2,0,1,5,1,0,-1,-2,-2,1,-9,1,2,-19.25,-19.25,-19.25,-4.6875,-4.6875,-4.6875,7.39555,4.851251,2.830766,3.282874,5.398525,2.275102,0.1925616,0.01461602,1.30067,0.2413507,-0.1405421,1.371731,0.2490634,0.3528025,1.648181,0.1727895,0.04772508,1.304598,0.2241308,-0.1300559,1.37997,0.2383918,-0.09287447,1.656871,0.2326911,-0.404967,1.634382,0.06894267,0.09869692,1.644751,0.1528138,-0.3974445,1.605501,0.009632525,-0.080043,1.510358,0.439567,-0.1118438,1.478935,NA,NA,NotTracked,NotTracked,
0.1430664,1.148438,0.0234375,-0.2514648,-0.8583984,0.4628906,-2,-2,1,5,-1,-2,3,2,-1,-1,0,-2,-2,3,-1,-4,-19.75,-19.75,-19.75,-4.0625,-4.0625,-4.0625,7.371854,4.715107,2.82768,3.277585,5.400994,2.269699,0.1982808,0.02289343,1.303216,0.2400139,-0.175808,1.381062,0.2490887,0.3527691,1.647872,0.1866912,0.09232139,1.300778,0.2147992,-0.1686655,1.408667,0.2383111,-0.09287135,1.656801,0.2325058,-0.4049242,1.634192,0.0686429,0.09922599,1.64365,0.1526635,-0.397455,1.604847,0.009373887,-0.07997465,1.509732,0.4368967,-0.115237,1.479403,NA,NA,Unknown,NotTracked,
0.2626953,1.122559,0.01904297,-0.2597656,-0.8745117,0.46875,-5,-3,-3,0,-2,0,-3,-4,0,-1,-1,-2,-2,1,0,1,-6.1875,-6.1875,-6.1875,-5.1875,-5.1875,-5.1875,7.367631,4.552534,2.800559,3.270858,5.40122,2.264503,0.1994283,0.0224925,1.302586,0.2713457,-0.1884832,1.417432,0.2493304,0.3527755,1.64683,0.187689,0.08354029,1.306001,0.2622909,-0.2458967,1.467526,0.238187,-0.09286655,1.656432,0.2323578,-0.4049134,1.633552,0.0678656,0.09917542,1.642531,0.1526448,-0.3975337,1.603008,0.008904889,-0.07999231,1.507394,0.5183256,-0.1121422,1.567202,NA,NA,Unknown,Closed,
0.2783203,1.07666,0.05908203,-0.2529297,-0.8754883,0.4594727,7,3,1,0,-1,-1,0,12,-2,0,-2,0,-1,-5,-1,-2,-8.9375,-8.9375,-8.9375,0.9375,0.9375,0.9375,7.365023,4.502966,2.779293,3.264192,5.399885,2.255482,0.2008528,0.02206482,1.304388,0.273432,-0.1972672,1.424048,0.2496245,0.3527424,1.645861,0.1896033,0.08055966,1.311,0.2472067,-0.2511507,1.461173,0.2379667,-0.09291275,1.655924,0.2323539,-0.4049376,1.633211,0.06756086,0.09973771,1.640388,0.1527804,-0.3976316,1.602141,0.008628347,-0.07929503,1.505922,0.5179307,-0.1124228,1.567445,NA,NA,Unknown,Unknown,
0.2636719,1.027832,0.04052734,-0.2641602,-0.8730469,0.4560547,2,-2,-1,0,0,-2,-4,-5,-3,-2,-1,0,-3,-5,-3,-4,0.5625,0.5625,0.5625,-0.6875,-0.6875,-0.6875,7.372416,4.498167,2.762737,3.2643,5.400884,2.252386,0.2013694,0.02127854,1.304801,0.2747006,-0.1994434,1.426486,0.249771,0.3525378,1.645476,0.1907167,0.08168113,1.309438,0.2545908,-0.2480261,1.467999,0.2379383,-0.09295972,1.655787,0.2322671,-0.4050585,1.632882,0.06732938,0.09972647,1.639246,0.1527349,-0.397809,1.601547,0.008412272,-0.07939183,1.50521,0.5179199,-0.1125364,1.567472,NA,NA,Unknown,Unknown,
0.2895508,1.002441,0.06982422,-0.2602539,-0.8833008,0.4462891,-1,1,1,0,-1,-1,-1,-3,0,-1,-1,-2,-3,-4,-2,2,0.75,0.75,0.75,-0.75,-0.75,-0.75,7.379974,4.503736,2.744123,3.262456,5.400642,2.251755,0.2014255,0.02080918,1.304846,0.275682,-0.2006635,1.424806,0.2500678,0.3521861,1.644928,0.1914357,0.0823954,1.308979,0.2567291,-0.2517166,1.46718,0.2378795,-0.09301532,1.655631,0.2321854,-0.4052152,1.63252,0.06721923,0.09937885,1.638123,0.1526821,-0.3980613,1.600643,0.008452132,-0.07937983,1.504687,0.5178628,-0.1125619,1.56776,NA,NA,Unknown,Unknown,
0.2871094,0.9379883,0.06982422,-0.2529297,-0.8789063,0.449707,-2,-1,-1,-2,-2,-1,-4,-6,0,-1,0,2,2,0,-1,-1,-1.5625,-1.5625,-1.5625,-1.5,-1.5,-1.5,7.384109,4.513555,2.72629,3.261711,5.399467,2.252894,0.2007847,0.02006205,1.304778,0.2768072,-0.200345,1.422954,0.2501659,0.3521738,1.644653,0.1906402,0.08362999,1.306726,0.2611704,-0.255872,1.466048,0.2376916,-0.09331204,1.655137,0.2321819,-0.4054177,1.632297,0.0671036,0.09921604,1.637548,0.1527544,-0.3984109,1.600091,0.008326977,-0.07966717,1.503784,0.5177027,-0.1125707,1.567826,NA,NA,Unknown,Closed,
0.3037109,0.894043,0.08398438,-0.2275391,-0.8925781,0.4418945,4,0,1,1,-1,1,1,3,-1,-3,-2,-2,-4,-6,-7,-1,1.6875,1.6875,1.6875,-1.3125,-1.3125,-1.3125,7.389637,4.520973,2.705758,3.260333,5.395996,2.256862,0.2015632,0.01919902,1.30531,0.2781858,-0.2003698,1.418924,0.2503497,0.352051,1.644595,0.1906768,0.08333609,1.305937,0.2584416,-0.2518015,1.469579,0.2376685,-0.0933344,1.65509,0.2321432,-0.4054943,1.632065,0.06704617,0.09898262,1.637068,0.1527428,-0.3984556,1.599689,0.008167639,-0.07973742,1.503674,0.5168626,-0.1128534,1.567266,NA,NA,Unknown,Closed,
0.3500977,0.878418,0.08544922,-0.2182617,-0.8789063,0.4433594,-1,-4,-4,-1,-1,-1,3,-1,-1,-3,0,0,2,11,3,2,1.375,1.375,1.375,-0.75,-0.75,-0.75,7.396116,4.518992,2.683879,3.260069,5.392251,2.262411,0.2012814,0.01922187,1.305336,0.2806682,-0.1988955,1.415281,0.2505278,0.3519668,1.644543,0.1915205,0.08473557,1.305698,0.2514239,-0.2414433,1.46835,0.2376523,-0.09336172,1.655028,0.2320593,-0.4055803,1.631837,0.06714416,0.09887931,1.636833,0.1526878,-0.3985208,1.599394,0.008156509,-0.0797369,1.503663,0.5174091,-0.1126772,1.567609,NA,NA,Unknown,Unknown,
0.3496094,0.8457031,0.08447266,-0.2099609,-0.8803711,0.4394531,-5,-4,-2,-2,0,-1,1,-3,0,-3,-3,-2,-1,-3,3,2,-0.4375,-0.4375,-0.4375,0.25,0.25,0.25,7.39841,4.513075,2.672106,3.260457,5.390377,2.265999,0.2009907,0.01944897,1.305179,0.2838141,-0.1987686,1.409793,0.2506921,0.3518749,1.644525,0.1912231,0.08322855,1.307335,0.2904089,-0.2410436,1.391133,0.2373561,-0.09350853,1.654752,0.2319762,-0.4056843,1.631688,0.06717907,0.09874277,1.636499,0.1526391,-0.3986404,1.599142,0.008194596,-0.07980928,1.503398,0.5171456,-0.112718,1.566397,NA,NA,Unknown,Unknown,
0.3496094,0.8457031,0.08447266,-0.1992188,-0.8852539,0.4174805,-11,-5,0,0,-2,0,1,-1,-3,-1,-1,-1,-2,-12,-8,-4,-0.4375,-0.4375,-0.4375,-0.8125,-0.8125,-0.8125,7.39841,4.513075,2.672106,3.259737,5.385934,2.275346,0.198942,0.01890695,1.304973,0.2923025,-0.2060845,1.401158,0.2509471,0.3520255,1.644381,0.2575842,0.01789047,1.357839,0.3053494,-0.2724004,1.4696,0.2370698,-0.09358472,1.654261,0.2317841,-0.4058084,1.631085,0.06737944,0.09876861,1.636084,0.1525017,-0.3987353,1.598525,0.007763959,-0.07989607,1.503483,0.5177908,-0.1118459,1.567513,NA,NA,Unknown,Unknown,
0.347168,0.7900391,0.07275391,-0.1567383,-0.8720703,0.4038086,-3,-6,-2,-3,-1,-1,0,2,-2,-1,0,-2,-3,-4,1,3,-5.8125,-5.8125,-5.8125,-7.8125,-7.8125,-7.8125,7.401886,4.469579,2.627459,3.250478,5.367943,2.31056,0.1932953,0.01626377,1.305008,0.3059886,-0.2241731,1.400783,0.2511536,0.3521546,1.644203,0.2475519,0.01327466,1.35825,0.3223996,-0.260016,1.395778,0.2365314,-0.09383854,1.653244,0.2313252,-0.4060217,1.630342,0.06743587,0.09876852,1.63593,0.1521427,-0.3989034,1.597967,0.007615904,-0.08019013,1.503658,0.5179164,-0.1117477,1.567657,NA,NA,Unknown,Unknown,
0.3886719,0.78125,0.01464844,-0.1367188,-0.8706055,0.4082031,1,2,0,-1,-2,-1,-5,0,0,-1,-2,-1,0,0,2,0,-12.6875,-12.6875,-12.6875,-4,-4,-4,7.419586,4.340754,2.524634,3.247119,5.338198,2.352453,0.1895821,0.01297806,1.305052,0.3147788,-0.2405198,1.395447,0.2515702,0.3524413,1.6442,0.1806685,0.07841618,1.309522,0.2817851,-0.2836089,1.4675,0.2362945,-0.09393402,1.652939,0.2310663,-0.4061896,1.630029,0.06739958,0.09861574,1.63598,0.1519531,-0.3990148,1.597733,0.005903172,-0.08015003,1.505472,0.5190207,-0.1107428,1.570636,NA,NA,Unknown,Closed,
0.487793,0.8022461,0.01269531,-0.1289063,-0.8657227,0.4145508,3,10,1,1,3,3,4,3,0,0,0,-3,-4,9,1,-1,-12,-12,-12,-5.375,-5.375,-5.375,7.438694,4.247334,2.449201,3.247022,5.324406,2.369931,0.1837638,0.009552324,1.304374,0.3309479,-0.2533646,1.404233,0.2518338,0.3524356,1.644235,0.1787871,0.07698762,1.309437,0.3518754,-0.2969589,1.399429,0.2359905,-0.09401801,1.652594,0.2306862,-0.4063752,1.629594,0.0673327,0.0985373,1.636158,0.1516237,-0.3991118,1.597449,0.003007688,-0.08071835,1.508808,0.470666,-0.1173577,1.595442,NA,NA,Unknown,Closed,
0.5625,0.8071289,-0.003417969,-0.121582,-0.8676758,0.4331055,-2,-2,0,-1,0,0,-3,0,2,-2,-1,3,2,-3,-2,3,-20.8125,-20.8125,-20.8125,-3.25,-3.25,-3.25,7.485668,4.099213,2.306339,3.249936,5.275914,2.433246,0.1782081,0.004339844,1.305482,0.3441307,-0.2690611,1.408293,0.2519734,0.3524871,1.64426,0.2323885,-0.0005954102,1.372,0.3577769,-0.3134388,1.398125,0.2356926,-0.09424197,1.652179,0.230235,-0.4067193,1.629252,0.06734501,0.09846777,1.636308,0.1512661,-0.3992808,1.597283,-0.0006869847,-0.08198068,1.513154,0.471154,-0.1183102,1.595347,NA,NA,Unknown,Closed,
0.5625,0.8071289,-0.003417969,-0.121582,-0.8676758,0.4331055,1,-1,-3,0,-2,1,1,-1,2,-2,-1,3,2,-3,-2,3,-20.8125,-20.8125,-20.8125,-3.25,-3.25,-3.25,7.485668,4.099213,2.306339,3.249936,5.275914,2.433246,0.1693268,-0.002390822,1.305388,0.3597088,-0.2849306,1.412437,0.2523437,0.3526444,1.644073,0.2198916,-0.008429271,1.3706,0.4006941,-0.2479833,1.417276,0.2353588,-0.09429612,1.651636,0.2296339,-0.4068137,1.62872,0.06750532,0.09843683,1.636397,0.1507311,-0.3992065,1.597039,-0.004072467,-0.08421195,1.516907,0.4721281,-0.1183734,1.595602,NA,NA,Unknown,Closed,
0.6162109,0.7832031,-0.004394531,-0.09521484,-0.8520508,0.4458008,2,-4,-3,-1,-3,-1,3,-2,-2,-3,0,0,1,5,0,-2,-30.375,-30.375,-30.375,-1.9375,-1.9375,-1.9375,7.518768,3.994543,2.191998,3.253704,5.256498,2.459345,0.1611731,-0.008600615,1.306356,0.3761036,-0.2997804,1.419639,0.2528015,0.3530231,1.643685,0.1525554,0.06005264,1.31255,0.4140788,-0.2583875,1.423064,0.2352011,-0.0943563,1.651293,0.2292185,-0.4069466,1.628415,0.06742108,0.0982918,1.6368,0.1503315,-0.3992128,1.596998,-0.008771534,-0.08370814,1.522909,0.4735364,-0.1195666,1.596403,NA,NA,Unknown,Closed,
0.6508789,0.7573242,-0.01708984,-0.08642578,-0.8374023,0.4667969,2,3,-1,0,0,0,-1,-2,1,-1,0,-3,-4,-2,0,0,-34.75,-34.75,-34.75,-1.25,-1.25,-1.25,7.537602,3.941239,2.128737,3.262666,5.212839,2.517313,0.1485773,-0.01715722,1.307916,0.3943905,-0.3185204,1.418539,0.2530581,0.3532776,1.643559,0.1271796,-0.01693626,1.280744,0.4248147,-0.2713642,1.425045,0.2351392,-0.09433426,1.651031,0.2291099,-0.4069774,1.628327,0.06735209,0.09833259,1.637285,0.1501801,-0.3991946,1.597009,-0.0123922,-0.08467388,1.527465,0.4745262,-0.1207497,1.59999,NA,NA,Unknown,Closed,
0.7041016,0.7285156,-0.02783203,-0.07666016,-0.8496094,0.4921875,-4,-3,1,-1,0,-2,1,0,-4,-1,-2,-2,0,-3,-6,-7,-36.625,-36.625,-36.625,-3.125,-3.125,-3.125,7.583745,3.835227,1.993088,3.270232,5.163789,2.58202,0.1363616,-0.02667612,1.310159,0.4124622,-0.3353807,1.423575,0.2536836,0.3538128,1.643037,0.1300335,0.03942773,1.314667,0.4051465,-0.3111251,1.392603,0.2350968,-0.09424058,1.650814,0.2291157,-0.406992,1.628321,0.06739926,0.09830226,1.637416,0.1501426,-0.3992251,1.597107,-0.01791532,-0.08563263,1.536396,0.4783294,-0.1264774,1.602531,NA,NA,Unknown,Closed,
0.7587891,0.6958008,-0.03271484,-0.02832031,-0.8500977,0.5131836,3,1,-1,0,-1,-1,1,-3,1,0,-1,0,0,1,-1,0,-36.625,-36.625,-36.625,2.5625,2.5625,2.5625,7.641491,3.735096,1.848934,3.280787,5.10364,2.655155,0.1249281,-0.0375578,1.312596,0.4320064,-0.3503376,1.425495,0.2543144,0.3540803,1.642397,0.1185553,0.03180899,1.311889,0.4289401,-0.3333363,1.388103,0.2352548,-0.09413901,1.650293,0.229329,-0.4069988,1.628224,0.06737609,0.09822028,1.637545,0.1502257,-0.3992374,1.597139,-0.02295835,-0.08551791,1.545752,0.4795246,-0.1299661,1.604692,NA,NA,Unknown,Closed,
0.7709961,0.6748047,-0.03466797,-0.01123047,-0.855957,0.5107422,-3,-5,-1,-2,-3,-3,-2,-1,0,0,-2,-2,-3,0,4,-1,-36.9375,-36.9375,-36.9375,8.375,8.375,8.375,7.672903,3.688573,1.775633,3.289162,5.068688,2.694113,0.09928219,-0.06337807,1.318356,0.4700121,-0.3784377,1.443017,0.2558526,0.3542909,1.640774,0.09229299,0.006443159,1.31905,0.4646284,-0.3604321,1.408697,0.2355576,-0.09442409,1.64911,0.2297184,-0.4074604,1.627873,0.06768887,0.09807833,1.637931,0.1503859,-0.3995475,1.597049,-0.02965268,-0.08783674,1.562516,0.4845058,-0.1402949,1.610415,NA,NA,Unknown,Closed,
0.8452148,0.5664063,-0.1274414,0.09814453,-0.9160156,0.5654297,3,0,-1,-1,0,-2,-2,-1,0,0,-1,-1,1,-5,1,0,-64.5625,-64.5625,-64.5625,19.0625,19.0625,19.0625,7.980824,3.431495,1.123949,3.324779,4.765183,3.012107,0.07047794,-0.0956168,1.326538,0.5062008,-0.4005431,1.468958,0.2583358,0.3542296,1.638354,0.06391074,-0.02339206,1.323353,0.4932106,-0.3794231,1.4355,0.2359275,-0.09466506,1.648016,0.2301766,-0.4081208,1.627578,0.06849261,0.09745581,1.638089,0.1505807,-0.4001148,1.596803,-0.0332713,-0.0884872,1.575233,0.4893748,-0.1528752,1.618952,NA,NA,Unknown,Closed,
0.8588867,0.5493164,-0.1362305,0.1464844,-0.8359375,0.5898438,2,3,0,1,1,0,0,-1,-4,-3,-1,0,-2,1,-2,-4,-66.75,-66.75,-66.75,25.3125,25.3125,25.3125,8.032895,3.406905,1.016249,3.337324,4.66802,3.10585,0.04090117,-0.1285863,1.339356,0.5401694,-0.41561,1.49751,0.2604422,0.3545172,1.635609,0.03461972,-0.05646633,1.327929,0.5480201,-0.4034248,1.461829,0.2362349,-0.09492881,1.646656,0.2305449,-0.4089299,1.627196,0.06879613,0.09609329,1.638131,0.1506873,-0.400897,1.596519,-0.03347336,-0.09198569,1.58913,0.4934621,-0.1597317,1.627308,NA,NA,Unknown,Closed,
0.8852539,0.515625,-0.1606445,0.1928711,-0.8442383,0.5913086,-5,-3,0,-1,0,0,2,-2,1,0,0,1,1,-12,-5,-1,-70.0625,-70.0625,-70.0625,24.25,24.25,24.25,8.134353,3.369504,0.8036034,3.342893,4.571342,3.198836,0.0266892,-0.1446307,1.347793,0.5544596,-0.4244095,1.511552,0.2615831,0.3547169,1.633523,0.02100489,-0.07438257,1.336125,0.5592697,-0.4061919,1.476435,0.2363578,-0.09497882,1.645646,0.2306163,-0.4091466,1.627038,0.06879688,0.09588886,1.63811,0.1506703,-0.4011655,1.59649,-0.03231701,-0.09471153,1.602677,0.4941953,-0.1612653,1.630503,NA,NA,Unknown,Closed,
0.8891602,0.4638672,-0.1591797,0.1943359,-0.8540039,0.5874023,2,0,0,-1,-1,-1,-2,0,0,-1,-3,0,-1,3,-2,-3,-60.5625,-60.5625,-60.5625,26.625,26.625,26.625,8.255022,3.331539,0.5317401,3.345809,4.52323,3.242818,0.01509238,-0.1615153,1.354728,0.5667506,-0.4266517,1.526815,0.262896,0.3550216,1.631883,0.006216684,-0.09023029,1.341455,0.5758692,-0.4137192,1.491366,0.2363465,-0.09502479,1.645185,0.2306129,-0.4094738,1.62708,0.06878179,0.09552678,1.638166,0.1505496,-0.4015731,1.596653,-0.03305685,-0.09550051,1.614414,0.4956332,-0.1627587,1.633707,NA,NA,Unknown,Closed,
0.887207,0.4609375,-0.1538086,0.2651367,-0.7866211,0.5786133,-4,-2,0,-1,-1,-1,0,0,3,0,-2,-1,-4,-5,-1,-1,-48.875,-48.875,-48.875,27.9375,27.9375,27.9375,8.308477,3.317051,0.4008161,3.350427,4.421793,3.330827,0.002931508,-0.1768548,1.362836,0.5748591,-0.4296933,1.536995,0.2640072,0.3550437,1.629353,-0.005027263,-0.1074542,1.346533,0.5790827,-0.411058,1.503079,0.2363423,-0.09505674,1.644475,0.2305969,-0.4096186,1.627038,0.06887379,0.09541462,1.638146,0.1504496,-0.4017177,1.596693,-0.03174865,-0.09638079,1.622231,0.4967938,-0.1646887,1.637281,NA,NA,Unknown,Closed,
0.887207,0.4501953,-0.1323242,0.2856445,-0.7470703,0.5078125,-1,-1,-1,-1,0,-1,-1,1,4,0,0,1,-1,10,2,-1,-43.125,-43.125,-43.125,23.5,23.5,23.5,8.325819,3.306627,0.318636,3.348472,4.31168,3.410419,-0.007490334,-0.1946516,1.371143,0.5798776,-0.4305412,1.547264,0.2650067,0.3555505,1.627393,-0.01378475,-0.1207042,1.3471,0.5842941,-0.4100778,1.511087,0.2364794,-0.09506734,1.643815,0.2306137,-0.4097534,1.627053,0.06900651,0.09541568,1.638178,0.150367,-0.4019029,1.596897,-0.05558817,-0.0912724,1.639292,0.4976009,-0.1664674,1.640907,NA,NA,Closed,Closed,
0.8657227,0.4301758,-0.1293945,0.359375,-0.7319336,0.4702148,2,-2,-1,-1,-1,-1,-2,1,0,0,-3,-4,-2,3,0,0,-31.0625,-31.0625,-31.0625,14.3125,14.3125,14.3125,8.315115,3.296766,0.2839488,3.330251,4.190238,3.49173,-0.0185538,-0.2146893,1.382046,0.5827341,-0.4317584,1.554613,0.2656842,0.3558779,1.625867,-0.02105715,-0.1453868,1.36279,0.5909798,-0.4154314,1.519143,0.2365738,-0.09503667,1.643079,0.2306141,-0.4098012,1.627061,0.06914598,0.09547146,1.638157,0.1503192,-0.4019416,1.596979,-0.05474862,-0.09194759,1.641151,0.4980011,-0.167353,1.644382,NA,NA,Closed,Closed,
0.8657227,0.4301758,-0.1293945,0.359375,-0.7319336,0.4702148,2,-2,-1,-1,-1,-1,-2,1,0,0,-3,-4,-2,3,0,0,-31.0625,-31.0625,-31.0625,14.3125,14.3125,14.3125,8.315115,3.296766,0.2839488,3.330251,4.190238,3.49173,-0.0285174,-0.2377501,1.390962,0.5821517,-0.4315041,1.557574,0.266346,0.3554933,1.623855,-0.02996455,-0.1730773,1.369091,0.5613174,-0.4586253,1.579533,0.2367151,-0.09504554,1.642268,0.2306467,-0.4098725,1.627066,0.06927834,0.09543709,1.638138,0.1502988,-0.4019933,1.59705,-0.05089417,-0.09907112,1.653084,0.497924,-0.1682809,1.64603,NA,NA,Unknown,Closed,
0.8110352,0.4277344,-0.1479492,0.565918,-0.6899414,0.3916016,1,-2,-3,-2,-2,0,-2,2,-3,-1,-2,-2,-1,3,-2,-2,-24.5625,-24.5625,-24.5625,21.8125,21.8125,21.8125,8.247869,3.28065,0.2841617,3.268647,3.838179,3.693342,-0.04668419,-0.2819167,1.419796,0.5765095,-0.4334758,1.563301,0.2673973,0.3550062,1.621251,-0.04480438,-0.2242274,1.387889,0.5605196,-0.4599485,1.6094,0.2368957,-0.0951217,1.641547,0.2306583,-0.4100221,1.627252,0.06987038,0.0957076,1.638222,0.1501556,-0.4021261,1.59755,-0.02304917,-0.1113003,1.662997,0.4978294,-0.1704604,1.650467,NA,NA,Unknown,Closed,
0.8295898,0.4165039,-0.1650391,0.7304688,-0.6738281,0.3847656,-1,-1,-1,-1,0,-2,-1,1,-2,-1,-2,-1,-4,-8,-2,0,-16.0625,-16.0625,-16.0625,14.5625,14.5625,14.5625,8.222327,3.267354,0.2883438,3.224276,3.695577,3.779424,-0.05360918,-0.3049158,1.434065,0.571851,-0.4349276,1.563046,0.2679426,0.3545785,1.619964,-0.05203314,-0.2482131,1.396923,0.5562891,-0.4573115,1.599408,0.237045,-0.09514418,1.641232,0.2307904,-0.4101191,1.627377,0.06998476,0.09572169,1.638201,0.1502516,-0.4022211,1.597835,-0.01975806,-0.1138923,1.667025,0.4973036,-0.1713411,1.651339,NA,NA,Unknown,Closed,
0.8295898,0.4165039,-0.1650391,0.7304688,-0.6738281,0.3847656,-1,-1,-1,-1,0,-2,-1,1,-2,-1,-2,-1,-4,-8,-2,0,-16.0625,-16.0625,-16.0625,14.5625,14.5625,14.5625,8.222327,3.267354,0.2883438,3.224276,3.695577,3.779424,-0.05980499,-0.3292548,1.45254,0.5675275,-0.4374344,1.564128,0.2682945,0.3543501,1.618973,-0.06000137,-0.275441,1.4085,0.5477338,-0.4645739,1.59975,0.2372848,-0.09516788,1.640988,0.2309248,-0.4102296,1.627586,0.07013103,0.09573342,1.638179,0.1503495,-0.4023247,1.598319,-0.0174285,-0.1170888,1.670108,0.4959281,-0.1734547,1.652895,NA,NA,Unknown,Closed,
0.8583984,0.4038086,-0.1845703,0.7929688,-0.6650391,0.340332,-9,-6,-2,-2,-1,-3,-2,-3,-2,0,0,0,-1,-3,-2,-3,-15.75,-15.75,-15.75,19,19,19,8.205798,3.250225,0.2860604,3.177726,3.570527,3.87,-0.06559938,-0.3459406,1.471964,0.5629478,-0.4391561,1.565855,0.2687778,0.3539685,1.617798,-0.06455772,-0.301632,1.423563,0.5435488,-0.4693393,1.605,0.2373698,-0.09520616,1.64086,0.2311062,-0.4102742,1.627879,0.07042991,0.0957202,1.638223,0.1504733,-0.4023157,1.598776,-0.01526575,-0.1194333,1.672548,0.4953037,-0.1747925,1.653408,NA,NA,Unknown,Closed,
0.8652344,0.3706055,-0.2143555,0.8369141,-0.6147461,0.3115234,0,-2,-1,-1,0,-1,-1,-2,0,0,1,-3,1,-2,2,0,-11.9375,-11.9375,-11.9375,30.1875,30.1875,30.1875,8.196601,3.231121,0.2806408,3.13424,3.459105,3.963266,-0.0695478,-0.3611149,1.490304,0.5578275,-0.4420847,1.566501,0.2690676,0.3537193,1.617094,-0.06924482,-0.3267573,1.436714,0.5336338,-0.4684639,1.588182,0.2374757,-0.09523655,1.64067,0.2311599,-0.410289,1.628044,0.07064984,0.09581185,1.638123,0.1504775,-0.4022844,1.599076,-0.01354678,-0.1225956,1.674932,0.4937482,-0.1748505,1.653495,NA,NA,Unknown,Closed,
0.8808594,0.3642578,-0.2080078,0.9541016,-0.5170898,0.2470703,1,0,-1,-3,-1,-2,5,2,-2,-1,-1,-1,-1,0,2,-2,-1.5,-1.5,-1.5,33.5625,33.5625,33.5625,8.193868,3.211412,0.2798108,3.099528,3.356749,4.053856,-0.07117829,-0.3791184,1.507291,0.552069,-0.4437226,1.567527,0.2695034,0.3533113,1.616151,-0.07426114,-0.3490652,1.450934,0.5318785,-0.4701207,1.5994,0.2376461,-0.09535292,1.640444,0.231216,-0.4103457,1.628257,0.07105476,0.09586374,1.638003,0.1504905,-0.4023478,1.599511,-0.01209979,-0.1255228,1.676192,0.492538,-0.1749504,1.653558,NA,NA,Unknown,Closed,
0.8842773,0.3774414,-0.2109375,0.8984375,-0.4707031,0.1992188,0,2,-1,0,0,0,3,6,0,0,-1,2,-1,1,4,2,4.75,4.75,4.75,23.9375,23.9375,23.9375,8.196701,3.194562,0.2825797,3.051718,3.275666,4.144388,-0.07321915,-0.3899431,1.521955,0.5470805,-0.4452813,1.567098,0.2697304,0.3530421,1.615587,-0.07747266,-0.3692972,1.461357,0.52136,-0.4737931,1.587889,0.2378139,-0.0954431,1.640266,0.2312925,-0.4104742,1.62841,0.07130411,0.09586033,1.637917,0.1505044,-0.4024609,1.59973,-0.01079362,-0.1302692,1.677303,0.491157,-0.1757742,1.653088,NA,NA,Unknown,Closed,
0.8925781,0.371582,-0.2089844,0.9370117,-0.4672852,0.2021484,-1,-3,-2,0,-1,-1,-1,-2,-1,1,-4,-2,3,6,-1,1,4.6875,4.6875,4.6875,18,18,18,8.197963,3.180232,0.2886755,3.020539,3.239402,4.191955,-0.07336618,-0.4016031,1.534418,0.5425289,-0.4483997,1.568981,0.2698855,0.3529212,1.615084,-0.07824276,-0.3863253,1.475,0.5161254,-0.4784105,1.587143,0.2380209,-0.09555174,1.640071,0.2313854,-0.41059,1.628601,0.07148053,0.0958986,1.637909,0.1505561,-0.4025641,1.600056,-0.009442846,-0.1340086,1.678264,0.489754,-0.1760897,1.652728,NA,NA,Unknown,Closed,
0.8818359,0.3720703,-0.2080078,0.9536133,-0.456543,0.1513672,1,1,-1,-2,-1,-2,0,1,-2,-1,0,0,-3,-5,-3,-4,3.0625,3.0625,3.0625,23,23,23,8.197041,3.173878,0.2922178,2.964004,3.179178,4.282388,-0.07154255,-0.4234217,1.555439,0.5346638,-0.4510508,1.568272,0.2701092,0.3529043,1.614551,-0.07865953,-0.4112289,1.494667,0.5075252,-0.4795444,1.583941,0.2382764,-0.09561716,1.639957,0.2317107,-0.4107464,1.629292,0.07166751,0.09590799,1.63809,0.1507858,-0.4026512,1.600964,-0.007552761,-0.1378228,1.677899,0.4874141,-0.1763713,1.651941,NA,NA,Unknown,Unknown,
0.8950195,0.3544922,-0.2080078,0.9584961,-0.3945313,0.1142578,0,-1,-1,0,0,-1,-2,-2,-1,-2,0,-1,1,-6,0,0,5.4375,5.4375,5.4375,14.5,14.5,14.5,8.198813,3.162579,0.2961956,2.912484,3.129259,4.359918,-0.06875907,-0.4354636,1.568394,0.5288433,-0.448638,1.568751,0.2702454,0.3526509,1.61354,-0.07192457,-0.4176792,1.517613,0.5020061,-0.4767721,1.58275,0.2385238,-0.09567203,1.639881,0.2320933,-0.4109839,1.629951,0.07187628,0.09581059,1.638201,0.1511216,-0.4028603,1.601824,-0.005763228,-0.142855,1.678411,0.4855464,-0.1762092,1.65132,NA,NA,Unknown,Closed,
0.8920898,0.3525391,-0.1875,0.972168,-0.3652344,0.08984375,-3,-2,-1,-1,-1,-1,1,-1,0,-1,-2,-3,-4,-6,0,1,7.75,7.75,7.75,7.0625,7.0625,7.0625,8.215945,3.14524,0.3108359,2.833332,3.063355,4.466361,-0.06683305,-0.4388933,1.572299,0.5267877,-0.4499212,1.569563,0.2702615,0.3525342,1.613402,-0.0707557,-0.425033,1.520462,0.498979,-0.4815374,1.5886,0.2386458,-0.09571996,1.639837,0.232197,-0.4111027,1.630153,0.07192485,0.09570532,1.638466,0.1512257,-0.4030119,1.602176,-0.004918957,-0.1444845,1.678285,0.4845774,-0.1761276,1.650998,NA,NA,Unknown,Closed,
0.8950195,0.3334961,-0.1826172,0.9511719,-0.3530273,0.06787109,-3,-2,-2,-2,-2,0,0,-1,-1,-1,-1,0,0,-2,1,2,7.5625,7.5625,7.5625,-2.5625,-2.5625,-2.5625,8.216477,3.14316,0.315047,2.820367,3.044328,4.481234,-0.06379281,-0.4426568,1.576854,0.5249073,-0.4492843,1.568151,0.2702457,0.3524346,1.613046,-0.06985256,-0.432761,1.520158,0.4982258,-0.4794282,1.580733,0.2388186,-0.09574241,1.639733,0.2323244,-0.4112172,1.630273,0.07199684,0.0955142,1.63855,0.1513087,-0.4031024,1.602318,-0.004182269,-0.1463267,1.677786,0.483322,-0.1757026,1.650331,NA,NA,Unknown,Closed,
0.902832,0.331543,-0.1640625,0.9594727,-0.3530273,0.08984375,-2,-2,0,-1,-1,0,-1,-2,-2,-1,-1,-1,-4,-3,-2,-1,12.625,12.625,12.625,-9.6875,-9.6875,-9.6875,8.218766,3.1388,0.3264383,2.819879,3.033028,4.471704,-0.0615999,-0.4456749,1.577938,0.5235763,-0.4507459,1.568497,0.2702377,0.3524627,1.612758,-0.07082772,-0.4384307,1.525191,0.4988127,-0.4782901,1.587904,0.2389794,-0.09575483,1.639643,0.2325049,-0.4112674,1.630397,0.07194457,0.09531548,1.638628,0.1515062,-0.4031752,1.602584,-0.003272418,-0.1477229,1.677778,0.4829283,-0.1756288,1.650215,NA,NA,NotTracked,Closed,
0.8964844,0.3647461,-0.1474609,0.9462891,-0.3413086,0.09130859,0,0,-2,-2,-1,0,1,-1,0,0,-1,-2,-4,-2,-1,0,10.375,10.375,10.375,-9.4375,-9.4375,-9.4375,8.212469,3.137095,0.3470646,2.841061,3.028017,4.439097,-0.05803438,-0.4492621,1.579426,0.5222018,-0.4518644,1.566656,0.2701298,0.3522947,1.612399,-0.06877789,-0.4445905,1.521429,0.4984107,-0.4780888,1.589344,0.2391969,-0.09585095,1.639503,0.2326462,-0.4113951,1.630511,0.07193234,0.09513274,1.638769,0.1516367,-0.4033386,1.602823,-0.002237303,-0.1502854,1.678226,0.4825158,-0.1757887,1.650004,NA,NA,NotTracked,Unknown,
0.8876953,0.340332,-0.1416016,0.9443359,-0.3393555,0.09667969,-3,0,0,-1,-2,-1,0,-1,-2,-1,-3,0,0,0,-3,-3,3.5625,3.5625,3.5625,-12,-12,-12,8.201338,3.136626,0.364725,2.854845,3.026807,4.417449,-0.05578153,-0.4500657,1.579738,0.5208497,-0.4507581,1.565703,0.2700662,0.352374,1.612121,-0.0620444,-0.4425664,1.526046,0.4979283,-0.4765878,1.589466,0.2393702,-0.09592877,1.639304,0.2327997,-0.4115089,1.63062,0.07183758,0.09492373,1.639005,0.1517872,-0.4034673,1.603036,-0.001703616,-0.1509501,1.678164,0.4822768,-0.1759256,1.649753,NA,NA,NotTracked,Unknown,
0.8925781,0.3232422,-0.1469727,0.9311523,-0.3427734,0.09912109,-1,0,-1,-1,-1,1,-1,-2,-1,0,-1,2,1,3,4,3,4,4,4,-16.75,-16.75,-16.75,8.19358,3.135081,0.3773217,2.886408,3.026681,4.366203,-0.05291483,-0.4529002,1.579104,0.5194532,-0.450467,1.564875,0.2699241,0.352376,1.61201,-0.06009269,-0.4418206,1.526053,0.4922857,-0.4807766,1.582455,0.2394791,-0.0960059,1.63926,0.2330478,-0.4116699,1.63078,0.07182096,0.09465986,1.639227,0.1520248,-0.403619,1.603289,-0.001030437,-0.1520936,1.678095,0.4820123,-0.1760624,1.649618,NA,NA,NotTracked,Closed,
0.8959961,0.3198242,-0.1513672,0.940918,-0.3320313,0.09912109,2,0,0,1,0,-1,-1,0,-1,-2,-1,-1,0,-2,-4,-4,4.75,4.75,4.75,-7.4375,-7.4375,-7.4375,8.189006,3.133623,0.3881384,2.923224,3.030137,4.315271,-0.04677994,-0.4507743,1.575961,0.5169587,-0.4507727,1.56285,0.2694784,0.3520437,1.61167,-0.05141972,-0.4413595,1.524522,0.4908569,-0.4791197,1.583673,0.2398366,-0.09620151,1.638962,0.2335403,-0.4119102,1.630948,0.07154939,0.09369206,1.639494,0.1524902,-0.4039021,1.60366,9.553327E-05,-0.1534412,1.677898,0.4808252,-0.1773137,1.648848,NA,NA,NotTracked,Closed,
