ALX,ALY,ALZ,ARX,ARY,ARZ,EMG0L,EMG1L,EMG2L,EMG3L,EMG4L,EMG5L,EMG6L,EMG7L,EMG0R,EMG1R,EMG2R,EMG3R,EMG4R,EMG5R,EMG6R,EMG7R,GLX,GLY,GLZ,GRX,GRY,GRZ,ORL,OPL,OYL,ORR,OPR,OYR,LHNX,LHNY,LHNZ,RHNX,RHNY,RHNZ,HX,HY,HZ,LTX,LTY,LTZ,RTX,RTY,RTZ,SpineMidX,SpineMidY,SpineMidZ,SpineBaseX,SpineBaseY,SpineBaseZ,ShoulderLeftX,ShoulderLeftY,ShoulderLeftZ,ShoulderRightX,ShoulderRightY,ShoulderRightZ,ElbowLeftX,ElbowLeftY,ElbowLeftZ,ElbowRightX,ElbowRightY,ElbowRightZ,Myo_Pose_left,Myo_Pose_Right,Kinect_pose_left,Kinect_pose_right
0.109375,0.6694336,0.59375,0.9199219,-0.3110352,0.1123047,0,0,-1,-1,1,0,-1,5,-1,0,-2,0,-1,0,0,1,13.5,13.5,13.5,-4.125,-4.125,-4.125,6.280239,4.925798,3.254165,2.92861,3.039651,7.422073,-0.1138138,-0.4622664,1.227549,0.3111619,0.1156741,0.7874204,0.08452096,0.3731981,1.34111,-0.1557003,-0.4545514,1.222334,0.2683949,0.1562028,0.7925883,0.08931499,-0.09333025,1.339291,0.08667169,-0.4082828,1.32419,-0.08852797,0.07759582,1.336172,0.006925859,-0.4041024,1.297028,-0.1318901,-0.1854162,1.329251,0.3069801,0.03547395,1.104006,NA,NA,Unknown,Closed,
0.1337891,0.6547852,0.5883789,0.9140625,-0.3173828,0.1152344,-1,-1,2,0,1,-2,-1,-9,0,0,-1,-1,-1,-1,-1,-1,36.75,36.75,36.75,-4.4375,-4.4375,-4.4375,6.315883,4.937222,3.265392,2.927037,3.039676,7.421535,-0.1135808,-0.4626942,1.227474,0.3107382,0.1093009,0.7897663,0.08451744,0.3732789,1.341021,-0.156483,-0.4616844,1.22668,0.2737453,0.1487772,0.8089001,0.08929904,-0.09333333,1.339261,0.08667406,-0.4082928,1.324165,-0.08857553,0.07762887,1.336133,0.006981204,-0.4040806,1.296879,-0.1319824,-0.1854514,1.329086,0.3070686,0.03120407,1.105316,NA,NA,Unknown,Unknown,
0.1328125,0.6435547,0.565918,0.9321289,-0.3105469,0.1142578,-1,0,-1,1,-2,-1,-3,22,-2,0,0,-1,-2,-1,-1,0,43.9375,43.9375,43.9375,-1.625,-1.625,-1.625,6.363498,4.956249,3.281762,2.924959,3.038177,7.420369,-0.1141602,-0.4618685,1.227702,0.3095462,0.100446,0.7920153,0.08450492,0.3733264,1.340976,-0.1560571,-0.4783345,1.229462,0.2763964,0.1338598,0.8302143,0.08923651,-0.09337223,1.339185,0.08656172,-0.4083759,1.324071,-0.08865009,0.07760905,1.336035,0.006920557,-0.4040772,1.296689,-0.1321539,-0.1855253,1.328906,0.310596,0.02001603,1.110443,NA,NA,Unknown,Unknown,
0.03955078,0.6235352,0.53125,0.925293,-0.3071289,0.1191406,-2,-3,-2,-1,-2,-1,-5,3,0,-2,-1,-3,-1,-1,-2,0,71.9375,71.9375,71.9375,0.3125,0.3125,0.3125,6.430861,4.974493,3.309805,2.926632,3.038197,7.418554,-0.1138758,-0.4626509,1.226996,0.3076614,0.08779798,0.794274,0.08448236,0.3733455,1.340939,-0.1558727,-0.4685323,1.226804,0.3522232,0.1215615,0.7967142,0.08921324,-0.09340155,1.339139,0.08654635,-0.4084075,1.324015,-0.08868967,0.0776336,1.335954,0.006924112,-0.4040743,1.296526,-0.1322315,-0.1855577,1.328674,0.3113118,0.01205986,1.113966,NA,NA,Unknown,Open,
0.06103516,0.699707,0.5048828,0.9262695,-0.3041992,0.1113281,-4,-4,-3,-3,-1,-2,-2,-6,-1,-1,-1,-1,0,0,-1,-1,81.0625,81.0625,81.0625,0.6875,0.6875,0.6875,6.518944,4.979295,3.333915,2.928993,3.037676,7.416884,-0.1135535,-0.4622212,1.226992,0.304104,0.07283247,0.7962849,0.08443311,0.373367,1.340793,-0.1550907,-0.4717703,1.223379,0.2748491,0.1022542,0.8265455,0.08918486,-0.09342114,1.339106,0.08652763,-0.4084323,1.324001,-0.08874296,0.07766216,1.335874,0.006923533,-0.4040574,1.296486,-0.1323503,-0.185647,1.328542,0.3386222,-0.0221228,1.09481,NA,NA,Unknown,Open,
0.0078125,0.7470703,0.5024414,0.9233398,-0.3144531,0.09960938,-1,-2,-2,-1,-2,-2,-1,-2,2,-2,0,-1,0,-1,0,-2,57.5625,57.5625,57.5625,-1.4375,-1.4375,-1.4375,6.588027,4.963869,3.362021,2.929777,3.036037,7.41607,-0.1135803,-0.4663659,1.226393,0.297305,0.03090237,0.8076345,0.08429542,0.3735331,1.340669,-0.1567408,-0.4717643,1.227884,0.2603563,0.06263491,0.844,0.08903196,-0.09347776,1.339022,0.08634529,-0.4085615,1.323944,-0.08885962,0.0776945,1.335694,0.006757655,-0.4039635,1.296256,-0.1325619,-0.1854886,1.328233,0.3283576,-0.03418527,1.151424,NA,NA,Unknown,Unknown,
0.07519531,0.7363281,0.4287109,0.9213867,-0.3173828,0.1025391,0,2,1,0,0,0,-1,-8,-2,0,0,0,0,-1,-1,0,41.1875,41.1875,41.1875,-1.1875,-1.1875,-1.1875,6.638408,4.915407,3.397753,2.928247,3.035661,7.417174,-0.1138374,-0.465901,1.22638,0.2976467,0.003525125,0.8163257,0.0842355,0.3735788,1.340652,-0.1590761,-0.4637498,1.229202,0.2574048,0.03743115,0.8455001,0.08901072,-0.09349646,1.339016,0.08635305,-0.4086111,1.323975,-0.08892748,0.0777169,1.335594,0.006771351,-0.4039655,1.296204,-0.1326087,-0.1855322,1.32816,0.3274637,-0.03487448,1.151356,NA,NA,Unknown,Unknown,
0.02099609,0.7875977,0.5058594,0.9199219,-0.3193359,0.1132813,-3,-5,-1,1,-2,0,5,-5,-1,-1,0,0,1,-1,0,0,27.0625,27.0625,27.0625,-0.625,-0.625,-0.625,6.666463,4.849609,3.423994,2.932624,3.034344,7.41431,-0.1130975,-0.4667679,1.225947,0.2975135,-0.02494891,0.8225566,0.08411054,0.3735882,1.34051,-0.1544708,-0.4668005,1.224241,0.2549545,0.003695401,0.8322222,0.08904494,-0.09353001,1.339047,0.08671051,-0.4088384,1.324305,-0.08903606,0.07767586,1.335447,0.007120516,-0.4041908,1.296329,-0.1327025,-0.1855832,1.328003,0.3269368,-0.03837004,1.154273,NA,NA,Unknown,Unknown,
0.1767578,0.8330078,0.4487305,0.9331055,-0.3115234,0.112793,-1,0,-1,0,-1,-1,0,2,-1,0,0,0,1,-2,-2,0,7.375,7.375,7.375,1.4375,1.4375,1.4375,6.679587,4.740722,3.447679,2.934682,3.03306,7.413353,-0.1134965,-0.4668912,1.22599,0.298684,-0.05846264,0.8342828,0.08401191,0.3737265,1.340521,-0.1557816,-0.4693109,1.226697,0.262408,-0.02021524,0.8170769,0.0890068,-0.09352695,1.339052,0.08668254,-0.4088507,1.324358,-0.08913004,0.07764079,1.335384,0.007117079,-0.4041869,1.296319,-0.1327584,-0.1856046,1.327875,0.3274963,-0.05047589,1.159116,NA,NA,Unknown,Closed,
0.1474609,0.859375,0.4560547,0.9243164,-0.3120117,0.1308594,1,1,-1,-1,1,0,-2,-2,-1,-2,-2,0,-1,0,0,-2,1.3125,1.3125,1.3125,-1.9375,-1.9375,-1.9375,6.679845,4.684086,3.455321,2.942524,3.031453,7.406318,-0.1138044,-0.4668006,1.225915,0.2971627,-0.08648314,0.8440103,0.08392547,0.373778,1.340487,-0.1567489,-0.4779983,1.227,0.2650685,-0.05266386,0.8356668,0.08899235,-0.09353589,1.339055,0.08667265,-0.4088929,1.324407,-0.08917561,0.07763334,1.335279,0.007129871,-0.4042239,1.296303,-0.1328096,-0.185637,1.327759,0.3169894,-0.08946823,1.223473,NA,NA,Unknown,Closed,
0.3535156,0.8886719,0.519043,0.9267578,-0.3129883,0.1269531,-2,-1,-2,-1,0,-2,0,-1,0,-1,-2,-1,-1,0,0,-2,0.3125,0.3125,0.3125,0.5625,0.5625,0.5625,6.67278,4.468803,3.481395,2.945814,3.030531,7.403577,-0.112886,-0.4671666,1.225836,0.2956406,-0.1500408,0.8715051,0.08357001,0.3738875,1.340241,-0.1545628,-0.4711992,1.225338,0.2808347,-0.1119493,0.878,0.08905289,-0.09361545,1.339541,0.08878989,-0.4092407,1.325937,-0.09233629,0.07663389,1.335942,0.009929283,-0.4048637,1.297514,-0.1329724,-0.1855047,1.327432,0.3233501,-0.1462595,1.262319,NA,NA,Unknown,Unknown,
0.3725586,0.9077148,0.5043945,0.934082,-0.2988281,0.1010742,1,3,3,0,-1,0,-1,-1,-1,-1,-1,1,-1,-2,-3,-3,4.6875,4.6875,4.6875,-2.3125,-2.3125,-2.3125,6.673091,4.392005,3.487986,2.95113,3.025481,7.39971,-0.1129369,-0.4676516,1.225402,0.2931898,-0.1821723,0.8883525,0.08326247,0.3739541,1.339858,-0.1547373,-0.4714963,1.224864,0.2982056,-0.1502661,0.8720001,0.08918639,-0.09368528,1.339564,0.0895084,-0.4094819,1.326286,-0.09424144,0.07589874,1.336362,0.01079033,-0.4050411,1.297671,-0.1330043,-0.1857883,1.326916,0.3239757,-0.1389549,1.206972,NA,NA,Unknown,Closed,
0.5063477,0.8828125,0.4799805,0.934082,-0.2988281,0.1010742,0,0,-2,-2,-2,-1,-2,0,0,-1,-1,-1,0,0,0,-1,30,30,30,-2.3125,-2.3125,-2.3125,6.699938,4.162949,3.503588,2.95113,3.025481,7.39971,-0.1130787,-0.4676247,1.226812,0.2922779,-0.214964,0.909472,0.08302075,0.3740597,1.339602,-0.1525318,-0.476219,1.222105,0.3090784,-0.187645,0.891394,0.08934272,-0.09375391,1.339614,0.09002826,-0.409666,1.326665,-0.09526332,0.07541309,1.336613,0.01153223,-0.4051844,1.297988,-0.1329794,-0.1858365,1.3268,0.3244129,-0.1412848,1.205589,NA,NA,Unknown,Closed,
0.543457,0.9179688,0.4121094,0.9370117,-0.3071289,0.1225586,-2,-3,-1,-3,-3,-3,-1,-2,0,-2,-1,-1,-1,-1,-1,-1,24.125,24.125,24.125,-2.25,-2.25,-2.25,6.734028,4.017043,3.497935,2.954333,3.022915,7.393795,-0.1130347,-0.4678437,1.226883,0.2879322,-0.2523415,0.9222704,0.08281634,0.37414,1.339271,-0.1545144,-0.4712001,1.225725,0.3065657,-0.2276642,0.8965239,0.08924899,-0.09372703,1.33977,0.09061921,-0.4097203,1.326957,-0.096103,0.07510021,1.336671,0.0123337,-0.4054202,1.298201,-0.1329336,-0.1859822,1.32666,0.325523,-0.147412,1.202381,NA,NA,Unknown,Unknown,
0.5952148,0.8828125,0.4262695,0.9282227,-0.2998047,0.09423828,-1,1,1,-2,0,-1,-2,-1,-2,-2,0,-1,1,-1,-1,-3,16,16,16,-2,-2,-2,6.747868,3.946144,3.490093,2.951232,3.016325,7.395786,-0.1127262,-0.4673557,1.225994,0.2885979,-0.2766685,0.9554382,0.08268319,0.3742345,1.338934,-0.1529777,-0.4855269,1.227462,0.3063544,-0.2475556,0.9447961,0.08926274,-0.09373575,1.339841,0.09166724,-0.4097795,1.327263,-0.09649804,0.07496851,1.336527,0.01357272,-0.4056206,1.298274,-0.1329393,-0.1858616,1.326451,0.3097371,-0.1507337,1.278041,NA,NA,Unknown,Unknown,
0.6894531,0.8486328,0.4047852,0.9389648,-0.3007813,0.1137695,-2,-2,-1,0,-2,-1,1,-2,0,-2,-1,0,-1,-2,-1,-1,20.1875,20.1875,20.1875,-2.6875,-2.6875,-2.6875,6.762325,3.803064,3.499282,2.945503,3.01085,7.397365,-0.1123444,-0.4671263,1.227171,0.2870401,-0.3030595,0.9803239,0.08254121,0.374386,1.338292,-0.1532656,-0.4712198,1.228104,0.3019405,-0.2862275,0.9446552,0.0892039,-0.09374663,1.339862,0.09192725,-0.4099096,1.327294,-0.09686134,0.07470681,1.336393,0.01382814,-0.405651,1.298185,-0.1329436,-0.1858834,1.326292,0.309799,-0.1514932,1.278418,NA,NA,Unknown,Closed,
0.6679688,0.8232422,0.3291016,0.9389648,-0.3007813,0.1137695,-2,-2,-1,0,-2,-1,1,-2,0,-2,-1,0,-1,-2,-1,-1,25.5,25.5,25.5,-2.6875,-2.6875,-2.6875,6.775609,3.732662,3.501298,2.945503,3.01085,7.397365,-0.1126279,-0.4674319,1.22653,0.2858713,-0.3268897,1.006573,0.08254464,0.3745903,1.337331,-0.1540638,-0.4647605,1.227867,0.2798917,-0.2915479,0.9883243,0.0891625,-0.09373446,1.339843,0.0921817,-0.4100233,1.32721,-0.09729264,0.0745651,1.336052,0.01420939,-0.4056834,1.297952,-0.1328321,-0.1861483,1.325803,0.309971,-0.1546481,1.28043,NA,NA,Unknown,Closed,
0.6704102,0.7602539,0.3046875,0.9345703,-0.2973633,0.1049805,0,1,-1,0,-4,-1,-2,-1,-1,-1,-1,0,-1,0,0,-2,37.0625,37.0625,37.0625,-2.3125,-2.3125,-2.3125,6.843088,3.614509,3.465834,2.940947,3.009027,7.401054,-0.1124037,-0.4672005,1.227288,0.2835574,-0.3514779,1.027553,0.08257534,0.3747034,1.336504,-0.1525328,-0.4723224,1.223278,0.2769684,-0.3163419,1.004546,0.08912944,-0.09374675,1.339814,0.09234849,-0.4101601,1.327092,-0.09752001,0.07449037,1.335911,0.01449212,-0.4057764,1.297626,-0.1327708,-0.1862914,1.325436,0.3103319,-0.1578928,1.283885,NA,NA,Unknown,Closed,
0.7446289,0.7216797,0.3237305,0.9291992,-0.2929688,0.1103516,-1,-2,-3,-2,-1,-1,-2,3,-2,-2,-1,0,-1,-1,0,1,36.1875,36.1875,36.1875,-1.375,-1.375,-1.375,6.883401,3.55734,3.438898,2.937084,3.005444,7.40276,-0.1120589,-0.4679002,1.22721,0.2808573,-0.3714038,1.046268,0.08272068,0.3748216,1.33586,-0.1544502,-0.4692488,1.23026,0.2888739,-0.4070545,1.0909,0.08917496,-0.09376565,1.339788,0.09297863,-0.4103162,1.327056,-0.0978434,0.07430666,1.335652,0.01525804,-0.4059635,1.297471,-0.1327217,-0.1863947,1.325255,0.3102826,-0.1598773,1.286323,NA,NA,Unknown,Closed,
0.7729492,0.6928711,0.1835938,0.9423828,-0.2924805,0.1069336,-1,-2,0,-1,0,-1,-1,-8,-1,-1,0,0,-2,0,-1,-2,39.375,39.375,39.375,-5.4375,-5.4375,-5.4375,7.032344,3.392442,3.332584,2.929312,3.002947,7.40629,-0.1123883,-0.4681215,1.228067,0.2843453,-0.3743941,1.080842,0.08284815,0.3747599,1.335148,-0.1540092,-0.4712958,1.228888,0.2790998,-0.4175346,1.1209,0.08913103,-0.09377354,1.339743,0.09295556,-0.4103268,1.327017,-0.09636511,0.07481572,1.334504,0.01523732,-0.4059398,1.297347,-0.1327704,-0.1864854,1.325096,0.3097599,-0.1619368,1.289378,NA,NA,Unknown,Closed,
0.8842773,0.625,0.1376953,0.940918,-0.3056641,0.1137695,-1,1,-2,-1,0,-1,-1,-6,0,-1,0,0,0,0,-1,-1,41.25,41.25,41.25,-4.6875,-4.6875,-4.6875,7.193111,3.295696,3.200202,2.926824,3.002938,7.406671,-0.1127756,-0.467578,1.227745,0.2816787,-0.3965469,1.086162,0.08309592,0.3748227,1.334349,-0.1595334,-0.4582266,1.235833,0.2984563,-0.4142311,1.064867,0.08905838,-0.09373818,1.339678,0.09292419,-0.4102426,1.326857,-0.09523923,0.07514836,1.33381,0.015228,-0.4059148,1.297072,-0.1327375,-0.1865255,1.324969,0.3090676,-0.1644796,1.292557,NA,NA,Unknown,Closed,
0.9741211,0.5356445,0.05126953,0.9331055,-0.2861328,0.1030273,2,-1,-3,-2,-2,-1,1,-2,-1,0,0,-1,0,1,0,-1,33.875,33.875,33.875,-3.0625,-3.0625,-3.0625,7.372572,3.201957,3.042799,2.924702,3.001917,7.40654,-0.1127296,-0.4664013,1.226257,0.2795966,-0.4312918,1.11951,0.08362906,0.3748032,1.332849,-0.1549476,-0.4671664,1.228919,0.3093779,-0.4247876,1.111733,0.09006859,-0.09381717,1.339146,0.09474243,-0.4100886,1.326451,-0.09384423,0.07557895,1.332595,0.0169262,-0.4060003,1.296227,-0.1324001,-0.1869565,1.324021,0.307947,-0.1690141,1.297475,NA,NA,NotTracked,Closed,
0.9638672,0.5302734,-0.08056641,0.9316406,-0.2958984,0.09375,-2,-1,-2,-1,-2,-2,-1,0,0,0,-3,-2,-1,-1,0,-1,48.625,48.625,48.625,-5.4375,-5.4375,-5.4375,7.585936,3.130372,2.862942,2.920539,3.002022,7.407909,-0.1121525,-0.4674857,1.226597,0.2817622,-0.4439586,1.138489,0.08381181,0.3748589,1.33243,-0.1556949,-0.4684764,1.231084,0.3072404,-0.4383201,1.120217,0.09066623,-0.09375781,1.339236,0.09760402,-0.409707,1.326994,-0.09430969,0.07541846,1.332554,0.01983424,-0.4062804,1.29637,-0.132295,-0.1871493,1.323743,0.3073687,-0.1708379,1.298994,NA,NA,NotTracked,Unknown,
1.023926,0.5581055,-0.1044922,0.9335938,-0.3027344,0.09472656,-1,1,-1,-2,-2,0,1,-3,0,0,-1,-2,-1,-2,0,-1,36.5,36.5,36.5,-3.5,-3.5,-3.5,7.781387,3.098876,2.704362,2.913697,3.003432,7.410162,-0.1114892,-0.4672782,1.224849,0.282301,-0.452407,1.152965,0.08408535,0.3748154,1.331686,-0.1536801,-0.4659716,1.227952,0.2869115,-0.442916,1.116706,0.0907176,-0.09374431,1.339165,0.09788536,-0.4096734,1.326818,-0.09485888,0.07510102,1.332286,0.02021639,-0.4063673,1.296019,-0.1320751,-0.1871643,1.323002,0.3061472,-0.171552,1.299598,NA,NA,NotTracked,Unknown,
1.016602,0.4707031,-0.08398438,0.9345703,-0.296875,0.09179688,0,0,-2,0,1,-2,-2,0,0,0,-1,0,-1,-1,1,-1,11.375,11.375,11.375,0.4375,0.4375,0.4375,7.857464,3.080621,2.641325,2.907939,3.005426,7.415956,-0.1118649,-0.4670963,1.225551,0.2839127,-0.4606674,1.165777,0.08424958,0.374774,1.331303,-0.155338,-0.4658062,1.231983,0.3182602,-0.4525908,1.16675,0.09072711,-0.09372018,1.339043,0.09784956,-0.4095784,1.326539,-0.09416513,0.07545094,1.331963,0.02022104,-0.4062744,1.295632,-0.1319845,-0.1872208,1.322869,0.3045104,-0.1749587,1.300945,NA,NA,NotTracked,Closed,
0.972168,0.3754883,-0.05224609,0.9331055,-0.2832031,0.09472656,-2,0,-2,-1,-1,-2,-2,-1,-1,-2,-1,0,-1,-2,0,1,29.625,29.625,29.625,1.875,1.875,1.875,7.857663,3.071145,2.666598,2.907317,3.006684,7.418132,-0.1115369,-0.4661679,1.224349,0.2844136,-0.4631758,1.174762,0.08452839,0.374745,1.330692,-0.1547148,-0.4714738,1.229974,0.3188077,-0.4562359,1.174655,0.09195426,-0.093733,1.338813,0.09929061,-0.4094482,1.326585,-0.09356927,0.07572287,1.331575,0.02166555,-0.4065018,1.295515,-0.1318741,-0.1870766,1.322494,0.3035288,-0.1766455,1.301438,NA,NA,NotTracked,Closed,
0.9321289,0.4086914,-0.03564453,0.9326172,-0.2695313,0.09472656,-1,-2,-1,-2,-2,1,-1,1,0,0,-1,0,-1,-2,-1,-3,57.0625,57.0625,57.0625,4.25,4.25,4.25,7.838791,3.078153,2.746667,2.908587,3.007429,7.424011,-0.1115813,-0.4668737,1.224162,0.2844923,-0.4632556,1.184807,0.08486366,0.3746063,1.330087,-0.1546763,-0.4672491,1.229189,0.3206995,-0.4582682,1.191333,0.09259553,-0.09377305,1.338331,0.09937009,-0.4093787,1.326137,-0.09278085,0.07602409,1.331099,0.02169697,-0.4064547,1.294976,-0.1314691,-0.1881826,1.321922,0.3024473,-0.178642,1.302939,NA,NA,NotTracked,Unknown,
0.8989258,0.4624023,-0.02197266,0.9262695,-0.2685547,0.09912109,0,0,-2,-1,0,-1,-1,-2,-2,-1,-1,-2,-1,-1,0,-1,49.75,49.75,49.75,2.125,2.125,2.125,7.80636,3.095943,2.843551,2.911145,3.005192,7.425337,-0.1114308,-0.4658684,1.224388,0.2834119,-0.4627461,1.18556,0.08503954,0.3745213,1.329636,-0.1547925,-0.4697674,1.228858,0.3212482,-0.4738085,1.192625,0.09257867,-0.09376454,1.338293,0.09948677,-0.409364,1.325997,-0.09246702,0.0761532,1.330895,0.02176498,-0.4064875,1.294864,-0.1313763,-0.1885463,1.32161,0.3027574,-0.1790635,1.30365,NA,NA,NotTracked,Unknown,
0.8852539,0.4418945,-0.01269531,0.9228516,-0.2685547,0.1010742,0,-1,-2,-1,-1,-1,-2,0,-1,0,-1,0,0,0,-1,0,26.6875,26.6875,26.6875,0.375,0.375,0.375,7.760952,3.112596,2.929276,2.911573,3.003466,7.425573,-0.111438,-0.4668749,1.225856,0.2823443,-0.4610431,1.187008,0.08518548,0.3744662,1.329456,-0.1566329,-0.4714257,1.221743,0.3222544,-0.461844,1.1969,0.09286025,-0.09373228,1.338139,0.09955156,-0.4093294,1.325924,-0.09286762,0.07608596,1.330836,0.02179583,-0.406487,1.294811,-0.131321,-0.1885561,1.321526,0.3035717,-0.1791569,1.305286,NA,NA,NotTracked,Unknown,
0.8769531,0.4135742,-0.007324219,0.9228516,-0.2685547,0.1010742,-1,-1,-2,-2,-1,-2,-1,-2,-1,0,-1,-1,-1,-1,-1,0,11.9375,11.9375,11.9375,0.375,0.375,0.375,7.715622,3.124324,2.99449,2.911573,3.003466,7.425573,-0.1121635,-0.4672341,1.226627,0.2798116,-0.4605149,1.185393,0.08529833,0.3744603,1.329257,-0.1542238,-0.4716782,1.229348,0.3185824,-0.4612156,1.186634,0.09302755,-0.09374946,1.338059,0.09958177,-0.4093316,1.325892,-0.09256674,0.0761877,1.330708,0.02181198,-0.4064978,1.294786,-0.1313622,-0.1884346,1.321534,0.3039072,-0.1794859,1.3061,NA,NA,NotTracked,Unknown,
0.8862305,0.4008789,-0.005859375,0.9228516,-0.2685547,0.1010742,-1,-1,-1,-1,0,0,-1,1,0,0,1,-2,0,-1,0,-1,7.5,7.5,7.5,0.375,0.375,0.375,7.696816,3.128407,3.018652,2.911573,3.003466,7.425573,-0.1114357,-0.4671662,1.227022,0.2777706,-0.4594352,1.184013,0.0853458,0.3744293,1.329143,-0.1548848,-0.46241,1.233464,0.3023771,-0.4588838,1.158533,0.09324387,-0.09377293,1.337968,0.09963354,-0.4093368,1.325866,-0.09291994,0.07606622,1.330751,0.02186586,-0.4065237,1.294757,-0.1313377,-0.1884881,1.321539,0.3040775,-0.1794812,1.306479,NA,NA,NotTracked,Unknown,
0.9135742,0.3720703,-0.03320313,0.9228516,-0.2685547,0.1010742,-2,0,-1,-1,-4,-2,-2,0,0,-1,-1,-1,-2,0,-1,-1,5.875,5.875,5.875,0.375,0.375,0.375,7.653825,3.135716,3.07392,2.911573,3.003466,7.425573,-0.1120245,-0.4657437,1.226999,0.2719666,-0.459727,1.179165,0.08537525,0.3743902,1.329076,-0.1545483,-0.4659895,1.230272,0.2956691,-0.45632,1.151609,0.09339896,-0.09374166,1.337827,0.09931517,-0.4092345,1.32556,-0.09297059,0.07611294,1.330802,0.02149841,-0.4064025,1.294447,-0.1312829,-0.1885383,1.321511,0.3045681,-0.1795235,1.307472,NA,NA,NotTracked,Unknown,
0.9169922,0.3701172,-0.04980469,0.9350586,-0.3178711,0.1079102,-2,-1,-1,-2,0,-1,-1,-1,0,-2,-3,-1,0,-2,-2,-2,10.4375,10.4375,10.4375,3.1875,3.1875,3.1875,7.632918,3.139927,3.108422,2.912811,3.003852,7.427275,-0.1104902,-0.4669533,1.226554,0.2692856,-0.4592074,1.176541,0.08538673,0.3743753,1.329063,-0.1527638,-0.4606802,1.231249,0.308181,-0.4786651,1.183222,0.09330907,-0.09370682,1.337824,0.09929118,-0.4092116,1.325518,-0.09262087,0.07623109,1.330712,0.02143234,-0.4063883,1.294395,-0.1312498,-0.1885048,1.321485,0.3047314,-0.1791005,1.307551,NA,NA,NotTracked,Unknown,
0.9291992,0.3696289,-0.06494141,0.9267578,-0.2978516,0.09814453,0,-1,-1,-1,0,-1,-2,-1,-2,-2,-1,0,-1,0,-2,-2,14.6875,14.6875,14.6875,2.375,2.375,2.375,7.61306,3.14535,3.147433,2.914691,3.007663,7.429244,-0.1111752,-0.4677736,1.226619,0.266459,-0.457811,1.174423,0.08539499,0.374357,1.32901,-0.1546084,-0.4669449,1.231792,0.3074965,-0.4638789,1.183909,0.09331325,-0.09368526,1.337871,0.09971795,-0.4091424,1.325596,-0.0923003,0.07633414,1.330634,0.02185846,-0.4063877,1.294497,-0.1312443,-0.1885077,1.321487,0.3047374,-0.1790901,1.307566,NA,NA,NotTracked,Unknown,
0.9111328,0.3774414,-0.06933594,0.9355469,-0.2885742,0.1088867,-3,-2,-1,-4,-4,-2,0,0,0,0,0,-2,-1,-2,0,0,15.875,15.875,15.875,-0.3125,-0.3125,-0.3125,7.593932,3.152327,3.189037,2.916268,3.009868,7.429666,-0.1113314,-0.4670784,1.226492,0.2640634,-0.4568558,1.172873,0.08539965,0.3743472,1.329009,-0.1542253,-0.4672067,1.232698,0.2699564,-0.448391,1.135315,0.09327846,-0.09367619,1.337817,0.09886938,-0.4090885,1.325257,-0.09288143,0.07612313,1.330925,0.02095622,-0.4062262,1.294125,-0.1312887,-0.1881859,1.321672,0.3048109,-0.179059,1.307648,NA,NA,NotTracked,Unknown,
0.9121094,0.3891602,-0.05615234,0.9326172,-0.2822266,0.09863281,0,-1,-2,-3,-1,-3,-1,-1,-1,-2,1,0,-2,0,-1,-2,14.8125,14.8125,14.8125,0.3125,0.3125,0.3125,7.575378,3.160115,3.229156,2.916472,3.009659,7.42988,-0.1108329,-0.4669501,1.226135,0.2604335,-0.4558417,1.170063,0.08539923,0.3742641,1.329048,-0.1531367,-0.4688366,1.227682,0.2874024,-0.4528811,1.148635,0.09319482,-0.09364191,1.337839,0.09881192,-0.4090735,1.32523,-0.09327719,0.07604828,1.331135,0.02084657,-0.4062181,1.294142,-0.1311625,-0.1883591,1.321811,0.3048022,-0.1790063,1.307637,NA,NA,NotTracked,Unknown,
0.902832,0.4038086,-0.05419922,0.9350586,-0.2856445,0.09765625,-2,0,0,0,4,-1,-1,0,0,0,-1,0,-1,-1,-1,0,11.75,11.75,11.75,1,1,1,7.566565,3.164364,3.246606,2.918026,3.007807,7.430669,-0.1111864,-0.4663596,1.226482,0.2544657,-0.454212,1.166046,0.08537229,0.374194,1.329085,-0.1544174,-0.4676211,1.227546,0.295251,-0.4667639,1.173063,0.09377187,-0.0935289,1.338132,0.1003172,-0.4089049,1.325928,-0.09435586,0.07564054,1.331665,0.02253,-0.406412,1.295033,-0.1311125,-0.1885117,1.32186,0.3046478,-0.1788008,1.307581,NA,NA,NotTracked,Unknown,
0.8959961,0.3935547,-0.04443359,0.9331055,-0.2832031,0.09228516,0,-2,0,4,-2,-2,0,1,0,-1,-1,-1,0,-1,1,0,11.0625,11.0625,11.0625,1.0625,1.0625,1.0625,7.558847,3.172183,3.277147,2.918126,3.007089,7.431394,-0.1117051,-0.4666283,1.22699,0.2583006,-0.4357958,1.169548,0.08536368,0.3742224,1.329127,-0.1537616,-0.4685211,1.229365,0.270585,-0.4494902,1.134865,0.09349585,-0.09352213,1.337932,0.09839772,-0.4089219,1.325062,-0.09375038,0.0759164,1.331559,0.02025329,-0.4060621,1.294286,-0.1311085,-0.1885184,1.321874,0.3045827,-0.1786979,1.30745,NA,NA,NotTracked,Unknown,
0.8979492,0.3691406,-0.03369141,0.9272461,-0.2939453,0.09570313,1,-1,-2,1,0,-1,0,-3,0,1,0,-1,0,-2,1,1,12.0625,12.0625,12.0625,3.1875,3.1875,3.1875,7.562627,3.170675,3.28724,2.915157,3.005166,7.438813,-0.1123063,-0.4667906,1.228092,0.2567828,-0.4343069,1.169941,0.08533812,0.3742371,1.329233,-0.1544267,-0.4675139,1.230733,0.2960031,-0.4520375,1.179333,0.09324118,-0.09350735,1.337776,0.0967295,-0.4088166,1.324606,-0.09417466,0.07583277,1.331814,0.01839605,-0.4057222,1.293939,-0.1311095,-0.1884994,1.321939,0.3047337,-0.178346,1.307354,NA,NA,NotTracked,Unknown,
0.8999023,0.3691406,-0.03027344,0.9326172,-0.2958984,0.1083984,-1,-1,-2,0,-9,0,0,0,-1,-1,-2,-2,0,-1,-1,-1,17.5,17.5,17.5,4.3125,4.3125,4.3125,7.579659,3.165914,3.288736,2.915655,3.005584,7.44378,-0.1119445,-0.4669164,1.228045,0.2559129,-0.4330409,1.170778,0.08531201,0.3742271,1.32933,-0.1534774,-0.4693939,1.229018,0.2646851,-0.4476269,1.135115,0.09296958,-0.09349468,1.337689,0.09527362,-0.408739,1.324335,-0.09368177,0.07605422,1.331753,0.01681274,-0.4054047,1.293761,-0.1310491,-0.1885766,1.322104,0.3046132,-0.177919,1.307052,NA,NA,NotTracked,Unknown,
0.8994141,0.3857422,-0.0390625,0.9350586,-0.3022461,0.1088867,0,0,-1,-2,-3,-1,-1,1,-2,-1,-1,-3,0,-1,-2,-1,16,16,16,4.625,4.625,4.625,7.605053,3.161558,3.28205,2.914083,3.006864,7.451403,-0.1119875,-0.4675227,1.228788,0.2554659,-0.4321302,1.171615,0.08530396,0.3742135,1.329342,-0.1536714,-0.4704898,1.230924,0.2928801,-0.4522625,1.178167,0.09207708,-0.09340248,1.337817,0.09430206,-0.4087882,1.32418,-0.09425784,0.07582935,1.332156,0.01566411,-0.4052368,1.293576,-0.1310996,-0.1885528,1.322353,0.3046104,-0.1778281,1.30697,NA,NA,NotTracked,Unknown,
0.9003906,0.4189453,-0.05908203,0.9360352,-0.300293,0.1108398,-1,-1,-2,0,0,-2,-1,-1,0,1,-1,-1,0,-1,-2,-1,8.4375,8.4375,8.4375,5.1875,5.1875,5.1875,7.631228,3.159204,3.267867,2.914457,3.008985,7.458064,-0.1126966,-0.4675168,1.228619,0.255609,-0.4319335,1.172771,0.08525343,0.3742152,1.329375,-0.1549026,-0.4663101,1.231276,0.2922305,-0.4502443,1.176411,0.09175067,-0.09334043,1.33749,0.09284069,-0.4086198,1.323598,-0.09433355,0.07592479,1.332301,0.01427257,-0.4049338,1.29314,-0.131115,-0.1883716,1.322689,0.3042605,-0.1774659,1.306482,NA,NA,NotTracked,Unknown,
0.9077148,0.4316406,-0.04150391,0.9248047,-0.3007813,0.1074219,-1,0,-3,-4,-13,-2,-1,-1,0,0,0,-3,0,-2,0,-3,-7.625,-7.625,-7.625,4.6875,4.6875,4.6875,7.643319,3.159143,3.250371,2.916487,3.010444,7.462368,-0.1122506,-0.4665762,1.228996,0.2560084,-0.4325942,1.173142,0.08521958,0.3741997,1.32939,-0.1549091,-0.4685951,1.231779,0.2912314,-0.4483749,1.172304,0.09163757,-0.09335624,1.337413,0.09240153,-0.4086787,1.323471,-0.09470312,0.07585571,1.332693,0.01386317,-0.4049197,1.293124,-0.1310322,-0.1885301,1.322905,0.3042048,-0.1773549,1.306361,NA,NA,NotTracked,Unknown,
0.9160156,0.3925781,-0.03125,0.9262695,-0.2924805,0.109375,-1,-2,-2,1,4,-2,-1,-2,1,0,-1,0,1,-2,-3,0,-11.5,-11.5,-11.5,1.0625,1.0625,1.0625,7.641715,3.157844,3.237867,2.916412,3.00966,7.465096,-0.1132064,-0.4669851,1.230237,0.2568264,-0.4329448,1.174046,0.08519886,0.3741874,1.329403,-0.1563785,-0.4576951,1.230871,0.2900772,-0.4595354,1.1694,0.09154594,-0.09336121,1.337394,0.09207445,-0.4086798,1.323449,-0.09527034,0.07584277,1.333412,0.01349577,-0.4048417,1.293116,-0.1310693,-0.1882288,1.323406,0.304231,-0.1772715,1.306318,NA,NA,NotTracked,Unknown,
0.9106445,0.3852539,-0.02001953,0.9287109,-0.296875,0.1074219,-2,-2,-2,-3,-1,-1,-3,-3,0,-2,-1,1,-1,-1,-1,-1,-4.125,-4.125,-4.125,-0.5625,-0.5625,-0.5625,7.642255,3.156801,3.229827,2.916088,3.008307,7.465953,-0.1130047,-0.4670717,1.229999,0.2573076,-0.4326005,1.173721,0.08519185,0.374163,1.329415,-0.1566745,-0.4570882,1.233145,0.2939091,-0.4452439,1.176211,0.09186337,-0.09336904,1.337507,0.09345189,-0.4086558,1.324224,-0.0944282,0.07612398,1.333117,0.01515273,-0.4051389,1.294062,-0.1310475,-0.1882857,1.323515,0.3041721,-0.1774668,1.305973,NA,NA,NotTracked,Unknown,
0.9130859,0.3842773,-0.01806641,0.9287109,-0.3007813,0.1049805,-2,0,0,-1,8,-2,0,0,-1,0,0,-2,-2,-3,-1,-1,-0.0625,-0.0625,-0.0625,-2.4375,-2.4375,-2.4375,7.64451,3.156171,3.22593,2.913069,3.006341,7.467397,-0.112942,-0.4675151,1.229398,0.2577981,-0.4328187,1.173271,0.0851877,0.3741631,1.329436,-0.1543819,-0.4527346,1.209895,0.2947198,-0.4406185,1.1765,0.09184333,-0.09331386,1.337696,0.09407832,-0.4086708,1.324664,-0.09374798,0.07635092,1.33295,0.01596036,-0.405286,1.29467,-0.1310562,-0.1882892,1.323601,0.3041524,-0.1773427,1.305888,NA,NA,NotTracked,Unknown,
0.9077148,0.3867188,-0.02246094,0.9272461,-0.3061523,0.09960938,-2,0,-1,-2,1,-1,-1,-1,1,-1,-3,0,1,-1,-1,-1,0.0625,0.0625,0.0625,-2.375,-2.375,-2.375,7.645641,3.154456,3.224427,2.911485,3.006157,7.467854,-0.1125068,-0.4680338,1.230891,0.2595443,-0.4309601,1.174142,0.08516793,0.3741381,1.329503,-0.1557012,-0.4649173,1.239389,0.2938815,-0.4430323,1.17533,0.09137846,-0.09323371,1.337793,0.09347992,-0.4086832,1.324539,-0.09429128,0.07620528,1.333491,0.0151727,-0.4051682,1.294569,-0.131108,-0.1880878,1.323987,0.3042465,-0.1772618,1.3058,NA,NA,NotTracked,Unknown,
0.9101563,0.390625,-0.02734375,0.9311523,-0.3041992,0.1098633,1,-2,-1,-2,2,0,-1,-2,-2,0,-1,-2,-2,-2,1,0,-1.1875,-1.1875,-1.1875,-1.3125,-1.3125,-1.3125,7.644189,3.154253,3.225121,2.909233,3.006237,7.467868,-0.1131131,-0.4668528,1.230952,0.2595929,-0.4309183,1.173782,0.0851757,0.3741277,1.32951,-0.1538932,-0.4645858,1.226948,0.2660734,-0.4499786,1.13738,0.09124903,-0.09317297,1.337945,0.09355503,-0.4086578,1.324619,-0.09387538,0.0763495,1.333369,0.01520757,-0.4051638,1.294634,-0.131057,-0.1882467,1.324166,0.304173,-0.177157,1.305653,NA,NA,NotTracked,Unknown,
0.9121094,0.3916016,-0.03369141,0.9296875,-0.2949219,0.1044922,0,0,-1,0,-5,-2,-3,0,-1,0,-1,0,-2,-1,0,-3,-2.4375,-2.4375,-2.4375,-0.5625,-0.5625,-0.5625,7.640857,3.153439,3.225775,2.909721,3.007252,7.467531,-0.1132151,-0.465398,1.231842,0.2596672,-0.4310629,1.174427,0.08518463,0.3741224,1.329501,-0.155578,-0.4635212,1.234257,0.2951837,-0.4421441,1.176692,0.09123257,-0.09317624,1.337932,0.09323546,-0.4086356,1.324638,-0.09334529,0.07653891,1.333192,0.01482132,-0.4050657,1.294692,-0.1311553,-0.1881808,1.324417,0.3043157,-0.1771117,1.305638,NA,NA,NotTracked,Unknown,
0.9057617,0.3916016,-0.03417969,0.9262695,-0.2871094,0.1079102,-1,-1,-1,-2,1,-1,-2,-2,0,-2,-1,-1,-1,-2,-2,-1,-2.5625,-2.5625,-2.5625,-1.25,-1.25,-1.25,7.638672,3.152558,3.225303,2.911571,3.006938,7.465117,-0.1128832,-0.4651498,1.230764,0.2595564,-0.4307537,1.174354,0.08521523,0.374127,1.329499,-0.1541481,-0.4639784,1.228178,0.2942979,-0.4413115,1.175965,0.0913053,-0.09310715,1.338108,0.09425487,-0.4085349,1.325176,-0.0929474,0.07669226,1.333054,0.01585291,-0.4051132,1.295216,-0.1311651,-0.1881669,1.324511,0.3042138,-0.1769933,1.305567,NA,NA,NotTracked,Unknown,
0.902832,0.3930664,-0.04296875,0.9267578,-0.2885742,0.1020508,-3,-1,0,0,3,-2,-3,-1,-2,-2,0,-2,-2,1,-1,0,-3.8125,-3.8125,-3.8125,-3.5625,-3.5625,-3.5625,7.637978,3.152432,3.221913,2.910414,3.00483,7.463435,-0.1123988,-0.4657349,1.231429,0.2596026,-0.4307815,1.175094,0.08524965,0.3740761,1.329461,-0.1542179,-0.4645146,1.231238,0.2652924,-0.4517967,1.138309,0.0917512,-0.09313186,1.338238,0.09534292,-0.4084833,1.325816,-0.09268693,0.0767936,1.332952,0.01689467,-0.40525,1.295782,-0.131206,-0.1879394,1.324587,0.3041445,-0.1764275,1.305445,NA,NA,NotTracked,Unknown,
0.9033203,0.3984375,-0.04052734,0.9296875,-0.2890625,0.1044922,-1,1,-1,0,4,-1,-2,-2,0,0,1,1,-1,0,-1,-3,-4.75,-4.75,-4.75,-3.5,-3.5,-3.5,7.638662,3.151357,3.215938,2.909378,3.002452,7.460786,-0.1125803,-0.4653302,1.231152,0.2547939,-0.4451671,1.172905,0.08530822,0.3740135,1.329414,-0.1529782,-0.4679972,1.229252,0.2912045,-0.4521717,1.17715,0.09308534,-0.09322763,1.338671,0.09833276,-0.4085658,1.327566,-0.09294032,0.07684474,1.333019,0.01991696,-0.4056524,1.297416,-0.1311639,-0.187778,1.324668,0.3040618,-0.176419,1.30546,NA,NA,NotTracked,Unknown,
0.9111328,0.3920898,-0.03662109,0.9296875,-0.2954102,0.1030273,-1,-1,0,1,7,1,-1,-1,-1,-2,-2,-2,-2,-1,-3,0,-4.5,-4.5,-4.5,-3.25,-3.25,-3.25,7.641484,3.149585,3.207483,2.910754,3.0008,7.456575,-0.1128242,-0.4656321,1.231958,0.2600383,-0.4299469,1.176598,0.0853525,0.3739679,1.329356,-0.1553277,-0.4611509,1.235486,0.296382,-0.4395419,1.181539,0.09309407,-0.09322979,1.338668,0.09821972,-0.4085562,1.327549,-0.09250201,0.07693988,1.332793,0.01975431,-0.4056178,1.297382,-0.1311246,-0.1877501,1.324667,0.3040814,-0.1767289,1.305376,NA,NA,NotTracked,Unknown,
0.9008789,0.3994141,-0.03662109,0.9360352,-0.2949219,0.1020508,-1,-2,-2,0,8,-2,0,-2,-1,-4,0,-1,0,-1,1,-1,-4.875,-4.875,-4.875,-2.6875,-2.6875,-2.6875,7.644057,3.147969,3.198995,2.910626,2.998879,7.454286,-0.1118232,-0.465298,1.231607,0.2551965,-0.4455501,1.174377,0.08543597,0.3739495,1.329294,-0.1529623,-0.4834943,1.231,0.2902293,-0.4538966,1.173833,0.09363551,-0.09324913,1.338835,0.09928617,-0.4085885,1.328128,-0.09287784,0.07681826,1.332913,0.02094248,-0.4059154,1.297964,-0.1311494,-0.1875415,1.324664,0.3039806,-0.1766714,1.305426,NA,NA,NotTracked,Unknown,
0.9179688,0.4008789,-0.0234375,0.9370117,-0.2915039,0.09570313,-2,-1,-2,-1,1,0,-1,-1,0,1,-1,-2,0,-1,0,0,-2.5625,-2.5625,-2.5625,-2.25,-2.25,-2.25,7.646833,3.1469,3.191654,2.909501,2.9974,7.453292,-0.1121235,-0.4653279,1.231628,0.2605167,-0.4315076,1.177294,0.08555681,0.3739353,1.329156,-0.1536386,-0.4711614,1.230361,0.2669298,-0.4506326,1.1414,0.09383828,-0.09325119,1.33887,0.09940559,-0.4085852,1.328238,-0.09248772,0.07693274,1.332655,0.0210417,-0.4059373,1.298028,-0.1311399,-0.1875253,1.324687,0.3040158,-0.1766452,1.305508,NA,NA,NotTracked,Unknown,
0.9072266,0.4082031,-0.02587891,0.9321289,-0.2919922,0.09716797,0,-1,2,-1,0,-2,0,-2,-1,-2,-2,-4,-1,-2,0,-1,-3.125,-3.125,-3.125,-2,-2,-2,7.64905,3.1469,3.185229,2.909767,2.997297,7.451339,-0.1115238,-0.4651728,1.231483,0.2608864,-0.4321766,1.178424,0.08573096,0.373945,1.329051,-0.1527547,-0.4655459,1.234766,0.2977462,-0.4438514,1.183727,0.09402348,-0.09324249,1.338919,0.09963664,-0.4085221,1.328377,-0.09292274,0.07686468,1.332795,0.0212865,-0.4058889,1.298114,-0.1310558,-0.1876201,1.324733,0.3040293,-0.1765691,1.305597,NA,NA,NotTracked,Unknown,
0.9033203,0.4013672,-0.02685547,0.9301758,-0.2890625,0.1005859,0,-3,-1,-3,-12,-3,-4,-1,1,0,-1,0,-1,-2,-2,0,-3.5625,-3.5625,-3.5625,-1.5,-1.5,-1.5,7.648942,3.14791,3.181027,2.90814,2.996661,7.451838,-0.1113293,-0.4659376,1.23219,0.2581151,-0.4442253,1.176968,0.08611783,0.3739801,1.328827,-0.1528871,-0.4733938,1.232402,0.2910725,-0.4625535,1.1772,0.09346724,-0.09314755,1.33912,0.09881946,-0.4085381,1.328249,-0.09217022,0.07703742,1.332336,0.02033246,-0.405679,1.297751,-0.1309758,-0.187628,1.324754,0.3041108,-0.1766766,1.305717,NA,NA,NotTracked,Unknown,
0.9125977,0.3945313,-0.01513672,0.9287109,-0.2939453,0.1025391,-2,0,0,1,-2,-2,0,-2,-2,-3,-2,-1,-1,-2,-1,0,-3.3125,-3.3125,-3.3125,-1.625,-1.625,-1.625,7.64582,3.149,3.179717,2.907671,2.997297,7.450914,-0.1119528,-0.4654228,1.231287,0.2581991,-0.4443148,1.176922,0.08628898,0.3739632,1.328746,-0.1504859,-0.4723215,1.174,0.2887475,-0.4702078,1.174167,0.09305333,-0.09312709,1.339164,0.09814972,-0.4085491,1.327998,-0.09192041,0.07709423,1.332176,0.01959456,-0.4055249,1.297489,-0.130875,-0.1877042,1.324797,0.3040892,-0.1767447,1.305742,NA,NA,NotTracked,Unknown,
0.9077148,0.3920898,-0.02001953,0.9389648,-0.2905273,0.1010742,-2,-3,0,-1,1,-1,-2,-2,-1,0,-1,0,-3,0,-1,0,-3.25,-3.25,-3.25,-1.375,-1.375,-1.375,7.641515,3.150443,3.179883,2.907134,2.997849,7.45048,-0.1107236,-0.4652081,1.230565,0.26222,-0.4324508,1.178985,0.08649829,0.3739365,1.328586,-0.150923,-0.4680389,1.226553,0.294166,-0.4543682,1.175591,0.09304118,-0.0931475,1.339036,0.09768701,-0.4085417,1.3277,-0.09161024,0.07720558,1.332013,0.01912364,-0.4054277,1.29714,-0.1307943,-0.1877007,1.324747,0.3041656,-0.1766631,1.305826,NA,NA,NotTracked,Unknown,
0.8945313,0.3935547,-0.02539063,0.9404297,-0.2993164,0.09472656,-2,-2,-2,-3,1,-1,-1,0,-1,-2,-1,-3,0,0,0,-1,-3.8125,-3.8125,-3.8125,-1.4375,-1.4375,-1.4375,7.637778,3.151997,3.179061,2.905225,2.998657,7.451425,-0.1105872,-0.4658044,1.230323,0.2583575,-0.4443479,1.17636,0.08673691,0.3739452,1.328575,-0.1512691,-0.4703673,1.231455,0.2906618,-0.468458,1.175059,0.09309977,-0.09316751,1.338997,0.0976842,-0.4085448,1.327694,-0.09132908,0.07728101,1.331873,0.01910676,-0.4054291,1.29711,-0.1307928,-0.1876055,1.324742,0.3043514,-0.1765113,1.30613,NA,NA,NotTracked,Unknown,
0.8930664,0.390625,-0.02197266,0.940918,-0.293457,0.09667969,-1,-1,-1,0,-12,1,-1,0,0,-1,-1,-1,0,-1,0,-1,-4.6875,-4.6875,-4.6875,-1.25,-1.25,-1.25,7.635059,3.152875,3.176475,2.904219,2.999811,7.451749,-0.1105025,-0.4651679,1.230208,0.2585711,-0.4443869,1.176254,0.08701,0.3739365,1.328494,-0.1515128,-0.4688908,1.232537,0.2910566,-0.4625789,1.174923,0.09286518,-0.09316471,1.338983,0.0971835,-0.4086618,1.327336,-0.09192911,0.07693365,1.332024,0.01863701,-0.4054359,1.296659,-0.1307609,-0.1876176,1.324708,0.3045678,-0.1764597,1.30629,NA,NA,NotTracked,Unknown,
0.9091797,0.3818359,-0.02099609,0.9428711,-0.2944336,0.09082031,-2,-2,-1,-1,-1,-2,-2,0,-1,-1,-1,-1,-1,-1,-1,-1,-5.3125,-5.3125,-5.3125,-2.8125,-2.8125,-2.8125,7.631911,3.153769,3.173142,2.902188,2.999854,7.452522,-0.1102356,-0.4653414,1.22927,0.2589538,-0.4444751,1.176171,0.08766294,0.3738341,1.328212,-0.1512662,-0.4664575,1.229663,0.2920984,-0.4600113,1.176625,0.09315163,-0.09316016,1.339006,0.09835246,-0.4086372,1.327605,-0.09146619,0.07705836,1.331786,0.01982455,-0.4054799,1.296682,-0.1305991,-0.1876909,1.32456,0.3047765,-0.176572,1.306569,NA,NA,NotTracked,Unknown,
0.925293,0.394043,-0.02978516,0.9350586,-0.296875,0.09228516,-1,-1,-1,-1,4,-1,0,-1,-1,-1,-2,0,-2,0,-1,-1,-7.625,-7.625,-7.625,-5.3125,-5.3125,-5.3125,7.62984,3.153957,3.166826,2.896221,3.000242,7.451921,-0.1103673,-0.4646847,1.22965,0.2593495,-0.4447926,1.17662,0.08832864,0.3737887,1.328127,-0.151059,-0.4676186,1.229562,0.2928733,-0.4585382,1.177345,0.09309731,-0.09317464,1.338967,0.09800783,-0.4087094,1.327331,-0.09099198,0.07722908,1.331461,0.01939839,-0.405424,1.296277,-0.1305404,-0.1876455,1.324468,0.3048179,-0.1765869,1.30664,NA,NA,NotTracked,Unknown,
0.9306641,0.394043,-0.03662109,0.9331055,-0.3076172,0.09423828,0,0,-2,-2,-2,-1,-1,1,-1,-2,-2,-2,-1,-1,1,-1,-9.75,-9.75,-9.75,-7.0625,-7.0625,-7.0625,7.625157,3.154176,3.160948,2.891771,3.00048,7.448966,-0.1101867,-0.4648243,1.228908,0.2588077,-0.4448981,1.176334,0.08902442,0.3736724,1.327935,-0.1521423,-0.4665872,1.233202,0.2920352,-0.4600674,1.176111,0.09312723,-0.09321158,1.338854,0.09759688,-0.4087691,1.327123,-0.09073614,0.07734472,1.331285,0.01885752,-0.4052991,1.295764,-0.1304643,-0.1876882,1.324379,0.3046674,-0.1765931,1.306741,NA,NA,NotTracked,Unknown,
0.9140625,0.402832,-0.04833984,0.9223633,-0.3051758,0.09130859,-1,1,-2,0,5,-2,-1,-1,-2,-2,-1,0,0,1,-1,0,-10.3125,-10.3125,-10.3125,-9.3125,-9.3125,-9.3125,7.619113,3.15541,3.155481,2.885024,3.001738,7.446637,-0.1104571,-0.4643992,1.227684,0.2585075,-0.4453465,1.176095,0.08983462,0.3735282,1.327622,-0.1517707,-0.4639733,1.22868,0.2919727,-0.4608753,1.175921,0.0933005,-0.09318645,1.338871,0.09834832,-0.4087102,1.32724,-0.09034584,0.07750691,1.330984,0.01968634,-0.4053513,1.295678,-0.1304355,-0.1879174,1.324052,0.3046397,-0.1766319,1.30676,NA,NA,NotTracked,Unknown,
0.902832,0.3994141,-0.046875,0.9199219,-0.3120117,0.09228516,0,-1,-1,0,-33,-1,1,1,-1,-2,-1,-2,-1,-1,-1,-1,-10.25,-10.25,-10.25,-8.9375,-8.9375,-8.9375,7.613339,3.156999,3.150066,2.872152,3.002109,7.449869,-0.1106036,-0.4637001,1.227447,0.2586237,-0.4454437,1.176298,0.09077189,0.3733948,1.327401,-0.1522023,-0.4713409,1.23101,0.2907186,-0.4634125,1.172525,0.09356829,-0.09320754,1.338848,0.09854569,-0.4087108,1.327278,-0.09060115,0.07753693,1.330764,0.01994974,-0.405357,1.295611,-0.1304203,-0.1876292,1.323748,0.3046215,-0.1766282,1.30689,NA,NA,NotTracked,Unknown,
0.8989258,0.4023438,-0.03515625,0.9248047,-0.2973633,0.1025391,-2,-1,-2,0,18,-1,-1,1,-1,-2,-3,0,0,-2,-1,-1,-8.625,-8.625,-8.625,-5.875,-5.875,-5.875,7.612481,3.158042,3.140431,2.865318,3.003008,7.450281,-0.1109271,-0.4629636,1.22503,0.2583572,-0.445633,1.176353,0.0925245,0.3734711,1.32717,-0.1519239,-0.4766638,1.2227,0.2894189,-0.4701561,1.170437,0.09426204,-0.09321643,1.338582,0.09923115,-0.4085226,1.326866,-0.08975416,0.07794731,1.330005,0.02045982,-0.4051088,1.294545,-0.1305649,-0.1871335,1.322562,0.3046254,-0.1767798,1.307431,NA,NA,NotTracked,Unknown,
0.9038086,0.4047852,-0.03027344,0.9345703,-0.2861328,0.1088867,-1,-2,-1,-1,1,-2,-1,-3,0,0,-1,-2,0,-1,-1,-1,-10.125,-10.125,-10.125,-8.8125,-8.8125,-8.8125,7.614583,3.157778,3.126481,2.85677,3.001929,7.450706,-0.1115129,-0.4626842,1.224997,0.2598696,-0.4455349,1.177484,0.09344511,0.3735344,1.327136,-0.1542985,-0.4624693,1.225021,0.2953345,-0.4549996,1.17968,0.09458758,-0.09314875,1.338686,0.1004042,-0.4083654,1.327123,-0.0893475,0.07812865,1.329674,0.02166869,-0.405106,1.294551,-0.1305972,-0.1871106,1.322103,0.3045256,-0.1769301,1.307642,NA,NA,NotTracked,Unknown,
0.9052734,0.4038086,-0.009765625,0.9365234,-0.2871094,0.105957,-1,-1,-1,-2,-5,-1,1,-2,1,-1,-2,0,1,0,-1,-1,-10.5625,-10.5625,-10.5625,-8.0625,-8.0625,-8.0625,7.612928,3.157019,3.114836,2.850913,3.001668,7.448316,-0.1111442,-0.4619353,1.22245,0.2661735,-0.4305685,1.180364,0.09436737,0.3735058,1.326979,-0.1526094,-0.468646,1.227207,0.2683016,-0.4493725,1.140982,0.09460034,-0.09313243,1.338605,0.1004238,-0.4083381,1.326944,-0.08960713,0.07814984,1.328596,0.02167478,-0.405032,1.294068,-0.1306695,-0.1870978,1.320746,0.3044799,-0.1771793,1.307968,NA,NA,NotTracked,Unknown,
0.9086914,0.4018555,-0.006347656,0.9404297,-0.2807617,0.09765625,0,0,-1,0,2,-1,-2,-1,-1,-1,-2,0,0,-1,0,1,-8.375,-8.375,-8.375,-7.6875,-7.6875,-7.6875,7.609993,3.156462,3.106364,2.848907,3.001595,7.442221,-0.110795,-0.461455,1.221611,0.2610747,-0.4443665,1.178225,0.0951861,0.3734508,1.326788,-0.1528338,-0.4678165,1.224998,0.2941982,-0.4530166,1.17369,0.09482507,-0.09311501,1.338616,0.1012121,-0.4083057,1.326995,-0.08972136,0.07819667,1.327826,0.02256188,-0.4051233,1.293909,-0.1307723,-0.1871756,1.319793,0.3045238,-0.1773723,1.308234,NA,NA,NotTracked,Unknown,
0.9052734,0.4082031,-0.002441406,0.9360352,-0.2783203,0.08935547,-1,-2,-2,-1,11,0,0,0,1,-1,-2,-2,-2,-1,0,0,-6.75,-6.75,-6.75,-5.6875,-5.6875,-5.6875,7.605751,3.15695,3.1017,2.846557,3.001766,7.437868,-0.1112366,-0.4612564,1.221274,0.2620875,-0.4456295,1.179363,0.09589764,0.3735401,1.326744,-0.1539922,-0.4669676,1.227369,0.2952178,-0.4590269,1.17664,0.09498,-0.09311119,1.338528,0.1012264,-0.4082849,1.326943,-0.08981729,0.07831053,1.327227,0.02256735,-0.4050838,1.293691,-0.1308386,-0.1868511,1.319031,0.3045479,-0.1776777,1.308632,NA,NA,NotTracked,Unknown,
0.9067383,0.4038086,0.00390625,0.934082,-0.2783203,0.07714844,-1,-1,-1,-2,-3,-1,-1,-2,-1,0,-1,-3,-2,1,-1,-2,-6.125,-6.125,-6.125,-3.3125,-3.3125,-3.3125,7.600009,3.156729,3.099376,2.844808,3.001553,7.435707,-0.1109046,-0.4611647,1.220285,0.2631547,-0.4446278,1.180205,0.09712485,0.3735785,1.326425,-0.1532421,-0.4682183,1.227526,0.2953905,-0.4657909,1.176765,0.09535485,-0.09315883,1.338322,0.1010634,-0.4084045,1.32637,-0.08951089,0.07864978,1.326677,0.02226434,-0.4050048,1.292512,-0.1312827,-0.1865936,1.317198,0.3042929,-0.1778783,1.309088,NA,NA,NotTracked,Unknown,
0.9008789,0.4057617,-0.008789063,0.9331055,-0.2714844,0.07714844,-2,-1,-2,-1,0,-1,-2,-2,-1,-3,-2,0,-2,1,-2,-2,-4.1875,-4.1875,-4.1875,-3,-3,-3,7.593489,3.156487,3.099704,2.841978,3.000276,7.435724,-0.1110076,-0.4603134,1.2188,0.2633614,-0.444784,1.179553,0.09789038,0.3736489,1.326117,-0.1544233,-0.4654716,1.222815,0.2952491,-0.4627894,1.175263,0.09531632,-0.09316701,1.338048,0.100282,-0.4083413,1.325686,-0.08961582,0.07880041,1.326418,0.02139911,-0.4047292,1.291486,-0.1313512,-0.1864932,1.316628,0.3040904,-0.1780825,1.309498,NA,NA,NotTracked,Unknown,
0.9121094,0.40625,-0.002929688,0.9291992,-0.2739258,0.07617188,-1,-1,-1,-2,1,-2,-1,-1,-1,0,0,1,-1,-3,0,0,-1.9375,-1.9375,-1.9375,-1.6875,-1.6875,-1.6875,7.588435,3.156563,3.101604,2.838257,2.998345,7.437601,-0.111167,-0.459375,1.217915,0.2629264,-0.4445326,1.17894,0.09840438,0.3736997,1.325895,-0.153782,-0.4671697,1.220865,0.2968487,-0.460464,1.176365,0.09526164,-0.09316787,1.337763,0.09958631,-0.4083106,1.325117,-0.08924001,0.07890591,1.32618,0.02068141,-0.4045128,1.29078,-0.1312435,-0.1865278,1.315972,0.3040709,-0.1781557,1.309662,NA,NA,NotTracked,Unknown,
0.9038086,0.40625,-0.008789063,0.9355469,-0.2788086,0.08056641,0,0,-1,0,-28,0,0,-1,-1,0,-2,-1,-1,0,-2,0,-1.6875,-1.6875,-1.6875,1.3125,1.3125,1.3125,7.585699,3.155891,3.102296,2.835254,2.995074,7.441536,-0.1110523,-0.4601983,1.218384,0.2632456,-0.4447621,1.179153,0.09898437,0.3734924,1.325496,-0.1568888,-0.4550065,1.226333,0.2943146,-0.4642086,1.174145,0.09524833,-0.09318659,1.337545,0.09917543,-0.4082912,1.324765,-0.08935416,0.07904084,1.325508,0.02020461,-0.4043764,1.290254,-0.1313004,-0.1864262,1.315454,0.3040667,-0.1783629,1.309853,NA,NA,NotTracked,Unknown,
0.9047852,0.4023438,-0.01611328,0.9311523,-0.2695313,0.0859375,-1,-1,1,-1,1,-1,-1,0,-1,0,1,-4,-1,0,-3,0,-0.25,-0.25,-0.25,2.375,2.375,2.375,7.584493,3.155113,3.102596,2.837208,2.990607,7.443011,-0.1112059,-0.4599123,1.218621,0.2631496,-0.4442131,1.178748,0.09952945,0.3735221,1.325226,-0.1549441,-0.4637015,1.226677,0.2969154,-0.4634208,1.178143,0.09504068,-0.09315562,1.337292,0.0986798,-0.4082815,1.324413,-0.08906398,0.07911047,1.32538,0.01968207,-0.4042381,1.28972,-0.1314833,-0.1861508,1.314785,0.3041103,-0.1784841,1.31,NA,NA,NotTracked,Unknown,
