ALX,ALY,ALZ,ARX,ARY,ARZ,EMG0L,EMG1L,EMG2L,EMG3L,EMG4L,EMG5L,EMG6L,EMG7L,EMG0R,EMG1R,EMG2R,EMG3R,EMG4R,EMG5R,EMG6R,EMG7R,GLX,GLY,GLZ,GRX,GRY,GRZ,ORL,OPL,OYL,ORR,OPR,OYR,LHNX,LHNY,LHNZ,RHNX,RHNY,RHNZ,HX,HY,HZ,LTX,LTY,LTZ,RTX,RTY,RTZ,SpineMidX,SpineMidY,SpineMidZ,SpineBaseX,SpineBaseY,SpineBaseZ,ShoulderLeftX,ShoulderLeftY,ShoulderLeftZ,ShoulderRightX,ShoulderRightY,ShoulderRightZ,ElbowLeftX,ElbowLeftY,ElbowLeftZ,ElbowRightX,ElbowRightY,ElbowRightZ,Myo_Pose_left,Myo_Pose_Right,Kinect_pose_left,Kinect_pose_right
0.8447266,-0.496582,0.1938477,0.1884766,0.9165039,0.3867188,-2,-1,0,0,-1,0,5,-3,0,2,-5,-4,-2,-2,-2,-6,-6.9375,-6.9375,-6.9375,-7.1875,-7.1875,-7.1875,3.093836,3.413397,6.043792,6.869366,4.685494,4.792153,0.04183422,-0.4150364,1.376317,0.2517669,-0.1337332,1.239184,0.1873887,0.3612163,1.545072,0.07966974,-0.3883298,1.34325,0.2617557,-0.07388472,1.234652,0.1734448,-0.09252621,1.559998,0.1745197,-0.4095835,1.54244,-0.006522233,0.07878806,1.553937,0.09344865,-0.4054182,1.514356,-0.0557942,-0.1436328,1.537966,0.4392203,-0.1367706,1.479764,NA,NA,Unknown,Unknown,
0.8530273,-0.4941406,0.1914063,-0.05859375,0.8984375,0.3408203,-1,-2,-3,0,-2,-2,-1,0,0,15,20,10,5,2,0,0,-5.75,-5.75,-5.75,3.375,3.375,3.375,3.087127,3.402105,6.04418,6.861505,5.035301,4.876287,0.04107798,-0.4165879,1.380448,0.2406544,-0.07004579,1.240604,0.1889326,0.3613234,1.545123,0.07486393,-0.3882778,1.350742,0.2592255,-0.0107816,1.244296,0.1739808,-0.09216468,1.559995,0.1750875,-0.409007,1.542272,-0.005449811,0.07887541,1.553733,0.09411413,-0.404933,1.514181,-0.05501684,-0.1431781,1.537702,0.381308,-0.1192614,1.467985,NA,NA,Unknown,Unknown,
0.8569336,-0.5,0.2045898,-0.128418,0.9150391,0.3925781,0,-1,-1,-5,-2,0,6,3,0,-2,-13,-9,-8,-4,-8,-7,-2.3125,-2.3125,-2.3125,10.125,10.125,10.125,3.071549,3.379736,6.051358,6.881371,5.26611,4.94791,0.0397238,-0.4183289,1.382957,0.2328349,-0.01073611,1.247463,0.1904505,0.3616633,1.545047,0.0822484,-0.3971885,1.3469,0.2570706,0.04563941,1.254261,0.1746096,-0.09188782,1.560055,0.1757165,-0.4083614,1.542333,-0.004444118,0.08034973,1.553765,0.09481214,-0.4044716,1.514169,-0.05457694,-0.1430807,1.537451,0.4181851,-0.162231,1.472908,NA,NA,Unknown,Closed,
0.855957,-0.5053711,0.2036133,-0.3115234,0.9033203,0.3999023,0,0,1,1,-3,-2,-7,-1,13,5,0,4,-4,0,1,14,-1,-1,-1,14.625,14.625,14.625,3.05804,3.363661,6.066129,6.939909,5.568542,5.056777,0.03746647,-0.4204707,1.386189,0.2284451,0.04550262,1.262911,0.191319,0.3617762,1.545165,0.08306503,-0.4023111,1.348294,0.2603002,0.09973709,1.275955,0.1753664,-0.09186234,1.560119,0.1764599,-0.4083018,1.542243,-0.004024758,0.08141522,1.55394,0.09554507,-0.4045769,1.514126,-0.05425369,-0.1432109,1.537483,0.4127865,-0.1619503,1.472799,NA,NA,Unknown,Closed,
0.8603516,-0.4946289,0.199707,-0.4609375,0.7998047,0.3476563,1,1,0,1,0,0,-2,-1,8,0,-6,-4,-1,0,-2,5,2.1875,2.1875,2.1875,5.8125,5.8125,5.8125,3.051781,3.356388,6.077837,7.017251,5.869975,5.203479,0.03570946,-0.4215829,1.389656,0.2270411,0.09833167,1.287768,0.1914816,0.3617423,1.545213,0.08172709,-0.4037628,1.350494,0.2680372,0.1522016,1.293071,0.1759253,-0.09350093,1.560017,0.176792,-0.410227,1.542385,-0.003877812,0.0815725,1.554443,0.09539653,-0.4073754,1.516727,-0.0539688,-0.1432738,1.537735,0.407149,-0.1478006,1.461305,NA,NA,Unknown,Closed,
0.8618164,-0.5126953,0.2026367,-0.5917969,0.7080078,0.2539063,-3,-3,0,-3,0,0,3,-3,19,2,5,4,0,3,6,17,1.5,1.5,1.5,2.6875,2.6875,2.6875,3.045519,3.354691,6.088221,7.109872,6.09335,5.35554,0.03394571,-0.4209763,1.390685,0.2274103,0.1459473,1.318838,0.1906327,0.363207,1.545166,0.07979927,-0.402275,1.351419,0.274599,0.187506,1.337231,0.1751819,-0.09483858,1.55857,0.1765474,-0.411915,1.54209,-0.003429272,0.08186021,1.554691,0.09431064,-0.4092822,1.518468,-0.0536723,-0.1432507,1.537709,0.4029123,-0.1240605,1.422517,NA,NA,Unknown,Closed,
0.8735352,-0.5297852,0.1914063,-0.6889648,0.6396484,0.1791992,-4,-2,0,-2,-4,-4,-1,-6,-5,7,5,5,1,-3,-5,-2,-4.6875,-4.6875,-4.6875,10.0625,10.0625,10.0625,3.04504,3.36956,6.08875,7.200064,6.235277,5.479431,0.03284942,-0.4174445,1.390821,0.229191,0.1752611,1.351763,0.1900254,0.3662411,1.544676,0.07842626,-0.3999109,1.351864,0.274185,0.2100158,1.352701,0.1751356,-0.09524503,1.558336,0.1764345,-0.4123213,1.541848,-0.002116515,0.0820217,1.554613,0.09390235,-0.4094945,1.518785,-0.05327317,-0.1431759,1.537755,0.4020496,-0.1161771,1.409168,NA,NA,Unknown,Unknown,
0.8735352,-0.5297852,0.1914063,-0.6889648,0.6396484,0.1791992,-4,-2,0,-2,-4,-4,-1,-6,-5,7,5,5,1,-3,-5,-2,-4.6875,-4.6875,-4.6875,10.0625,10.0625,10.0625,3.04504,3.36956,6.08875,7.200064,6.235277,5.479431,0.03456311,-0.4151779,1.387301,0.2458415,0.1769248,1.380903,0.1900335,0.367297,1.544277,0.07365397,-0.3911644,1.355965,0.2764391,0.2330272,1.38075,0.1752602,-0.0954536,1.558276,0.1763794,-0.4123888,1.541781,-0.001737856,0.08391713,1.554671,0.09365663,-0.4094819,1.519095,-0.05290245,-0.1419477,1.538102,0.3775542,-0.07044839,1.368124,NA,NA,Unknown,Lasso,
0.8808594,-0.6010742,0.2299805,-0.7827148,0.4853516,-0.06640625,0,-1,-1,-2,0,-1,4,0,0,9,10,15,3,-7,-8,-19,1.0625,1.0625,1.0625,-6.3125,-6.3125,-6.3125,3.069652,3.494442,6.047395,7.628458,6.560814,6.016937,0.03813297,-0.4097616,1.37892,0.2277868,0.2308134,1.416157,0.1915169,0.3643035,1.541837,0.07092582,-0.3754887,1.379971,0.2843307,0.2424031,1.404416,0.1754843,-0.09563244,1.558187,0.1764421,-0.4122633,1.541511,-0.0005931924,0.08389881,1.554188,0.09372871,-0.4093283,1.519169,-0.05281117,-0.1401838,1.5381,0.3763275,-0.06522976,1.364799,NA,NA,Unknown,Unknown,
0.8696289,-0.6875,0.2695313,-0.7407227,0.512207,-0.1450195,-1,-7,-5,-6,2,-4,-7,-2,1,-6,-2,8,-4,3,4,2,-5.8125,-5.8125,-5.8125,0.625,0.625,0.625,3.095754,3.622247,6.010154,7.802545,6.627379,6.227176,0.04690855,-0.3966276,1.36137,0.2433003,0.203224,1.417934,0.1932,0.36209,1.541326,0.0741308,-0.3545527,1.343909,0.2870467,0.2517918,1.409429,0.1757815,-0.09569373,1.55807,0.1765928,-0.4120503,1.541177,0.0009419455,0.08347336,1.553882,0.09386854,-0.4092135,1.519249,-0.05297494,-0.1369044,1.537689,0.3761407,-0.06118811,1.361244,NA,NA,Unknown,NotTracked,
0.7788086,-0.8017578,0.3291016,-0.7607422,0.3466797,-0.2963867,-1,1,-1,2,2,-1,1,2,8,4,5,19,6,1,7,10,-19.25,-19.25,-19.25,0.375,0.375,0.375,3.10623,3.818304,5.96384,7.887449,6.650911,6.318497,0.06975592,-0.3710395,1.346533,0.2310181,0.2251604,1.419609,0.1938536,0.3610713,1.540808,0.1064214,-0.3196032,1.310727,0.2155364,0.1639998,1.476753,0.1758499,-0.09575253,1.557932,0.1762811,-0.411912,1.540597,0.001849588,0.08406858,1.553738,0.09380066,-0.4092672,1.519194,-0.05531754,-0.1302497,1.538558,0.3758915,-0.05789021,1.35561,NA,NA,Unknown,NotTracked,
0.5126953,-0.8696289,0.3461914,-0.7822266,0.5,-0.1323242,-2,0,1,0,0,-3,-14,-4,7,2,-3,-4,-2,0,-2,0,-21.3125,-21.3125,-21.3125,9.25,9.25,9.25,3.088547,4.148887,5.908562,7.893044,6.624063,6.269425,0.08441631,-0.3256045,1.314455,0.2311032,0.2213865,1.403476,0.1937728,0.3611783,1.540673,0.06569127,-0.3090668,1.281827,0.2817317,0.2404178,1.399889,0.1755982,-0.09607878,1.557918,0.1741761,-0.4127323,1.540257,0.002339293,0.08472522,1.553747,0.09265471,-0.4097399,1.519375,-0.06132159,-0.1218944,1.538741,0.3785473,-0.05842907,1.35283,NA,NA,Unknown,Unknown,
0.5126953,-0.8696289,0.3461914,-0.8706055,0.5024414,-0.1162109,2,4,0,5,0,-1,12,4,-5,-1,-5,-7,0,-2,5,-5,-21.3125,-21.3125,-21.3125,22.8125,22.8125,22.8125,3.088547,4.148887,5.908562,7.841008,6.606101,6.166454,0.1010737,-0.2755495,1.286441,0.2244764,0.226778,1.38772,0.1922092,0.3639533,1.541735,0.1527743,-0.2805863,1.366889,0.2781045,0.2377403,1.387969,0.175028,-0.09641803,1.558021,0.1715302,-0.4135683,1.54034,0.002960334,0.08504945,1.553906,0.09119745,-0.4096818,1.519558,-0.06369399,-0.1206338,1.537847,0.3837815,-0.06058671,1.352716,NA,NA,Unknown,Unknown,
0.1953125,-0.855957,0.2983398,-0.8129883,0.5976563,-0.07080078,0,-1,0,1,-2,-2,-3,0,-4,-4,-3,-10,-7,-1,6,-4,-28.875,-28.875,-28.875,19.9375,19.9375,19.9375,3.02786,4.677371,5.836075,7.671447,6.502244,5.897724,0.1113747,-0.2188717,1.269356,0.2209743,0.2152028,1.362544,0.1912166,0.368093,1.544557,0.1336476,-0.2077486,1.304364,0.2929609,0.1975026,1.375917,0.1746061,-0.09676474,1.557913,0.1700936,-0.4145342,1.539628,0.004316335,0.0849469,1.553895,0.08997071,-0.409707,1.519071,-0.07672364,-0.1223338,1.519219,0.389743,-0.0651646,1.344483,NA,NA,Unknown,Lasso,
0.1743164,-0.8930664,0.3173828,-0.7895508,0.4458008,-0.01318359,3,-6,-3,-5,-2,-1,18,9,-2,0,-2,0,-9,2,1,3,-31.625,-31.625,-31.625,33.125,33.125,33.125,2.997275,4.784662,5.819044,7.598096,6.434567,5.763536,0.1179836,-0.1722211,1.258563,0.1938426,0.2166845,1.336613,0.1904042,0.3722766,1.548478,0.1287289,-0.1198009,1.281095,0.2423993,0.2357956,1.359412,0.1738181,-0.09733349,1.557741,0.1682376,-0.4154236,1.538778,0.004599195,0.08565434,1.553988,0.08814061,-0.409548,1.518272,-0.08482303,-0.1181498,1.517673,0.3958767,-0.06897967,1.337273,NA,NA,Unknown,Unknown,
0.0703125,-0.9267578,0.3051758,-0.7041016,0.6982422,-0.009277344,5,-2,-8,-4,-2,-1,13,11,-7,0,-1,-1,-1,-2,-5,-9,-17.125,-17.125,-17.125,34.625,34.625,34.625,2.961071,4.954397,5.779399,7.571576,6.333138,5.639976,0.1236451,-0.1372852,1.250497,0.1818293,0.1983765,1.307845,0.1900475,0.3738709,1.551599,0.1157143,-0.102958,1.234185,0.2291659,0.2179147,1.33275,0.1728641,-0.09800052,1.557319,0.1669163,-0.4159953,1.537979,0.005531894,0.0861325,1.553773,0.086799,-0.4095102,1.517568,-0.09172622,-0.1128552,1.518123,0.3978185,-0.07072107,1.338515,NA,NA,Unknown,Unknown,
-0.03125,-0.9931641,0.3408203,-0.6401367,0.6987305,0.00390625,3,-1,3,-1,0,-1,0,11,-3,1,-3,-2,-8,-6,-8,1,-5.75,-5.75,-5.75,69.875,69.875,69.875,2.947966,5.068995,5.747767,7.599062,6.232269,5.557768,0.1287546,-0.1065326,1.247709,0.205944,0.1333155,1.280864,0.1908737,0.3730654,1.553583,0.1192876,-0.08114267,1.222769,0.198399,0.1810964,1.30925,0.1716742,-0.09837735,1.55677,0.1663318,-0.4161635,1.537473,0.006438348,0.08694593,1.553377,0.08621986,-0.4093805,1.516984,-0.09781687,-0.1103686,1.510885,0.3975198,-0.07123604,1.341597,NA,NA,Unknown,Unknown,
-0.1445313,-0.984375,0.3110352,-0.5449219,0.5966797,0.01220703,-1,1,1,-1,-5,-4,-7,-2,-5,-3,0,-13,0,-6,0,-7,-3.5625,-3.5625,-3.5625,58.8125,58.8125,58.8125,2.945298,5.149865,5.722028,7.66921,6.089273,5.522004,0.1351692,-0.07375208,1.248332,0.1439935,0.1185554,1.239933,0.19287,0.3691572,1.556217,0.1829309,-0.1128936,1.29925,0.1468849,0.1242803,1.233167,0.1714883,-0.0967538,1.55755,0.165945,-0.4137587,1.537241,0.004894482,0.08897698,1.55337,0.08626492,-0.4061651,1.515356,-0.100704,-0.1076405,1.503565,0.3968833,-0.07146868,1.349616,NA,NA,NotTracked,Unknown,
-0.2094727,-0.9375,0.3168945,-0.5063477,0.8432617,-0.2641602,-3,-9,-7,-1,-5,-6,-4,-8,3,-1,-5,-7,-10,-7,-3,-3,7.8125,7.8125,7.8125,92.625,92.625,92.625,2.940349,5.340258,5.641694,7.911961,5.834147,5.569194,0.1403639,-0.03514042,1.250368,0.1399534,0.04326431,1.251161,0.1940543,0.36737,1.557537,0.1839334,-0.07087202,1.308667,0.110644,0.009724312,1.26975,0.1723297,-0.09471618,1.558516,0.1663699,-0.4100197,1.537096,0.005345664,0.08964124,1.552284,0.08750256,-0.4017958,1.512806,-0.0986426,-0.1059419,1.477544,0.3964282,-0.07008361,1.357101,NA,NA,NotTracked,NotTracked,
-0.01123047,-0.4555664,0.01220703,-0.5947266,0.7148438,-0.6572266,6,4,-1,11,-9,-17,2,18,-11,3,2,9,7,2,4,-1,12.4375,12.4375,12.4375,7.375,7.375,7.375,2.942204,5.38592,5.608612,8.03764,5.496282,5.638628,0.1478646,-0.01497649,1.229895,0.135861,-0.008863016,1.228349,0.1944748,0.3666049,1.558514,0.1797944,-0.06145572,1.234615,0.142226,-0.03489395,1.1992,0.1725334,-0.09279297,1.55951,0.1668256,-0.4064662,1.537474,0.005415881,0.09108065,1.551372,0.08831531,-0.3983472,1.511211,-0.08268648,-0.1087492,1.432817,0.3986145,-0.06804324,1.359418,NA,NA,NotTracked,NotTracked,
-0.1191406,-1.300781,0.5844727,-0.1386719,1.225586,-0.4394531,-6,-27,-1,3,-2,-3,-3,-5,-8,-4,-2,-7,8,1,6,5,-50.4375,-50.4375,-50.4375,24.3125,24.3125,24.3125,2.842208,5.29067,5.624417,8.137342,5.543441,5.548128,0.1513513,-0.01580781,1.220496,0.1394606,-0.01108178,1.218108,0.1946108,0.366093,1.559921,0.1665117,-0.06176948,1.206,0.09424964,-0.02881048,1.2225,0.1729036,-0.09116636,1.560358,0.1671092,-0.403998,1.537814,0.005903404,0.09200567,1.5505,0.08886069,-0.396015,1.510254,-0.08450232,-0.1024811,1.431658,0.3974331,-0.0636007,1.357468,NA,NA,NotTracked,NotTracked,
0.324707,-0.6538086,0.04052734,-0.4423828,0.706543,-0.394043,2,1,-1,-5,0,12,11,4,21,3,0,-2,-1,4,5,14,11.75,11.75,11.75,-32.0625,-32.0625,-32.0625,2.875623,5.234367,5.641551,8.011766,5.592558,5.503129,0.1429448,-0.02587255,1.225832,0.1348792,-0.01573177,1.217025,0.1946283,0.3654987,1.561449,0.1715147,-0.06583081,1.208658,0.0998316,-0.02871279,1.2157,0.1729135,-0.09073542,1.560708,0.167294,-0.4034368,1.537937,0.007495536,0.09259405,1.548458,0.08902907,-0.3956695,1.510028,-0.08995491,-0.1009315,1.435967,0.3969199,-0.05147021,1.356143,NA,NA,NotTracked,NotTracked,
0.01416016,-0.8442383,-0.1689453,-0.4291992,0.9589844,-0.2397461,-5,-3,-3,-2,-4,-7,-6,-3,-10,-5,-3,-5,6,-1,3,-4,-29,-29,-29,56.875,56.875,56.875,2.822397,5.205136,5.655305,8.061862,5.763011,5.386597,0.1453843,-0.03630243,1.218703,0.1130471,-0.04148451,1.226798,0.1941958,0.3650565,1.562859,0.1423089,-0.06934619,1.197833,0.1401553,-0.07440753,1.205,0.1728311,-0.09063664,1.560856,0.1673357,-0.4034855,1.537893,0.00694359,0.0926368,1.548109,0.08896228,-0.3959263,1.510218,-0.07264476,-0.08665845,1.427836,0.3978023,-0.03490713,1.346479,NA,NA,NotTracked,NotTracked,
-0.3510742,-1.185547,0.4975586,-0.4760742,0.8579102,-0.2895508,-6,3,-2,0,0,-2,-14,-11,-17,1,0,-10,-11,-11,-6,-5,-22.375,-22.375,-22.375,13.9375,13.9375,13.9375,2.804581,5.218062,5.660724,8.062989,5.848845,5.33583,0.1525152,-0.04180619,1.214457,0.2256924,0.1288618,1.19601,0.1931741,0.3644729,1.564618,0.1468865,-0.07740427,1.188759,0.2441867,0.1233788,1.1542,0.1720624,-0.09084024,1.561003,0.1668703,-0.4045092,1.537769,0.005841796,0.09324881,1.548787,0.08800945,-0.3973013,1.511489,-0.08109482,-0.08480365,1.430718,0.4015974,-0.02222102,1.32919,NA,NA,NotTracked,NotTracked,
0.309082,-0.7861328,0.171875,-0.4912109,0.605957,-0.1489258,-4,-1,-1,-1,-3,-5,-8,-6,-6,0,3,18,7,16,1,-1,-8.1875,-8.1875,-8.1875,3.6875,3.6875,3.6875,2.794027,5.146352,5.67672,8.003587,6.001451,5.241492,0.1546714,-0.05074634,1.210271,0.2279676,0.1602484,1.194392,0.1912686,0.3663574,1.566823,0.1483864,0.02324547,1.240739,0.195508,0.1709179,1.243,0.1718731,-0.0905415,1.561019,0.166673,-0.4035054,1.537709,0.005632942,0.09379603,1.549314,0.08755836,-0.3956776,1.511793,-0.08365794,-0.08189026,1.434313,0.4029612,-0.00584748,1.32152,NA,NA,Unknown,Unknown,
-0.04296875,-0.9750977,0.1430664,-0.4291992,0.5175781,-0.1010742,3,0,-2,0,3,4,14,19,2,0,-1,-12,-7,2,4,1,-11.8125,-11.8125,-11.8125,-0.3125,-0.3125,-0.3125,2.773051,5.082712,5.696061,7.952358,6.073911,5.149693,0.1594523,-0.06458773,1.204005,0.2303672,0.1719403,1.189763,0.1900846,0.3674707,1.567871,0.1535032,0.00955948,1.232375,0.1938402,0.1881366,1.2425,0.1722276,-0.08940659,1.56121,0.167024,-0.4011173,1.537775,0.01127871,0.09385346,1.547779,0.08750483,-0.3928044,1.512038,-0.08397195,-0.08177253,1.434346,0.4014424,0.003361718,1.318379,NA,NA,Unknown,Unknown,
0.03515625,-1.023926,0.2050781,-0.3432617,0.5385742,-0.08349609,1,3,-2,0,1,5,-17,7,-24,-3,-1,-4,-2,-16,-4,-2,0.5,0.5,0.5,-11.5,-11.5,-11.5,2.769254,5.010674,5.724443,7.914817,6.05277,5.111036,0.1576744,-0.07726082,1.202782,0.2210619,0.1614371,1.173036,0.1891175,0.3677624,1.568526,0.1543262,-0.002548961,1.232889,0.1889583,0.1711315,1.22525,0.1722826,-0.08892946,1.561295,0.1670591,-0.3999897,1.537747,0.01333141,0.09410186,1.547164,0.08728597,-0.3913208,1.512213,-0.08317361,-0.07884026,1.435272,0.3986935,0.006989762,1.316241,NA,NA,Unknown,Unknown,
0.01171875,-1.066895,0.1972656,-0.3691406,0.5883789,-0.07714844,1,-2,2,2,-1,-1,11,3,8,1,0,13,16,4,2,7,12.4375,12.4375,12.4375,-1.75,-1.75,-1.75,2.782971,4.981528,5.744123,7.88103,5.898162,5.095902,0.1580354,-0.08696741,1.202517,0.2110891,0.1141672,1.151307,0.1883602,0.3665587,1.569807,0.1402612,-0.07398908,1.174567,0.2015464,0.1334645,1.146231,0.171259,-0.08961346,1.561769,0.166319,-0.4029316,1.538045,0.01010135,0.09435109,1.548681,0.08647925,-0.394591,1.513348,-0.08385069,-0.08008143,1.438012,0.3944744,-0.003780807,1.314525,NA,NA,Unknown,Unknown,
0.002929688,-1.056641,0.2026367,-0.2832031,0.7070313,-0.09716797,3,-1,0,-4,-5,-10,2,5,5,0,-2,4,35,-2,4,0,15.25,15.25,15.25,-9.5,-9.5,-9.5,2.791524,4.976925,5.750103,7.880797,5.754232,5.111838,0.1553849,-0.08990754,1.203969,0.2380089,0.03233695,1.176007,0.1881777,0.3647627,1.57094,0.1475383,-0.01921089,1.242389,0.1892165,0.0581308,1.164,0.1710934,-0.08996916,1.562062,0.1662995,-0.4037961,1.538037,0.01162303,0.09193458,1.547366,0.08685564,-0.3956696,1.512857,-0.07980119,-0.08335313,1.429293,0.3859198,-0.02740918,1.324185,NA,NA,NotTracked,NotTracked,
0.01171875,-0.9897461,0.1791992,-0.2373047,0.8242188,-0.1547852,-4,-2,-2,-1,2,15,24,-3,5,4,1,-2,-4,0,2,3,-3.9375,-3.9375,-3.9375,8.75,8.75,8.75,2.801541,4.96933,5.762608,7.911285,5.463128,5.18155,0.1465103,-0.08332428,1.176036,0.1714142,-0.07320456,1.172781,0.1880372,0.3646522,1.571159,0.158176,-0.03625915,1.175056,0.1448478,-0.03725816,1.189333,0.1713906,-0.08893267,1.563002,0.1669865,-0.4008126,1.538816,0.01174777,0.09172908,1.547284,0.08827791,-0.3930221,1.511868,-0.06415772,-0.08445887,1.432765,0.384716,-0.03382816,1.325836,NA,NA,NotTracked,NotTracked,
0.001464844,-0.902832,0.6152344,-0.1933594,1.286133,-0.4550781,-2,-3,-3,-2,1,12,12,3,-1,-5,-3,6,6,1,-4,-3,-38,-38,-38,-8,-8,-8,2.747303,4.741776,5.77299,7.937072,5.005071,5.309351,0.1446519,-0.1243061,1.193427,0.1611005,-0.1184247,1.191303,0.1876718,0.3644319,1.571241,0.1570804,-0.07752588,1.199333,0.1273933,-0.08542158,1.21,0.1715524,-0.08852555,1.563463,0.1671487,-0.4003024,1.538833,0.008825118,0.09206893,1.54861,0.0886772,-0.3924773,1.511371,-0.06588983,-0.08271012,1.424579,0.4116673,-0.04034372,1.354469,NA,NA,NotTracked,NotTracked,
0.253418,-1.256348,0.1665039,-0.06494141,1.202637,-0.1000977,-1,0,-3,-1,-4,-1,-3,2,-1,2,0,6,6,1,-1,5,-9.5625,-9.5625,-9.5625,-108.5,-108.5,-108.5,2.677926,4.552575,5.765083,7.914682,4.754606,5.25153,0.1397492,-0.171157,1.201553,0.1624984,-0.1568087,1.199419,0.1875848,0.3643458,1.571367,0.152932,-0.1202811,1.203875,0.1309455,-0.1231662,1.221227,0.171905,-0.08823515,1.564124,0.1674515,-0.4003171,1.539044,0.008472781,0.09173997,1.54881,0.08920819,-0.3925644,1.511331,-0.06686313,-0.08485157,1.423222,0.4041988,-0.04609478,1.35956,NA,NA,NotTracked,NotTracked,
0.3256836,-0.9418945,0.137207,0.1831055,0.8417969,-0.1318359,1,-2,-5,-5,-2,0,-5,1,-4,-1,1,-2,16,2,0,-2,18.1875,18.1875,18.1875,-7.0625,-7.0625,-7.0625,2.716709,4.412082,5.743318,7.855526,4.604859,5.219081,0.1523468,-0.2047469,1.210602,0.1745347,-0.1944019,1.207647,0.1874214,0.3642188,1.571193,0.181347,-0.1556184,1.197945,0.1385827,-0.1622859,1.22392,0.1719799,-0.08843903,1.564436,0.1675185,-0.4014195,1.539387,0.006629243,0.09142154,1.549416,0.08961384,-0.3935623,1.511214,-0.06084525,-0.1145996,1.40381,0.4086026,-0.06643037,1.377912,NA,NA,NotTracked,NotTracked,
0.4760742,-0.9155273,0.121582,0.3974609,0.9345703,-0.1967773,-2,-4,-4,-3,0,6,12,5,5,-4,-3,-27,-36,-5,-7,-6,-0.3125,-0.3125,-0.3125,-3.8125,-3.8125,-3.8125,2.730679,4.270205,5.731258,7.860965,4.386708,5.204297,0.1459447,-0.2455119,1.226002,0.1740121,-0.2341369,1.220222,0.1873012,0.3640044,1.571093,0.1672622,-0.1968182,1.207912,0.1385044,-0.2001598,1.22984,0.1720657,-0.08933391,1.564936,0.1677988,-0.4049335,1.540055,0.006852659,0.09040604,1.549029,0.09043504,-0.396416,1.511606,-0.05978043,-0.1179479,1.408721,0.3926798,-0.07449022,1.373725,NA,NA,NotTracked,NotTracked,
0.5737305,-0.8984375,0.1186523,0.4501953,0.8911133,-0.2158203,4,-1,0,0,-4,-3,-1,1,4,-1,0,-2,-5,1,9,8,3.75,3.75,3.75,-10.875,-10.875,-10.875,2.740604,4.09458,5.712761,7.85098,4.250664,5.198955,0.1232048,-0.2624583,1.254559,0.1842846,-0.258772,1.234793,0.1869373,0.3633537,1.570496,0.1535074,-0.2183867,1.233435,0.1447069,-0.2272873,1.243776,0.1723156,-0.0906893,1.565857,0.1681546,-0.4074419,1.541712,0.005878978,0.08949428,1.549638,0.09151255,-0.3990547,1.51321,-0.04048811,-0.1119331,1.47035,0.3626219,-0.1046684,1.398576,NA,NA,NotTracked,NotTracked,
0.637207,-0.8764648,0.06689453,0.5493164,0.8579102,-0.2089844,1,-1,1,1,1,-3,-10,4,-12,-4,-1,-23,-27,-2,-6,-6,-14.625,-14.625,-14.625,-2.0625,-2.0625,-2.0625,2.727777,3.946328,5.68315,7.840394,4.098714,5.196949,0.1214267,-0.3020395,1.271469,0.1880906,-0.2822393,1.249302,0.1865748,0.3627525,1.570014,0.1459579,-0.2580685,1.24279,0.147037,-0.2543439,1.258512,0.1725343,-0.09133868,1.566565,0.1695037,-0.4085718,1.54345,0.005262592,0.08895496,1.550052,0.09364917,-0.4006017,1.515042,-0.04000174,-0.1126341,1.470511,0.3599059,-0.1034677,1.402168,NA,NA,NotTracked,NotTracked,
0.6992188,-0.8154297,0.1079102,0.6030273,0.8115234,-0.2568359,1,0,-3,0,-1,2,3,0,3,-1,1,8,11,3,1,4,-17.0625,-17.0625,-17.0625,10.125,10.125,10.125,2.722708,3.887588,5.65918,7.849,4.005988,5.206839,0.1208062,-0.3189887,1.289374,0.1879366,-0.3058177,1.265726,0.1863109,0.3626127,1.569923,0.1474984,-0.2795261,1.26529,0.151529,-0.2721891,1.264179,0.1726003,-0.09153715,1.566792,0.1697125,-0.4086655,1.543677,0.004735565,0.08834792,1.550518,0.09374073,-0.4007694,1.515356,-0.03804196,-0.1146881,1.473853,0.3564039,-0.105594,1.409905,NA,NA,NotTracked,NotTracked,
0.6928711,-0.8349609,0.09326172,0.6323242,0.8134766,-0.2460938,0,-3,-3,-2,0,3,6,0,-11,-2,-1,-1,10,-2,-6,-15,-15.0625,-15.0625,-15.0625,-3,-3,-3,2.706999,3.811146,5.612461,7.849101,3.927246,5.2354,0.1193598,-0.3324701,1.304438,0.1885343,-0.3176425,1.278598,0.1858122,0.3622135,1.569653,0.1516817,-0.3016685,1.26551,0.1549907,-0.2815745,1.273437,0.1726189,-0.09164918,1.566849,0.1697687,-0.4087358,1.543712,0.004781121,0.08733866,1.550782,0.09369702,-0.4009451,1.515465,-0.03788892,-0.1162465,1.475884,0.3460385,-0.1101175,1.419145,NA,NA,NotTracked,NotTracked,
0.6914063,-0.7915039,0.08105469,0.6098633,0.8037109,-0.2373047,-3,0,1,-1,1,0,0,-6,15,5,3,16,54,3,1,8,0.5625,0.5625,0.5625,10.4375,10.4375,10.4375,2.710899,3.785259,5.59138,7.85158,3.89992,5.262254,0.1173944,-0.3404133,1.31526,0.1876772,-0.3235821,1.28862,0.1855326,0.3621551,1.56934,0.148634,-0.3086408,1.277717,0.1521042,-0.294211,1.287075,0.1726617,-0.09172376,1.566822,0.169903,-0.4088338,1.543603,0.004680531,0.08606982,1.550702,0.09367023,-0.4011159,1.51542,-0.03841656,-0.1183284,1.478959,0.3433321,-0.1103378,1.422261,NA,NA,NotTracked,NotTracked,
0.6850586,-0.7792969,0.07128906,0.6049805,0.7983398,-0.2387695,-5,-3,-2,-2,-2,2,7,-2,-13,-7,-7,-10,-16,-6,-6,-6,2.125,2.125,2.125,3.1875,3.1875,3.1875,2.712807,3.780822,5.590061,7.853678,3.896053,5.274119,0.1152898,-0.3437388,1.318461,0.1872174,-0.3239056,1.291292,0.1853665,0.3622642,1.56896,0.1467367,-0.3109193,1.280065,0.1472176,-0.3051086,1.288867,0.1727306,-0.09176614,1.566752,0.1699864,-0.4088725,1.543542,0.004670784,0.08579043,1.550725,0.0936274,-0.401213,1.515389,-0.03904431,-0.1189331,1.480644,0.3426988,-0.1099938,1.423496,NA,NA,NotTracked,NotTracked,
0.6884766,-0.730957,0.1064453,0.6264648,0.7397461,-0.2060547,-6,-2,-1,2,-1,-5,-9,-13,5,4,0,3,-1,-1,2,6,-1.9375,-1.9375,-1.9375,-3.125,-3.125,-3.125,2.70884,3.781047,5.595724,7.856192,3.892174,5.270243,0.1146893,-0.3457578,1.319907,0.1868218,-0.3245282,1.292886,0.1852589,0.362315,1.568862,0.1444686,-0.3109395,1.282999,0.1490045,-0.2992479,1.287158,0.1727955,-0.0918037,1.566751,0.1700669,-0.4089231,1.543538,0.004681642,0.08535831,1.550877,0.09358975,-0.4013649,1.515481,-0.03957427,-0.1195798,1.482046,0.3419906,-0.109708,1.425048,NA,NA,NotTracked,NotTracked,
0.7133789,-0.7094727,0.109375,0.6298828,0.7475586,-0.1552734,-1,-3,-3,-3,0,0,0,-3,3,2,1,-1,3,0,0,6,4.5625,4.5625,4.5625,-2.5625,-2.5625,-2.5625,2.707423,3.781221,5.604019,7.863461,3.89563,5.256144,0.1143805,-0.3475332,1.318898,0.1843033,-0.3292843,1.291469,0.1852369,0.3622575,1.568819,0.1445104,-0.3103492,1.280906,0.149895,-0.297881,1.284886,0.1728275,-0.09190759,1.566737,0.1702404,-0.4090487,1.543567,0.004646765,0.08499607,1.551001,0.09360719,-0.4016034,1.515581,-0.03975093,-0.1199659,1.48239,0.3415678,-0.1102417,1.425962,NA,NA,NotTracked,NotTracked,
0.7260742,-0.6806641,0.1079102,0.6181641,0.7006836,-0.1757813,-4,-2,0,-5,-4,-5,-9,-5,-4,-3,1,-5,-3,0,-1,-3,5.5,5.5,5.5,-11.5625,-11.5625,-11.5625,2.710632,3.777418,5.618156,7.860244,3.903987,5.238306,0.1153782,-0.3508613,1.315245,0.1809583,-0.334248,1.288714,0.1852056,0.3621868,1.568622,0.1445101,-0.3143237,1.275112,0.1442653,-0.3066078,1.293886,0.172901,-0.09202514,1.566719,0.1702971,-0.4090914,1.543569,0.00469597,0.08483779,1.551026,0.09358264,-0.4017174,1.51562,-0.04012971,-0.1201867,1.483014,0.3412777,-0.1109695,1.426031,NA,NA,NotTracked,NotTracked,
0.7231445,-0.6557617,0.08886719,0.6494141,0.6801758,-0.1420898,1,-3,-2,-3,-3,-7,-1,-1,-3,0,-2,2,2,0,-1,-3,11.5625,11.5625,11.5625,-42.625,-42.625,-42.625,2.713962,3.76442,5.636248,7.834306,3.913736,5.199288,0.1140049,-0.3527715,1.311671,0.1773561,-0.3421607,1.283565,0.1851963,0.3621827,1.568581,0.1316807,-0.306137,1.27,0.1539024,-0.2964381,1.269222,0.1729438,-0.09209023,1.566733,0.1703559,-0.4090912,1.543608,0.004707509,0.08468784,1.551058,0.09353172,-0.4017417,1.515783,-0.04024639,-0.1204534,1.483611,0.340908,-0.1125509,1.426358,NA,NA,NotTracked,NotTracked,
0.7299805,-0.6547852,0.1054688,0.6542969,0.6157227,-0.1455078,-3,-1,0,-2,-1,2,2,-1,-4,-1,-2,-1,-4,-1,-1,-3,20.8125,20.8125,20.8125,-88.625,-88.625,-88.625,2.721449,3.75102,5.654217,7.761717,3.918486,5.131563,0.1128986,-0.3552025,1.311121,0.1823845,-0.3469548,1.273942,0.1851856,0.3621758,1.568541,0.1352215,-0.308002,1.313758,0.1424962,-0.34208,1.301939,0.1728937,-0.09215963,1.566711,0.1703674,-0.4092146,1.543589,0.004678468,0.08452841,1.551125,0.09333663,-0.4019431,1.51577,-0.04048157,-0.1208269,1.484702,0.3414496,-0.1154701,1.430643,NA,NA,NotTracked,NotTracked,
0.7729492,-0.6459961,0.08789063,0.6894531,0.5981445,-0.05566406,3,1,2,4,4,7,18,9,-2,-1,-2,-2,1,0,0,-1,48.75,48.75,48.75,-90.1875,-90.1875,-90.1875,2.758632,3.711813,5.72224,7.587232,3.899941,5.024581,0.09728028,-0.3517071,1.328005,0.2022781,-0.3569012,1.265398,0.1850253,0.3625884,1.56839,0.09771581,-0.3265768,1.29725,0.1567584,-0.3218023,1.258792,0.1726973,-0.09226883,1.566485,0.1698503,-0.4100934,1.543084,0.004654934,0.08440493,1.551276,0.09219319,-0.4025644,1.515251,-0.04185846,-0.1216203,1.488885,0.3463486,-0.120254,1.440784,NA,NA,NotTracked,NotTracked,
