ALX,ALY,ALZ,ARX,ARY,ARZ,EMG0L,EMG1L,EMG2L,EMG3L,EMG4L,EMG5L,EMG6L,EMG7L,EMG0R,EMG1R,EMG2R,EMG3R,EMG4R,EMG5R,EMG6R,EMG7R,GLX,GLY,GLZ,GRX,GRY,GRZ,ORL,OPL,OYL,ORR,OPR,OYR,LHNX,LHNY,LHNZ,RHNX,RHNY,RHNZ,HX,HY,HZ,LTX,LTY,LTZ,RTX,RTY,RTZ,SpineMidX,SpineMidY,SpineMidZ,SpineBaseX,SpineBaseY,SpineBaseZ,ShoulderLeftX,ShoulderLeftY,ShoulderLeftZ,ShoulderRightX,ShoulderRightY,ShoulderRightZ,ElbowLeftX,ElbowLeftY,ElbowLeftZ,ElbowRightX,ElbowRightY,ElbowRightZ,Myo_Pose_left,Myo_Pose_Right,Kinect_pose_left,Kinect_pose_right
0.9174805,-0.3686523,0.06103516,-0.2827148,0.8334961,0.03369141,-2,0,-1,-1,-2,-1,1,-6,2,-3,-2,-1,-10,-2,3,23,-4.875,-4.875,-4.875,-8.625,-8.625,-8.625,2.788436,3.148762,7.147031,7.518962,5.722063,9.47797,-0.1038581,-0.4757396,1.299985,0.03728883,0.07299327,1.311364,0.1614622,0.3581731,1.402685,-0.1238589,-0.4466397,1.248679,0.08590407,0.1036543,1.324759,0.1425269,-0.09590787,1.425435,0.1344462,-0.4128781,1.416637,-0.01027608,0.08683406,1.394364,0.05506648,-0.4051151,1.391427,-0.07302065,-0.1881745,1.408298,0.249789,-0.04731303,1.210648,NA,NA,Closed,NotTracked,
0.9199219,-0.3803711,0.07177734,-0.3217773,0.90625,0.08447266,-1,0,-2,0,-2,-5,-3,0,0,1,5,9,-12,-6,5,-38,-3.25,-3.25,-3.25,-12.625,-12.625,-12.625,2.768043,3.138317,7.157511,7.456267,5.616657,9.407023,-0.1048403,-0.478226,1.300675,0.03438792,0.06648108,1.310562,0.1618213,0.358247,1.402777,-0.1241847,-0.4490087,1.248646,0.08169407,0.09892157,1.325685,0.1425774,-0.09583145,1.425457,0.1344712,-0.4127933,1.416596,-0.01360897,0.08596778,1.397394,0.05504405,-0.4050705,1.391443,-0.07288062,-0.1883249,1.407715,0.2498117,-0.04680553,1.210406,NA,NA,Closed,NotTracked,
0.9282227,-0.3911133,0.06591797,-0.2993164,0.8808594,0.07568359,-6,0,1,-3,-2,0,-2,0,3,-3,-3,-6,6,-15,-5,11,-0.625,-0.625,-0.625,-11.875,-11.875,-11.875,2.751351,3.130188,7.176764,7.401147,5.548331,9.347657,-0.1050168,-0.4785325,1.302701,0.02245861,0.06787669,1.318897,0.1621235,0.358417,1.402722,-0.1467699,-0.4685429,1.290333,0.05914656,0.1219842,1.344911,0.142627,-0.095551,1.425443,0.1344749,-0.4125099,1.416562,-0.01627642,0.08536569,1.399885,0.05501104,-0.4048427,1.391521,-0.07284345,-0.1885959,1.407449,0.2540941,-0.04832096,1.210861,NA,NA,Closed,NotTracked,
0.9145508,-0.378418,0.06347656,-0.3857422,0.9521484,0.09423828,-2,0,-3,-1,0,0,-1,-5,1,1,-4,0,4,9,0,-2,3.1875,3.1875,3.1875,-35.5,-35.5,-35.5,2.740346,3.127138,7.192127,7.317878,5.452105,9.287859,-0.1073363,-0.4797109,1.303622,0.06595536,0.06082093,1.306642,0.1621931,0.3585801,1.402674,-0.07612529,-0.4893751,1.326972,0.1224084,0.0962237,1.31558,0.1426403,-0.09530638,1.425426,0.1344795,-0.4122295,1.4165,-0.01828562,0.08493153,1.402012,0.05500072,-0.4045477,1.391557,-0.07283964,-0.1892394,1.407316,0.2705728,-0.06008458,1.218609,NA,NA,Unknown,NotTracked,
0.9199219,-0.4033203,0.08886719,-0.3520508,0.9931641,0.1137695,-2,1,0,-1,-1,-1,-1,-1,4,4,0,-1,11,3,0,-1,-4.375,-4.375,-4.375,-8.25,-8.25,-8.25,2.721358,3.125702,7.208318,7.297353,5.408568,9.265198,-0.1100622,-0.4810086,1.305475,0.06561889,0.04214592,1.302259,0.1622062,0.3585965,1.402597,-0.07816724,-0.4897508,1.328882,0.118513,0.07886454,1.308358,0.1426709,-0.09524702,1.425367,0.1344661,-0.4121579,1.416411,-0.01985974,0.08449252,1.403893,0.0549889,-0.4044926,1.391511,-0.07321131,-0.1897361,1.40726,0.2816544,-0.06455731,1.220752,NA,NA,Unknown,NotTracked,
0.9296875,-0.3930664,0.08056641,-0.2875977,1.01709,0.1206055,-5,0,-4,-1,0,2,0,-4,-1,4,-9,-9,-3,-7,0,18,-4.125,-4.125,-4.125,-0.6875,-0.6875,-0.6875,2.699563,3.125221,7.228154,7.279956,5.35728,9.233011,-0.1101624,-0.4809564,1.305764,0.06595351,0.03357048,1.301822,0.162269,0.358435,1.402483,-0.07495506,-0.4875055,1.328927,0.1160913,0.07326812,1.306123,0.1427508,-0.09528442,1.425301,0.1345296,-0.4121849,1.416317,-0.02112112,0.08393182,1.405364,0.05506347,-0.4044899,1.391384,-0.07351969,-0.1904041,1.407207,0.288045,-0.06973633,1.225271,NA,NA,Closed,NotTracked,
0.9243164,-0.3828125,0.06982422,-0.2607422,1.003418,0.1635742,-1,-1,0,0,1,-3,-1,-2,1,-5,-5,-1,4,1,-3,-3,0.0625,0.0625,0.0625,-5.3125,-5.3125,-5.3125,2.695657,3.128689,7.231764,7.269366,5.344988,9.219799,-0.1123073,-0.4791642,1.303801,0.06665771,0.03281931,1.302534,0.1623112,0.3582319,1.402342,-0.07885763,-0.4866536,1.327263,0.11612,0.07564448,1.306293,0.1428621,-0.09536029,1.425228,0.1345895,-0.4122479,1.416231,-0.02174146,0.08379223,1.406211,0.05513179,-0.4044918,1.391258,-0.07401888,-0.190989,1.406918,0.2906433,-0.07167671,1.226435,NA,NA,Closed,NotTracked,
0.9257813,-0.3735352,0.07275391,-0.2207031,0.9819336,0.1435547,-2,-1,-3,0,-3,-3,-1,-1,1,-3,-1,3,-18,-28,-2,12,1.375,1.375,1.375,-4.875,-4.875,-4.875,2.710004,3.137223,7.219903,7.268808,5.348503,9.214598,-0.1122429,-0.4769206,1.300914,0.06627098,0.03249882,1.301636,0.1624591,0.358016,1.402086,-0.07866227,-0.4902362,1.322175,0.1148383,0.07505078,1.305204,0.1430339,-0.09541058,1.424917,0.134735,-0.4122335,1.415904,-0.02214166,0.08373153,1.406605,0.05529641,-0.4043781,1.390847,-0.07438266,-0.1912825,1.40643,0.2921616,-0.07234905,1.226644,NA,NA,Closed,NotTracked,
0.9208984,-0.3720703,0.06689453,-0.2050781,0.9887695,0.1201172,-3,-1,-2,-2,-2,3,1,-1,3,0,3,6,-16,6,1,16,6.6875,6.6875,6.6875,5.625,5.625,5.625,2.734709,3.149151,7.204264,7.279292,5.353668,9.218727,-0.1117063,-0.4753689,1.300827,0.05501441,0.03496326,1.303703,0.1626454,0.3579154,1.401897,-0.06679142,-0.47548,1.329444,0.09898622,0.0816252,1.310697,0.143098,-0.09543146,1.424785,0.1348173,-0.4122274,1.41563,-0.02243295,0.08369838,1.406934,0.05540654,-0.4042869,1.390537,-0.07479178,-0.191252,1.405993,0.2926994,-0.07350519,1.227781,NA,NA,Closed,NotTracked,
0.9223633,-0.3769531,0.05664063,-0.2119141,0.9604492,0.1430664,1,0,-2,-1,-3,-3,-1,-4,4,-3,4,1,2,-2,1,27,6,6,6,2.75,2.75,2.75,2.751734,3.155397,7.196477,7.281431,5.351032,9.225538,-0.1105852,-0.4739715,1.298465,0.06210304,0.03142753,1.3,0.1626976,0.3579761,1.401788,-0.07140479,-0.4727237,1.323727,0.1078389,0.07491805,1.305163,0.1432416,-0.09535871,1.424615,0.1349096,-0.412181,1.415313,-0.02263667,0.08371862,1.407221,0.05552024,-0.4042038,1.39026,-0.07500547,-0.1912506,1.405699,0.2924689,-0.07381961,1.227964,NA,NA,Closed,Unknown,
0.9155273,-0.3789063,0.06445313,-0.215332,0.9643555,0.1464844,-1,1,-2,-1,-2,0,-1,-2,1,1,1,-4,-10,-3,3,10,5.75,5.75,5.75,2.625,2.625,2.625,2.770009,3.159415,7.187595,7.284285,5.350802,9.227139,-0.1098002,-0.4736283,1.297003,0.06019562,0.03317696,1.299761,0.162694,0.3580152,1.401455,-0.07877228,-0.4849611,1.323594,0.1075773,0.07818641,1.306818,0.1432491,-0.09528151,1.424297,0.1349991,-0.4121166,1.414724,-0.02360119,0.08369729,1.405871,0.05565733,-0.4041163,1.389742,-0.07523039,-0.1913124,1.40502,0.2924505,-0.07596314,1.226983,NA,NA,Unknown,NotTracked,
0.9155273,-0.3789063,0.06445313,-0.215332,0.9643555,0.1464844,-1,1,-2,-1,-2,0,-1,-2,1,1,1,-4,-10,-3,3,10,5.75,5.75,5.75,2.625,2.625,2.625,2.770009,3.159415,7.187595,7.284285,5.350802,9.227139,-0.1114678,-0.4747314,1.296383,0.0600493,0.03296545,1.300082,0.1626839,0.3581437,1.40126,-0.08060402,-0.480823,1.326846,0.1071045,0.07701045,1.306548,0.1433364,-0.09529707,1.423977,0.1350269,-0.4121889,1.414382,-0.02374762,0.08355555,1.406322,0.05571228,-0.4041411,1.389456,-0.07537833,-0.1910177,1.404238,0.2921911,-0.0760301,1.227043,NA,NA,Unknown,NotTracked,
0.918457,-0.3974609,0.06640625,-0.21875,0.9580078,0.1362305,-1,-2,0,-1,0,0,-2,1,-9,-1,-3,5,-10,-8,-10,5,1.4375,1.4375,1.4375,-1.75,-1.75,-1.75,2.7702,3.155393,7.199907,7.289301,5.353181,9.228168,-0.1114964,-0.4759777,1.297807,0.05829462,0.0337635,1.301173,0.1626481,0.3582714,1.401175,-0.08057349,-0.481896,1.32566,0.102966,0.077905,1.307318,0.1434491,-0.09523609,1.423794,0.1350249,-0.4122393,1.414124,-0.02385863,0.08351366,1.406822,0.05573197,-0.4041484,1.389289,-0.07542649,-0.191116,1.404118,0.2921727,-0.07585353,1.22705,NA,NA,Unknown,NotTracked,
0.9145508,-0.3959961,0.07177734,-0.2319336,0.9672852,0.1318359,-2,-2,-2,-2,1,-3,1,-1,-8,-6,-1,3,5,15,6,1,2.9375,2.9375,2.9375,-0.875,-0.875,-0.875,2.759779,3.15172,7.216789,7.288998,5.353926,9.227551,-0.1129964,-0.4759206,1.297897,0.05433067,0.03453854,1.300629,0.1625712,0.3584269,1.400972,-0.0820039,-0.4825018,1.327504,0.09965262,0.08030286,1.307573,0.1434065,-0.09510315,1.423451,0.1350183,-0.412182,1.413657,-0.0248062,0.08313736,1.406144,0.05579558,-0.404066,1.388867,-0.07555203,-0.1916433,1.403928,0.2920879,-0.07621313,1.226755,NA,NA,Closed,NotTracked,
0.9169922,-0.4013672,0.07763672,-0.2250977,0.9702148,0.1220703,-1,0,-1,0,-4,-2,-2,0,-10,-4,-5,-11,10,-25,-9,-25,0.5,0.5,0.5,1.5,1.5,1.5,2.752355,3.151117,7.227301,7.290446,5.355456,9.224568,-0.1149745,-0.4759116,1.298468,0.05982428,0.0339678,1.299793,0.162502,0.3586836,1.400455,-0.06498603,-0.4863063,1.296867,0.1046425,0.07865413,1.306597,0.1434617,-0.09480133,1.42291,0.1351014,-0.4118797,1.413093,-0.02572615,0.08330294,1.40477,0.0559458,-0.4038289,1.388455,-0.0758132,-0.1920063,1.403844,0.2918523,-0.07689089,1.226663,NA,NA,Closed,NotTracked,
0.918457,-0.3950195,0.07763672,-0.2114258,0.9580078,0.1328125,0,-2,-4,-2,-2,0,-1,-2,1,0,-1,-12,1,2,7,23,1.0625,1.0625,1.0625,1.1875,1.1875,1.1875,2.750152,3.151871,7.231888,7.292355,5.356765,9.220243,-0.1149096,-0.4760519,1.297843,0.06013054,0.03381079,1.297826,0.1624359,0.3588264,1.399907,-0.08871274,-0.4853638,1.325739,0.1034183,0.07808505,1.30516,0.1434715,-0.09471723,1.422203,0.1351062,-0.4117342,1.412255,-0.02673049,0.08306925,1.403143,0.05600623,-0.4037237,1.387712,-0.07623556,-0.1922308,1.403657,0.2918828,-0.07726693,1.226147,NA,NA,Closed,NotTracked,
0.918457,-0.3950195,0.07763672,-0.2109375,0.9458008,0.1420898,0,-2,-4,-2,-2,0,-1,-2,-4,-1,1,-3,7,5,-9,-3,1.0625,1.0625,1.0625,-0.375,-0.375,-0.375,2.750152,3.151871,7.231888,7.291122,5.356713,9.218905,-0.1163172,-0.4756593,1.297431,0.06011166,0.03324945,1.298351,0.1624044,0.358828,1.399555,-0.09118007,-0.4903925,1.317396,0.1041388,0.07728575,1.304941,0.1434754,-0.09468962,1.421858,0.1350794,-0.4116226,1.411649,-0.02703465,0.08299012,1.402554,0.05600672,-0.4036276,1.387154,-0.07657205,-0.1926426,1.403344,0.2914179,-0.07729143,1.225849,NA,NA,Unknown,NotTracked,
0.918457,-0.3950195,0.07763672,-0.2333984,0.9667969,0.1245117,0,-2,-4,-2,-2,0,-1,-2,0,-3,-3,-1,-8,1,-3,-7,1.0625,1.0625,1.0625,1.875,1.875,1.875,2.750152,3.151871,7.231888,7.289461,5.360442,9.211427,-0.1172662,-0.4730159,1.2964,0.05390561,0.03650192,1.300614,0.1623907,0.3588081,1.399001,-0.08199858,-0.4809011,1.318829,0.0987165,0.08044067,1.306555,0.1434589,-0.09459806,1.421374,0.1349936,-0.4114695,1.41108,-0.027339,0.08303434,1.401986,0.0559812,-0.4035024,1.386694,-0.07700916,-0.1926968,1.402908,0.2914252,-0.07724004,1.225598,NA,NA,Unknown,NotTracked,
0.918457,-0.3950195,0.07763672,-0.2275391,0.9677734,0.1230469,0,-2,-4,-2,-2,0,-1,-2,-5,-2,-6,-8,-28,2,0,-17,1.0625,1.0625,1.0625,0.3125,0.3125,0.3125,2.750152,3.151871,7.231888,7.289925,5.362812,9.206215,-0.1171059,-0.4718437,1.293816,0.05502637,0.03754488,1.299797,0.1623638,0.3589152,1.398575,-0.06734888,-0.4763781,1.3022,0.1011507,0.08042845,1.305806,0.1434664,-0.09450788,1.420794,0.1348457,-0.4113075,1.410337,-0.0277834,0.08295185,1.401149,0.05586424,-0.4033509,1.385869,-0.07741395,-0.1925124,1.402456,0.2909261,-0.0774515,1.22525,NA,NA,Closed,NotTracked,
0.918457,-0.3950195,0.07763672,-0.2275391,0.9648438,0.1347656,0,-2,-4,-2,-2,0,-1,-2,-1,8,2,-1,-7,2,2,-13,1.0625,1.0625,1.0625,1.0625,1.0625,1.0625,2.750152,3.151871,7.231888,7.291733,5.365001,9.19947,-0.1164406,-0.4712079,1.293944,0.05320783,0.03760729,1.300689,0.1624527,0.3590396,1.398276,-0.07758539,-0.4761634,1.313992,0.09806714,0.08150059,1.306732,0.1433989,-0.0944043,1.420405,0.1347344,-0.411166,1.409772,-0.02799075,0.08284859,1.400605,0.05573073,-0.4031926,1.385236,-0.07788417,-0.1923383,1.401645,0.2909238,-0.07751171,1.225241,NA,NA,Closed,NotTracked,
0.918457,-0.3950195,0.07763672,-0.215332,0.9609375,0.1328125,0,-2,-4,-2,-2,0,-1,-2,-2,-5,-2,7,-6,-3,0,-2,1.0625,1.0625,1.0625,0.5625,0.5625,0.5625,2.750152,3.151871,7.231888,7.292386,5.365252,9.193151,-0.1177287,-0.4721715,1.292453,0.05360066,0.03633892,1.300618,0.1625147,0.3591477,1.398239,-0.07981346,-0.4813954,1.315577,0.1001773,0.08018571,1.306615,0.143273,-0.09436599,1.420137,0.134479,-0.4111397,1.409339,-0.02805163,0.08289202,1.400221,0.05549676,-0.4031281,1.384762,-0.07841652,-0.1925011,1.401009,0.2911803,-0.07715584,1.224272,NA,NA,Unknown,NotTracked,
0.918457,-0.3950195,0.07763672,-0.222168,0.9614258,0.1293945,0,-2,-4,-2,-2,0,-1,-2,-1,-1,0,-7,-1,2,2,8,1.0625,1.0625,1.0625,-0.0625,-0.0625,-0.0625,2.750152,3.151871,7.231888,7.292078,5.365221,9.19138,-0.1170811,-0.4709778,1.291932,0.05168609,0.03571668,1.300126,0.1626245,0.3590563,1.398271,-0.07686989,-0.4769257,1.31437,0.09595964,0.08183835,1.307049,0.1431698,-0.09445672,1.419738,0.1342341,-0.411166,1.408687,-0.02807714,0.08299488,1.399912,0.05523232,-0.403111,1.383909,-0.0787949,-0.192459,1.400334,0.2910824,-0.07703989,1.223742,NA,NA,Closed,NotTracked,
0.918457,-0.3950195,0.07763672,-0.2333984,0.9648438,0.1210938,0,-2,-4,-2,-2,0,-1,-2,-2,-3,-2,-2,-2,-1,-3,-6,1.0625,1.0625,1.0625,1.5,1.5,1.5,2.750152,3.151871,7.231888,7.29362,5.365581,9.17761,-0.1179064,-0.4709712,1.289942,0.05158247,0.03695187,1.300487,0.1627241,0.3589467,1.398224,-0.07930323,-0.4838352,1.313534,0.09559654,0.08230159,1.307261,0.143155,-0.09462936,1.419335,0.1340639,-0.4112582,1.408131,-0.02821376,0.0829448,1.399453,0.05506108,-0.4032035,1.383358,-0.07897177,-0.1927481,1.399614,0.2911232,-0.07715108,1.223884,NA,NA,Unknown,NotTracked,
0.918457,-0.3950195,0.07763672,-0.2294922,0.9536133,0.1240234,0,-2,-4,-2,-2,0,-1,-2,3,-1,1,-2,3,-5,-2,1,1.0625,1.0625,1.0625,0.125,0.125,0.125,2.750152,3.151871,7.231888,7.293797,5.365842,9.171145,-0.1173779,-0.4711164,1.290857,0.05243433,0.03550423,1.300013,0.1629076,0.3588943,1.398238,-0.0832343,-0.4668979,1.326577,0.09621911,0.0814833,1.307414,0.1430927,-0.09458464,1.419276,0.1339132,-0.4111515,1.407913,-0.02825643,0.08299577,1.399284,0.05490604,-0.4030479,1.383043,-0.07920032,-0.1926203,1.399214,0.2910538,-0.07760601,1.224774,NA,NA,Unknown,NotTracked,
0.918457,-0.3950195,0.07763672,-0.2324219,0.9702148,0.1230469,0,-2,-4,-2,-2,0,-1,-2,2,-2,-2,2,-8,-7,0,15,1.0625,1.0625,1.0625,-0.0625,-0.0625,-0.0625,2.750152,3.151871,7.231888,7.294019,5.366508,9.163995,-0.1175434,-0.4708744,1.288695,0.05163288,0.03678906,1.300159,0.1630587,0.3588525,1.398173,-0.08073937,-0.4801672,1.315362,0.0946942,0.08276724,1.307063,0.1430448,-0.0945636,1.419071,0.1337194,-0.4110639,1.407595,-0.02833119,0.08299686,1.398979,0.05472761,-0.4029099,1.382595,-0.07927029,-0.1924571,1.39872,0.2911397,-0.07725664,1.224371,NA,NA,Closed,NotTracked,
0.918457,-0.3950195,0.07763672,-0.2148438,0.949707,0.1230469,0,-2,-4,-2,-2,0,-1,-2,-1,1,-4,-2,-13,1,6,-22,1.0625,1.0625,1.0625,-0.125,-0.125,-0.125,2.750152,3.151871,7.231888,7.293356,5.366229,9.160767,-0.1178343,-0.4709922,1.289269,0.05203789,0.03585165,1.300962,0.163385,0.3587559,1.398138,-0.08633802,-0.4792625,1.317837,0.09522516,0.08169562,1.307837,0.1430259,-0.09456247,1.419025,0.1336812,-0.4110453,1.407473,-0.02830591,0.08295556,1.398697,0.05469122,-0.4028898,1.382444,-0.07938664,-0.1923429,1.398441,0.2918405,-0.07714864,1.224186,NA,NA,Unknown,NotTracked,
0.918457,-0.3950195,0.07763672,-0.2373047,0.9785156,0.1274414,0,-2,-4,-2,-2,0,-1,-2,2,-1,0,-2,-9,-1,-7,31,1.0625,1.0625,1.0625,-0.375,-0.375,-0.375,2.750152,3.151871,7.231888,7.292551,5.367188,9.156964,-0.1169572,-0.4710743,1.29023,0.05476498,0.03360384,1.299479,0.1636193,0.3587835,1.398089,-0.0879873,-0.4837218,1.312509,0.09673491,0.0806835,1.307163,0.1430108,-0.09456734,1.418959,0.13365,-0.4110577,1.4074,-0.02826717,0.08295059,1.398487,0.05465766,-0.4028819,1.382335,-0.07942129,-0.1923083,1.398333,0.292442,-0.07701164,1.224062,NA,NA,Unknown,NotTracked,
0.918457,-0.3950195,0.07763672,-0.2373047,0.9785156,0.1274414,0,-2,-4,-2,-2,0,-1,-2,2,-1,0,-2,-9,-1,-7,31,1.0625,1.0625,1.0625,-0.375,-0.375,-0.375,2.750152,3.151871,7.231888,7.292551,5.367188,9.156964,-0.1178376,-0.4723008,1.29004,0.05484891,0.03242771,1.298968,0.1641312,0.3589687,1.398124,-0.08777764,-0.4881637,1.311561,0.09714776,0.08037906,1.306836,0.1430854,-0.0945636,1.418875,0.1336498,-0.4110592,1.407367,-0.02806998,0.0830449,1.398232,0.05465622,-0.4028726,1.382302,-0.07942262,-0.1923536,1.398235,0.2924139,-0.07714666,1.224234,NA,NA,Closed,NotTracked,
0.918457,-0.3950195,0.07763672,-0.2324219,0.96875,0.1313477,0,-2,-4,-2,-2,0,-1,-2,1,-3,-3,-3,-10,3,-3,3,1.0625,1.0625,1.0625,-0.0625,-0.0625,-0.0625,2.750152,3.151871,7.231888,7.283725,5.370621,9.145272,-0.1170769,-0.471758,1.290956,0.05326123,0.03529815,1.300367,0.1647535,0.3591498,1.397717,-0.08639817,-0.4796964,1.316552,0.09544756,0.08241212,1.307904,0.1431641,-0.09451365,1.418788,0.1336559,-0.411047,1.407359,-0.02790195,0.08312261,1.398144,0.05467207,-0.402828,1.382271,-0.07942154,-0.1922595,1.398249,0.2923142,-0.07758419,1.224827,NA,NA,Closed,NotTracked,
0.918457,-0.3950195,0.07763672,-0.2241211,0.9614258,0.1269531,0,-2,-4,-2,-2,0,-1,-2,1,1,-1,-2,-4,-6,4,15,1.0625,1.0625,1.0625,0.5,0.5,0.5,2.750152,3.151871,7.231888,7.284039,5.373354,9.139059,-0.1179721,-0.4733973,1.290885,0.0546541,0.03600216,1.301267,0.1653322,0.3591423,1.397393,-0.08700591,-0.4893079,1.312825,0.09682439,0.08164526,1.307449,0.143241,-0.094469,1.418769,0.1337094,-0.4110208,1.407355,-0.02776198,0.08317239,1.39804,0.05473084,-0.4027918,1.38227,-0.07933392,-0.1923014,1.398438,0.2923205,-0.07767309,1.225048,NA,NA,Unknown,NotTracked,
0.918457,-0.3950195,0.07763672,-0.2353516,0.956543,0.1347656,0,-2,-4,-2,-2,0,-1,-2,2,1,2,-2,1,-6,-2,-4,1.0625,1.0625,1.0625,-1.6875,-1.6875,-1.6875,2.750152,3.151871,7.231888,7.280931,5.374282,9.131584,-0.117109,-0.4745547,1.292611,0.05914291,0.03225575,1.299503,0.1660254,0.3589547,1.397047,-0.08486682,-0.4829937,1.315179,0.1007664,0.0782873,1.306206,0.1434687,-0.09454323,1.418764,0.1337409,-0.4110513,1.407372,-0.02733555,0.08336289,1.398093,0.05475256,-0.4028036,1.382275,-0.07925964,-0.1922597,1.398621,0.2924942,-0.0779541,1.225431,NA,NA,Closed,NotTracked,
0.918457,-0.3950195,0.07763672,-0.234375,0.9672852,0.1347656,0,-2,-4,-2,-2,0,-1,-2,-2,-2,-2,1,0,4,3,-4,1.0625,1.0625,1.0625,0.4375,0.4375,0.4375,2.750152,3.151871,7.231888,7.279473,5.373494,9.124697,-0.1171936,-0.4737391,1.291901,0.06118527,0.03297897,1.29912,0.1667504,0.3588284,1.396858,-0.08518776,-0.4842423,1.315356,0.1029444,0.07740471,1.304899,0.1436929,-0.0945774,1.418729,0.1337943,-0.4110569,1.407384,-0.0269794,0.0834484,1.398077,0.05481338,-0.4027832,1.382246,-0.07912827,-0.1920285,1.39871,0.2926792,-0.07854611,1.225678,NA,NA,Closed,NotTracked,
0.918457,-0.3950195,0.07763672,-0.2319336,0.9707031,0.1298828,0,-2,-4,-2,-2,0,-1,-2,2,2,2,3,4,2,2,0,1.0625,1.0625,1.0625,-0.4375,-0.4375,-0.4375,2.750152,3.151871,7.231888,7.277631,5.372687,9.1126,-0.1162661,-0.4723285,1.292982,0.061095,0.03311311,1.299082,0.1673943,0.3588998,1.396626,-0.0851143,-0.4840057,1.315207,0.1026088,0.07742261,1.305696,0.144086,-0.09457016,1.418701,0.1339383,-0.4110833,1.407415,-0.02673087,0.0834858,1.398018,0.05493045,-0.4027839,1.382249,-0.07874631,-0.1917588,1.398964,0.2933342,-0.0789609,1.226231,NA,NA,Unknown,NotTracked,
0.918457,-0.3950195,0.07763672,-0.2338867,0.9604492,0.1337891,0,-2,-4,-2,-2,0,-1,-2,2,0,0,-1,0,-1,0,3,1.0625,1.0625,1.0625,1.5,1.5,1.5,2.750152,3.151871,7.231888,7.27796,5.373575,9.106987,-0.1165334,-0.4724802,1.291532,0.06153673,0.03193401,1.298649,0.168187,0.3588434,1.396537,-0.08584668,-0.4859383,1.318052,0.1025717,0.07709849,1.30599,0.1443749,-0.09455217,1.418736,0.1340734,-0.4110566,1.407473,-0.02645113,0.08357316,1.398116,0.05504724,-0.4027425,1.382272,-0.07857586,-0.1915615,1.399166,0.2940676,-0.07893419,1.226341,NA,NA,Closed,NotTracked,
0.918457,-0.3950195,0.07763672,-0.237793,0.9536133,0.1245117,0,-2,-4,-2,-2,0,-1,-2,0,0,-2,2,0,-2,-1,0,1.0625,1.0625,1.0625,2.625,2.625,2.625,2.750152,3.151871,7.231888,7.278529,5.371043,9.096368,-0.1153344,-0.4720695,1.291517,0.05960245,0.0335388,1.301001,0.1691048,0.3590448,1.396825,-0.0844325,-0.4838549,1.318178,0.1024598,0.0783989,1.307014,0.1446542,-0.09450325,1.418901,0.1342084,-0.4110279,1.407538,-0.02541055,0.0836847,1.40068,0.05516499,-0.4026805,1.382326,-0.07835361,-0.1914493,1.399261,0.2945977,-0.07849054,1.22709,NA,NA,Closed,NotTracked,
0.918457,-0.3950195,0.07763672,-0.2285156,0.9692383,0.137207,0,-2,-4,-2,-2,0,-1,-2,3,0,0,-1,0,-1,-2,1,1.0625,1.0625,1.0625,0.0625,0.0625,0.0625,2.750152,3.151871,7.231888,7.280102,5.370113,9.086838,-0.1146232,-0.4720414,1.290963,0.06015808,0.03297991,1.301221,0.1698519,0.3590688,1.396945,-0.07954265,-0.4827046,1.31396,0.1016543,0.07817698,1.307323,0.1449822,-0.09451309,1.41905,0.134351,-0.4110473,1.407584,-0.0247447,0.08379187,1.40209,0.05528155,-0.4026739,1.382323,-0.07795966,-0.1909559,1.399318,0.2950422,-0.07833071,1.228205,NA,NA,Closed,NotTracked,
0.918457,-0.3950195,0.07763672,-0.2387695,0.9658203,0.1230469,0,-2,-4,-2,-2,0,-1,-2,-5,-2,-1,0,2,0,-3,-10,1.0625,1.0625,1.0625,1.4375,1.4375,1.4375,2.750152,3.151871,7.231888,7.282237,5.374467,9.071664,-0.1136494,-0.4704359,1.291199,0.05894902,0.03379651,1.300999,0.1708222,0.3588836,1.397199,-0.07682023,-0.4711564,1.320289,0.1008907,0.07892697,1.307559,0.1453788,-0.0945416,1.419188,0.1346923,-0.4110888,1.407612,-0.02401169,0.08375468,1.402519,0.05558728,-0.4026557,1.382256,-0.07763672,-0.1907713,1.399229,0.2958501,-0.07802496,1.228946,NA,NA,Unknown,NotTracked,
0.918457,-0.3950195,0.07763672,-0.2348633,0.9594727,0.1259766,0,-2,-4,-2,-2,0,-1,-2,2,3,1,0,-1,-2,2,5,1.0625,1.0625,1.0625,0.3125,0.3125,0.3125,2.750152,3.151871,7.231888,7.281924,5.374388,9.06839,-0.1136169,-0.4706075,1.290535,0.05844153,0.03266916,1.301496,0.1718017,0.3589021,1.397728,-0.08271873,-0.481783,1.316608,0.1005711,0.07876693,1.308506,0.1456628,-0.09452758,1.419361,0.1348974,-0.4111444,1.407736,-0.02343577,0.08386807,1.403977,0.05572116,-0.4026695,1.382287,-0.07714099,-0.1904103,1.399134,0.2965073,-0.07774846,1.229735,NA,NA,Closed,NotTracked,
0.918457,-0.3950195,0.07763672,-0.2397461,0.9589844,0.1176758,0,-2,-4,-2,-2,0,-1,-2,2,-1,-2,0,-2,-1,-4,-3,1.0625,1.0625,1.0625,-1,-1,-1,2.750152,3.151871,7.231888,7.281137,5.374746,9.041899,-0.1127045,-0.4704029,1.290303,0.05840531,0.03344641,1.302095,0.172807,0.3588455,1.398597,-0.07534574,-0.4850272,1.311081,0.1001091,0.07894669,1.310272,0.1461068,-0.09454346,1.419847,0.1352281,-0.411223,1.407943,-0.02302925,0.08391672,1.4051,0.05595405,-0.4026835,1.382316,-0.076589,-0.1904139,1.399274,0.2970633,-0.07773209,1.230877,NA,NA,Closed,NotTracked,
0.918457,-0.3950195,0.07763672,-0.1953125,0.9536133,0.1210938,0,-2,-4,-2,-2,0,-1,-2,-1,-2,0,-1,-2,0,0,-2,1.0625,1.0625,1.0625,0.625,0.625,0.625,2.750152,3.151871,7.231888,7.277022,5.370049,8.999808,-0.1115315,-0.4700403,1.290121,0.05541151,0.03117924,1.299534,0.1738338,0.3585488,1.399955,-0.07521111,-0.4811506,1.311652,0.09810269,0.07919706,1.311337,0.1466234,-0.09471607,1.420502,0.1354694,-0.4113386,1.408208,-0.02252043,0.08402391,1.404827,0.05609345,-0.4027089,1.382405,-0.07604437,-0.1900548,1.399332,0.297487,-0.07793157,1.231836,NA,NA,Unknown,Unknown,
0.918457,-0.3950195,0.07763672,-0.1879883,0.9643555,0.1191406,0,-2,-4,-2,-2,0,-1,-2,-6,-4,-1,-1,-2,0,2,0,1.0625,1.0625,1.0625,-2.25,-2.25,-2.25,2.750152,3.151871,7.231888,7.266195,5.357583,8.955762,-0.1109382,-0.4683723,1.289774,0.05414119,0.0287817,1.296749,0.1749767,0.3581196,1.401489,-0.07596204,-0.4793107,1.310887,0.09570052,0.07808928,1.313222,0.1471975,-0.09498059,1.421291,0.1357753,-0.4114452,1.408668,-0.02213742,0.08402129,1.405175,0.05637003,-0.4027432,1.382737,-0.07545479,-0.189911,1.399671,0.2982654,-0.07857514,1.23307,NA,NA,Closed,Unknown,
0.918457,-0.3950195,0.07763672,-0.1650391,0.9316406,0.1469727,0,-2,-4,-2,-2,0,-1,-2,26,4,0,-1,-1,-2,-3,4,1.0625,1.0625,1.0625,2.1875,2.1875,2.1875,2.750152,3.151871,7.231888,7.258692,5.349885,8.922971,-0.1116357,-0.4679631,1.289572,0.05443497,0.02552587,1.294471,0.1759889,0.3577304,1.402989,-0.07710713,-0.483231,1.312892,0.09774022,0.0758407,1.312358,0.1480056,-0.09524976,1.422271,0.1361216,-0.4114964,1.408957,-0.02166201,0.08411031,1.404705,0.05664631,-0.4027295,1.3829,-0.07520194,-0.1896277,1.399853,0.300115,-0.07938974,1.234494,NA,NA,Unknown,Unknown,
0.918457,-0.3950195,0.07763672,-0.1577148,0.949707,0.1699219,0,-2,-4,-2,-2,0,-1,-2,0,0,0,-2,1,-4,2,0,1.0625,1.0625,1.0625,-5.625,-5.625,-5.625,2.750152,3.151871,7.231888,7.242589,5.328511,8.878084,-0.1122645,-0.4670981,1.29181,0.05459014,0.01860236,1.292255,0.1782785,0.3579209,1.407777,-0.0865102,-0.4851513,1.323,0.08776813,0.07011831,1.31684,0.1496366,-0.09513769,1.425274,0.1370719,-0.4113572,1.410787,-0.02122513,0.08438826,1.408591,0.0577829,-0.4023423,1.38486,-0.07405402,-0.1889696,1.401549,0.3086681,-0.08210821,1.238843,NA,NA,Unknown,Unknown,
0.918457,-0.3950195,0.07763672,-0.1679688,0.8979492,0.1992188,0,-2,-4,-2,-2,0,-1,-2,2,0,-1,0,1,-1,0,-1,1.0625,1.0625,1.0625,-17.125,-17.125,-17.125,2.750152,3.151871,7.231888,7.176758,5.276405,8.738859,-0.1129905,-0.4679097,1.293047,0.05831602,0.01016126,1.28707,0.1791843,0.3580142,1.409821,-0.08246751,-0.4795423,1.319497,0.08548356,0.06224913,1.315842,0.150231,-0.09505385,1.426468,0.1374837,-0.4112609,1.411586,-0.02097065,0.0846509,1.41028,0.05829734,-0.4021513,1.385629,-0.07348914,-0.1896498,1.40337,0.3162743,-0.08465321,1.242846,NA,NA,Closed,Unknown,
