ALX,ALY,ALZ,ARX,ARY,ARZ,EMG0L,EMG1L,EMG2L,EMG3L,EMG4L,EMG5L,EMG6L,EMG7L,EMG0R,EMG1R,EMG2R,EMG3R,EMG4R,EMG5R,EMG6R,EMG7R,GLX,GLY,GLZ,GRX,GRY,GRZ,ORL,OPL,OYL,ORR,OPR,OYR,LHNX,LHNY,LHNZ,RHNX,RHNY,RHNZ,HX,HY,HZ,LTX,LTY,LTZ,RTX,RTY,RTZ,SpineMidX,SpineMidY,SpineMidZ,SpineBaseX,SpineBaseY,SpineBaseZ,ShoulderLeftX,ShoulderLeftY,ShoulderLeftZ,ShoulderRightX,ShoulderRightY,ShoulderRightZ,ElbowLeftX,ElbowLeftY,ElbowLeftZ,ElbowRightX,ElbowRightY,ElbowRightZ,Myo_Pose_left,Myo_Pose_Right,Kinect_pose_left,Kinect_pose_right
0.909668,-0.3647461,0.07666016,0.8833008,0.4370117,0.1225586,-1,-2,-1,0,-1,-1,0,-1,-3,-1,-2,0,-1,-2,-1,-4,-0.75,-0.75,-0.75,3.5,3.5,3.5,2.787047,3.118664,9.079381,7.063551,3.248533,2.505119,-0.1274402,-0.4495638,1.083301,0.2731499,-0.4152425,1.053376,0.06521421,0.4450167,1.207969,-0.1632157,-0.4376959,1.074173,0.3118299,-0.4181431,1.043064,0.07166328,-0.02854219,1.209777,0.08764448,-0.3582588,1.188979,-0.1184498,0.1296418,1.185347,0.0001750869,-0.3509953,1.15717,-0.1487146,-0.1270076,1.186165,0.2950081,-0.1223847,1.172928,NA,NA,NotTracked,Unknown,
0.9082031,-0.3798828,0.07324219,0.8969727,0.4418945,0.09863281,-2,-1,0,-1,1,-1,-1,0,-1,-2,0,-1,-1,-1,-1,-1,-0.875,-0.875,-0.875,2.375,2.375,2.375,2.775168,3.127232,9.087914,7.080429,3.255471,2.499279,-0.1296941,-0.4530906,1.079535,0.2730296,-0.4141331,1.052046,0.06547981,0.4452195,1.210566,-0.159667,-0.4585513,1.062667,0.3091088,-0.4175524,1.031758,0.07170701,-0.02857337,1.209993,0.08760554,-0.3583237,1.188715,-0.1184276,0.1295252,1.185681,0.0001556295,-0.3510344,1.156924,-0.1487097,-0.1278016,1.185782,0.2951041,-0.1222604,1.172668,NA,NA,NotTracked,Unknown,
0.9150391,-0.3686523,0.07275391,0.8823242,0.4277344,0.1049805,-1,-1,0,0,-1,-1,-1,0,0,-3,0,-1,-4,-1,0,1,-0.6875,-0.6875,-0.6875,-4.4375,-4.4375,-4.4375,2.779493,3.136492,9.082806,7.081275,3.265896,2.494813,-0.1288831,-0.4568595,1.07449,0.2722107,-0.4160183,1.049528,0.06557304,0.4452125,1.213707,-0.1605117,-0.4569806,1.060342,0.3069172,-0.4266784,1.033333,0.07163999,-0.02859352,1.21024,0.08749918,-0.3583994,1.188297,-0.1185034,0.1295064,1.185969,8.792133E-05,-0.351071,1.156592,-0.1486748,-0.1282487,1.18553,0.2951395,-0.1220016,1.172325,NA,NA,NotTracked,Unknown,
0.9008789,-0.3774414,0.06835938,0.871582,0.4345703,0.1162109,-3,0,-1,-2,-1,0,-3,1,-2,-1,-2,0,0,0,2,-1,-0.125,-0.125,-0.125,0.6875,0.6875,0.6875,2.787612,3.145739,9.07283,7.078011,3.27183,2.497882,-0.1287667,-0.4550005,1.072905,0.2723247,-0.4176376,1.047295,0.06566807,0.4451972,1.216924,-0.1584713,-0.4528027,1.057247,0.3121721,-0.4219394,1.038185,0.07152528,-0.02870939,1.210688,0.08738089,-0.3585062,1.18793,-0.1187075,0.1294544,1.186263,1.444536E-05,-0.3511528,1.156282,-0.1488187,-0.1284572,1.185426,0.2952073,-0.121729,1.172113,NA,NA,NotTracked,Lasso,
0.9106445,-0.3847656,0.07373047,0.8808594,0.4399414,0.1152344,-1,0,-2,-1,-2,1,-1,-2,-2,0,-1,-1,-2,-4,-2,0,-1.375,-1.375,-1.375,-0.25,-0.25,-0.25,2.793634,3.153217,9.064977,7.07823,3.274925,2.497703,-0.1289698,-0.4553775,1.07064,0.2719596,-0.4166729,1.046786,0.06523981,0.4449995,1.219923,-0.1612769,-0.4529672,1.05885,0.3081548,-0.4195401,1.033991,0.07145996,-0.02872327,1.210899,0.08727877,-0.3584875,1.18729,-0.1189506,0.129285,1.186674,-2.114721E-05,-0.3511738,1.155646,-0.1489571,-0.129299,1.184882,0.2952376,-0.1215906,1.171876,NA,NA,NotTracked,Unknown,
0.9165039,-0.3828125,0.06298828,0.9277344,0.465332,0.09960938,-1,-1,2,1,0,-1,-3,-1,1,30,23,1,3,-1,-3,-2,-0.4375,-0.4375,-0.4375,1.3125,1.3125,1.3125,2.797842,3.15764,9.059647,7.08132,3.278564,2.496205,-0.1279247,-0.4545357,1.068658,0.2712606,-0.4165027,1.044729,0.06489671,0.4448822,1.222109,-0.1682586,-0.4605742,1.0683,0.3084829,-0.4207281,1.034958,0.07135466,-0.02874074,1.211103,0.08718225,-0.3585075,1.186469,-0.1190927,0.1291627,1.186941,-7.137992E-05,-0.3512338,1.154918,-0.1491464,-0.1297253,1.184542,0.2952437,-0.1212697,1.171579,NA,NA,NotTracked,Lasso,
1.048828,-0.4282227,0.08007813,1.015625,0.6767578,0.3310547,-1,0,1,4,3,-4,-1,1,-5,-2,-7,5,40,10,-1,-4,-91,-91,-91,-20.6875,-20.6875,-20.6875,2.863536,3.199868,8.8976,6.887426,3.415637,2.588735,-0.1229983,-0.44762,1.064346,0.2675006,-0.412515,1.037036,0.06457487,0.4450368,1.224071,-0.1608768,-0.4459945,1.065793,0.3016318,-0.4204773,1.019842,0.07132129,-0.02868206,1.211284,0.0872326,-0.3583156,1.185935,-0.1192626,0.1291533,1.18706,-7.895932E-06,-0.3510973,1.154404,-0.1499896,-0.1291114,1.184127,0.29544,-0.1210448,1.171373,NA,NA,Unknown,Unknown,
0.9414063,-0.6416016,0.1816406,0.8349609,1.131348,0.5078125,-1,0,1,-3,-2,-5,-1,0,-5,-19,-10,-9,0,2,-3,-3,-151.75,-151.75,-151.75,-12.5,-12.5,-12.5,2.887126,3.261022,8.694537,6.786359,3.687773,2.736214,-0.1096139,-0.4247774,1.057024,0.2577268,-0.3883569,1.001723,0.06408407,0.445043,1.226073,-0.1421361,-0.4329598,1.051655,0.2212178,-0.368216,0.9853793,0.0713333,-0.02843888,1.211607,0.08747593,-0.3578885,1.185344,-0.1194726,0.1293573,1.187193,0.0002118485,-0.350614,1.153685,-0.1539472,-0.1259481,1.182587,0.2966457,-0.1197874,1.171521,NA,NA,Unknown,Unknown,
0.7602539,-0.7158203,0.2734375,0.6069336,0.9291992,0.6567383,-2,-1,0,6,3,6,1,-2,-2,6,9,-4,1,5,2,0,-152.625,-152.625,-152.625,-38.375,-38.375,-38.375,2.96065,3.410923,8.320387,6.645024,4.093087,2.83215,-0.07524006,-0.39682,1.04029,0.2406955,-0.3182082,0.9341881,0.06376783,0.4450505,1.228376,-0.1162107,-0.4134657,1.05125,0.2051022,-0.2955961,0.9182144,0.07149877,-0.0278514,1.211913,0.08841907,-0.3563573,1.183826,-0.1197569,0.1297414,1.187235,0.0006492515,-0.3487508,1.151458,-0.162963,-0.1193885,1.17473,0.2997722,-0.115379,1.167962,NA,NA,Open,Unknown,
0.659668,-0.8422852,0.3334961,0.4140625,0.9433594,0.706543,-1,-1,0,0,-1,-1,0,0,6,4,-2,4,7,6,2,0,-162.0625,-162.0625,-162.0625,-26.8125,-26.8125,-26.8125,2.972439,3.619338,7.970042,6.585316,4.598227,2.875633,-0.01195463,-0.3670608,1.015273,0.22808,-0.2070964,0.8578256,0.06363822,0.4450549,1.231475,-0.04544921,-0.3803923,1.017667,0.2451311,-0.202131,0.8191501,0.07159865,-0.02702696,1.212304,0.08867553,-0.3545548,1.181832,-0.1198949,0.1300698,1.187243,0.0003652383,-0.3464477,1.148923,-0.1700101,-0.1077709,1.16117,0.3018671,-0.08976423,1.158428,NA,NA,Unknown,Unknown,
0.6298828,-0.8686523,0.3647461,0.1728516,0.8525391,0.6875,0,0,3,9,-7,-8,-2,1,4,2,7,0,-15,-4,-14,-1,-112.1875,-112.1875,-112.1875,-60,-60,-60,2.949023,3.950387,7.595974,6.50001,5.132413,2.877195,0.02739063,-0.3051381,1.014575,0.2149897,-0.07249326,0.795072,0.06387639,0.4448338,1.234092,0.01085078,-0.3383911,1.002902,0.2410762,-0.06000702,0.7885239,0.07141014,-0.0265596,1.213704,0.08819579,-0.3541245,1.181937,-0.1198239,0.1304405,1.18719,-0.000212049,-0.3461453,1.148917,-0.1724092,-0.09828899,1.14939,0.3084178,-0.07714851,1.145297,NA,NA,Unknown,Unknown,
0.6049805,-0.8735352,0.3662109,0.05908203,0.7773438,0.703125,-1,0,-4,-8,-6,-3,-3,-3,-11,-18,-8,-7,-14,2,10,-4,-107.25,-107.25,-107.25,-67.3125,-67.3125,-67.3125,2.932927,4.037053,7.524053,6.461255,5.306283,2.873485,0.1110709,-0.2718997,0.9906605,0.2211736,0.07600564,0.794887,0.06444304,0.4450916,1.237169,0.07168707,-0.3186148,1.031091,0.2145484,0.03725776,0.761,0.07057689,-0.02644296,1.216166,0.08610654,-0.3545449,1.183228,-0.1189283,0.1313047,1.186731,-0.001843564,-0.3464279,1.150039,-0.1681751,-0.09591199,1.131438,0.2932951,-0.06270035,1.073314,NA,NA,Unknown,Unknown,
0.4560547,-0.8154297,0.2451172,-0.3339844,0.5473633,0.5556641,-1,-1,-4,-2,-1,-9,1,0,2,-1,-3,0,-9,-7,-9,-18,-24.0625,-24.0625,-24.0625,-73.6875,-73.6875,-73.6875,2.879349,4.574775,7.288698,6.167942,6.212448,2.768972,0.1547656,-0.1962604,0.965583,0.2235989,0.1893519,0.8147444,0.06480723,0.4450712,1.238835,0.1301945,-0.2394039,1.017833,0.1850821,0.2222115,0.8346922,0.06963916,-0.02630231,1.216512,0.08347303,-0.3539121,1.182968,-0.1181354,0.1319706,1.186312,-0.004164899,-0.3451,1.149621,-0.1630998,-0.09266203,1.114543,0.2958555,-0.01202453,1.004746,NA,NA,Unknown,Unknown,
0.2841797,-0.9545898,0.1904297,-0.4677734,0.3369141,0.4204102,-2,0,1,4,0,7,1,-1,-1,0,-2,1,19,11,8,4,-75.6875,-75.6875,-75.6875,-101.75,-101.75,-101.75,2.792371,4.792812,7.196845,5.86567,6.547544,2.586395,0.1211428,-0.1178214,0.9646611,0.2333075,0.2735632,0.8490168,0.06550034,0.4442172,1.24035,0.1318336,-0.1459492,1.001125,0.2181431,0.2740322,0.9231817,0.06900601,-0.02597024,1.216575,0.08239149,-0.3521538,1.183052,-0.1170962,0.1326644,1.185712,-0.005186471,-0.3435488,1.150053,-0.1514342,-0.08641716,1.090096,0.2872126,-0.02990121,0.9964014,NA,NA,Unknown,Lasso,
0.2919922,-0.9375,0.1899414,-0.6811523,0.1728516,0.2075195,-2,-2,0,1,4,7,2,-4,5,1,0,-2,-9,-9,-19,-14,-51.1875,-51.1875,-51.1875,-55.5,-55.5,-55.5,2.702482,4.927902,7.105853,5.258208,6.845865,2.092447,0.1373158,-0.07823413,0.9559644,0.2488204,0.3179844,0.8856707,0.06579563,0.4429358,1.241876,0.1465483,-0.1074367,0.9847143,0.2350073,0.3087976,0.9552941,0.06886686,-0.0255709,1.216666,0.08239572,-0.3496365,1.183349,-0.1155132,0.1337835,1.184902,-0.005233746,-0.3419469,1.150577,-0.1375884,-0.07866005,1.070073,0.2678203,0.05455234,0.9516025,NA,NA,Unknown,Unknown,
0.1030273,-0.8911133,0.1655273,0.05664063,0.1357422,0.2963867,0,-1,1,5,2,5,18,3,10,6,4,3,-1,-4,-23,-19,-38.3125,-38.3125,-38.3125,-44.625,-44.625,-44.625,2.645622,5.010558,7.011228,4.727154,6.925441,1.604547,-0.005557721,-0.05230098,0.9684471,0.2656132,0.335005,0.9115355,0.06611243,0.440824,1.243476,0.003074255,-0.09783063,1.029,0.2528875,0.3167657,0.9854286,0.06889904,-0.0253325,1.216704,0.08280466,-0.34767,1.183456,-0.107311,0.139915,1.180165,-0.004789754,-0.3405661,1.150963,-0.1354528,-0.06921779,1.060108,0.25745,0.0400889,0.9560169,NA,NA,Unknown,Unknown,
-0.005859375,-0.8881836,0.1416016,-0.980957,-0.09619141,0.2807617,-4,-1,-2,-2,3,46,13,-8,0,3,1,-3,6,4,-5,-7,-25.0625,-25.0625,-25.0625,-39.625,-39.625,-39.625,2.606188,5.068221,6.946126,4.430764,6.963885,1.330962,0.01103274,-0.03910411,0.9686103,0.2746331,0.3385974,0.9284555,0.06612035,0.4377617,1.244619,0.07180276,-0.06405059,1.0152,0.2594641,0.3193684,0.9879131,0.0690303,-0.02534567,1.21665,0.08309834,-0.3468373,1.183479,-0.1053631,0.1417767,1.17951,-0.00440773,-0.3397323,1.151164,-0.1327218,-0.06210173,1.049803,0.2526407,0.03498553,0.9562504,NA,NA,Unknown,Unknown,
-0.1064453,-0.9731445,0.05175781,-1.04834,-0.2304688,0.2490234,0,1,-1,2,-3,-3,-1,1,1,4,5,-2,-5,-4,-2,8,-26.75,-26.75,-26.75,-18.0625,-18.0625,-18.0625,2.511866,5.108064,6.875862,4.128638,7.033641,1.099723,0.017991,-0.03388842,0.9714776,0.274735,0.338882,0.9350197,0.06575264,0.4360411,1.245421,0.07144985,-0.07076707,1.047111,0.2430866,0.375165,0.9434445,0.06907362,-0.02530163,1.216599,0.08354154,-0.3465639,1.183025,-0.1060515,0.1414163,1.179623,-0.004037014,-0.3395736,1.150913,-0.1295152,-0.05931557,1.043953,0.2479011,0.0333547,0.9557407,NA,NA,Unknown,Unknown,
-0.08789063,-0.9506836,0.02392578,-0.9399414,-0.1938477,0.2661133,-2,-2,-1,-2,-5,-43,-28,-7,3,5,2,5,1,1,-26,-14,-16.6875,-16.6875,-16.6875,-24.0625,-24.0625,-24.0625,2.495322,5.107995,6.866361,4.246974,7.072554,1.252061,-0.005915974,-0.02346879,0.9540804,0.2637616,0.3428807,0.9346983,0.0653785,0.4352888,1.246173,-0.03687786,-0.0563453,0.9276001,0.2443541,0.3304487,1.00525,0.06915359,-0.02524817,1.216406,0.08400642,-0.3462363,1.182156,-0.1064874,0.1411661,1.179632,-0.003673703,-0.3393479,1.150297,-0.1278862,-0.05386119,1.03505,0.2464514,0.03287503,0.9551575,NA,NA,Unknown,Lasso,
-0.0859375,-0.9111328,-0.01269531,-0.9101563,-0.1230469,0.2724609,-1,-3,0,-1,0,16,26,3,0,0,-1,5,15,23,7,-4,-21.8125,-21.8125,-21.8125,-38.1875,-38.1875,-38.1875,2.482922,5.101812,6.862051,4.867706,7.152292,1.94805,0.01713839,-0.0205003,0.9539392,0.2323957,0.3434941,0.9297565,0.06424922,0.4365943,1.247153,-0.03803092,-0.01304109,0.9215194,0.2108507,0.3388548,1.0015,0.06929652,-0.0248984,1.215958,0.08500117,-0.3447658,1.180504,-0.1065887,0.1411424,1.179606,-0.002943246,-0.3382079,1.148793,-0.1247181,-0.04596244,1.023968,0.2483149,0.1146457,0.9256395,NA,NA,Unknown,Unknown,
-0.121582,-1.102051,0.05810547,-0.8935547,-0.001953125,0.206543,3,0,0,1,0,-5,1,4,1,0,0,1,0,6,13,22,-17.1875,-17.1875,-17.1875,-27.0625,-27.0625,-27.0625,2.450923,5.087539,6.846704,6.170946,7.089988,3.342467,0.01657369,-0.0173815,0.9505299,0.1750833,0.3410195,0.9205397,0.06389821,0.4370172,1.247818,-0.0400433,-0.01025345,0.9200625,0.1580319,0.314736,0.9718572,0.06961421,-0.02323388,1.215254,0.08593842,-0.3413319,1.178787,-0.1049605,0.1422061,1.1801,-0.002763494,-0.3337941,1.146484,-0.1326652,-0.03944294,1.019325,0.2452657,0.1143321,0.9262298,NA,NA,Unknown,Unknown,
-0.09179688,-0.9833984,-0.01757813,-0.7670898,0.465332,0.1025391,-4,-1,-1,-1,-2,-3,19,-2,-2,-4,0,-1,-4,10,33,24,-15.5,-15.5,-15.5,6.8125,6.8125,6.8125,2.436654,5.084986,6.818955,7.09821,6.641656,4.325364,0.04497257,-0.009895404,0.942863,0.1010223,0.3229682,0.9137571,0.05887496,0.4321504,1.246328,0.007898562,-0.05172261,0.9485,0.138561,0.3152135,0.9168234,0.07041132,-0.02234232,1.214488,0.08629914,-0.3405843,1.178175,-0.09775903,0.1458929,1.177611,-0.002224415,-0.332344,1.14634,-0.09930464,-0.03710401,1.015799,0.250419,0.04670407,0.9491906,NA,NA,Unknown,Closed,
-0.01171875,-1.039063,-0.04443359,-0.4980469,0.6616211,0.09472656,1,0,0,-1,-1,-1,-1,4,-8,-2,-10,-3,-5,-4,8,0,-4.9375,-4.9375,-4.9375,23.9375,23.9375,23.9375,2.410376,5.070617,6.805446,7.346652,6.191034,4.602839,-0.003158723,-0.007616786,0.9382639,0.04296631,0.2617809,0.9143072,0.06058532,0.445765,1.247675,-0.05589319,-0.04398937,0.9434286,0.1000019,0.2319028,0.8915334,0.0705077,-0.02462532,1.212532,0.08641885,-0.3432708,1.177352,-0.0968359,0.1466195,1.175868,-0.002201867,-0.3347015,1.146916,-0.1001252,-0.03701245,1.014819,0.2539272,0.04011437,0.9520757,NA,NA,Unknown,Unknown,
0.01464844,-1.019043,-0.06201172,-0.2231445,0.8808594,-0.03027344,0,0,-1,-2,-8,-33,-68,-1,2,7,-10,-1,1,0,15,0,-6.125,-6.125,-6.125,33.1875,33.1875,33.1875,2.39845,5.07181,6.818286,7.489284,5.736887,4.751395,0.06327032,0.0001269719,0.9335101,-0.005437371,0.198319,0.9197462,0.06854691,0.4495915,1.245862,0.004747209,0.01476124,0.9020977,-0.03349407,0.167323,0.9153333,0.06924038,-0.02599804,1.209239,0.08710887,-0.3514972,1.175104,-0.09535784,0.1456483,1.171115,-0.002787752,-0.342353,1.145263,-0.09473705,-0.03054792,1.001632,0.2573931,0.0322101,0.9544724,NA,NA,NotTracked,Unknown,
0.03027344,-1.020996,-0.01416016,-0.05957031,1.157227,0.01171875,1,0,-1,-2,-3,-23,0,0,-8,13,23,-1,1,-3,1,-1,-5,-5,-5,8.8125,8.8125,8.8125,2.394204,5.074688,6.835939,7.575243,5.289991,4.862792,0.2369353,0.04643257,0.9248416,-0.04836157,0.00119627,0.9412572,0.07005346,0.4473383,1.247589,0.1866821,0.1114702,0.8908501,-0.09510639,-0.02472219,0.9244762,0.0700959,-0.02723504,1.209737,0.08833334,-0.3552366,1.174166,-0.08430148,0.136263,1.127402,-0.001623544,-0.3475994,1.139862,-0.04551599,-0.04437807,0.9671978,0.2570293,0.0310916,0.9560742,NA,NA,NotTracked,NotTracked,
0.03613281,-0.875,-0.05126953,-0.02050781,1.106934,0.03857422,0,0,-1,2,5,19,25,-3,-10,-9,-7,-5,-4,7,20,18,-11,-11,-11,-1.75,-1.75,-1.75,2.391865,5.065404,6.862081,7.57237,5.105398,4.906013,0.203675,0.09832511,0.9167393,-0.108024,0.01557031,0.9771,0.07002047,0.4465495,1.248304,0.1801049,0.139454,0.9798663,-0.0994857,-0.04794586,0.9904445,0.07042654,-0.02722963,1.210185,0.08871563,-0.3541609,1.174354,-0.07766242,0.1347077,1.089439,0.000536293,-0.3456623,1.141372,-0.03190241,-0.05874719,0.9473696,0.2275239,0.02577587,0.9464421,NA,NA,Unknown,NotTracked,
0.5615234,-0.859375,-0.3125,0.007324219,1.084473,0.03173828,0,0,0,2,4,-10,-18,0,3,0,0,0,5,0,-15,-6,21.75,21.75,21.75,0.1875,0.1875,0.1875,2.3283,5.036563,6.907874,7.574832,5.080429,4.917899,0.2383907,0.07731005,0.9237221,-0.06909586,0.03303313,0.9468181,0.06981862,0.4459712,1.248668,0.2549732,0.1338862,0.9769133,-0.0794205,-0.03478577,0.9328801,0.07033667,-0.0260614,1.210548,0.08817691,-0.3476513,1.174357,-0.08794932,0.1530636,1.1271,0.001095443,-0.3387646,1.143299,-0.03931255,-0.02341312,0.9648136,0.2188448,0.02284429,0.9442568,NA,NA,Unknown,Unknown,
0.5615234,-0.859375,-0.3125,-0.0234375,1.085938,-0.03173828,-1,-3,-3,-2,-3,-31,-35,-10,1,-2,-2,-2,-10,-3,-15,-5,21.75,21.75,21.75,-18.625,-18.625,-18.625,2.3283,5.036563,6.907874,7.563882,5.091047,4.915773,0.2368364,0.07563134,0.9223393,-0.07325225,0.02962603,0.9479009,0.06922708,0.4452323,1.248812,0.2506885,0.1324982,0.9750313,-0.0823464,-0.03858683,0.9346862,0.07022523,-0.02534159,1.210628,0.08776842,-0.3451376,1.173842,-0.08940078,0.15412,1.13019,0.001115082,-0.3366672,1.143726,-0.04015221,-0.02078338,0.9663699,0.217002,0.02097382,0.9434007,NA,NA,Unknown,Unknown,
-0.1894531,-0.8344727,-0.0234375,0.04003906,1.103516,-0.04589844,2,1,-1,1,2,-12,10,4,2,-7,-8,1,-1,-3,6,14,-35.8125,-35.8125,-35.8125,-5.4375,-5.4375,-5.4375,2.409165,5.041781,6.894429,7.53625,5.066562,4.912395,0.2363775,0.07532292,0.924113,-0.07353991,0.02994721,0.9480734,0.06873353,0.4447638,1.248714,0.2480104,0.1334572,0.9774312,-0.08053132,-0.04006447,0.9449124,0.07018685,-0.02489724,1.21067,0.08767116,-0.343837,1.173626,-0.0897699,0.1546894,1.13176,0.001244777,-0.3354321,1.143966,-0.04072654,-0.01958986,0.9672055,0.2160156,0.02008252,0.9432358,NA,NA,Unknown,Unknown,
0.03076172,-1.096191,0.02880859,-0.01953125,0.9306641,0.02880859,0,0,0,-1,-2,-12,5,0,-1,-4,-5,1,0,1,14,-1,-3.8125,-3.8125,-3.8125,10.75,10.75,10.75,2.375452,5.0273,6.89989,7.53398,5.096061,4.911952,0.2365486,0.07518049,0.9257098,-0.07368891,0.02948002,0.9481241,0.06816379,0.4442373,1.248461,0.2384418,0.1307529,0.9878001,-0.08129784,-0.03886987,0.9412271,0.07009781,-0.0244151,1.210674,0.08751039,-0.3426009,1.173421,-0.08979186,0.1548075,1.132067,0.001275825,-0.3343129,1.144073,-0.04115613,-0.01925697,0.9671572,0.2157397,0.01933398,0.9430929,NA,NA,Unknown,Unknown,
-0.03808594,-0.8554688,-0.01367188,0.08349609,0.8583984,0.1533203,-1,0,-1,2,0,6,6,-3,1,-2,-3,-1,-1,0,-2,-5,9.9375,9.9375,9.9375,-11.5625,-11.5625,-11.5625,2.418293,5.0249,6.909173,7.505191,5.123797,4.886492,0.2346891,0.07041517,0.927654,-0.07417344,0.02453178,0.9498849,0.06763609,0.4437279,1.248021,0.2454464,0.1229064,0.9796429,-0.07829636,-0.04405051,0.9427859,0.07000554,-0.02402951,1.210662,0.08735676,-0.3416917,1.173252,-0.08990653,0.154759,1.132212,0.001319795,-0.3335502,1.143945,-0.04168838,-0.0195032,0.9673924,0.2154768,0.01676283,0.9431369,NA,NA,Unknown,Unknown,
0.03369141,-0.8388672,-0.05957031,0.203125,0.855957,0.1743164,-1,0,-1,-3,8,1,4,2,0,0,2,9,3,2,-1,1,-20.0625,-20.0625,-20.0625,-12.1875,-12.1875,-12.1875,2.399477,5.046712,6.944153,7.459013,5.166624,4.887781,0.25712,0.0752198,0.9485545,-0.1087931,0.0007571577,0.9798653,0.06736448,0.4433914,1.247392,0.2433914,0.1113248,0.9880001,-0.09708525,-0.06549903,0.9738572,0.07000342,-0.02364075,1.210674,0.08740629,-0.3409072,1.17321,-0.09029019,0.1541045,1.132266,0.001552983,-0.3328251,1.143866,0.01115756,-0.00990639,0.9730593,0.2146998,0.00875017,0.9440385,NA,NA,Unknown,Unknown,
0.01806641,-1.143555,-0.05175781,0.06787109,0.8974609,0.04931641,-1,-2,-4,1,6,-33,-11,-6,0,-1,1,-2,0,0,3,-1,47.1875,47.1875,47.1875,-80.9375,-80.9375,-80.9375,2.42519,5.053829,7.021962,7.365111,5.224279,4.892335,0.2590789,-0.02296909,0.9191794,-0.07919849,-0.009064926,0.9654458,0.06724621,0.4431471,1.246222,0.2536813,0.03832957,0.9266111,-0.07641777,-0.06849953,0.939675,0.07002487,-0.0233273,1.210686,0.08740257,-0.340521,1.173187,-0.09013768,0.1519996,1.13227,0.001772861,-0.3323091,1.14352,-0.00123454,-0.02086257,0.9762807,0.2097728,-0.007842064,0.9435204,NA,NA,Unknown,Unknown,
0.0004882813,-1.224609,0.05126953,-0.08837891,0.7236328,0.1865234,1,-1,3,5,-3,-1,3,-1,0,-2,-2,0,0,0,-8,-1,96.1875,96.1875,96.1875,-150.1875,-150.1875,-150.1875,2.562626,5.104413,7.174395,7.102887,5.281388,4.808206,0.177676,-0.005597081,0.9049661,-0.03574325,-0.01205225,0.9603935,0.06685323,0.4429406,1.243682,0.1967037,0.03375774,0.9734443,-0.003738285,-0.0614139,0.9093333,0.07002181,-0.02313886,1.2106,0.0874489,-0.3403738,1.173112,-0.0932218,0.1427979,1.141304,0.002039026,-0.331974,1.142888,-0.09391111,-0.05597299,0.9999132,0.2588494,0.001235401,0.9805483,NA,NA,NotTracked,NotTracked,
0.2490234,-2.438477,-0.4916992,-0.4228516,0.9506836,0.371582,-1,2,1,0,9,6,-10,-5,2,0,5,58,9,6,5,5,-60.75,-60.75,-60.75,-68.8125,-68.8125,-68.8125,2.671155,5.277689,7.385695,6.814844,5.249047,4.528505,0.0280413,-0.02195891,0.9273844,0.01659126,-0.02513118,0.9263371,0.06581573,0.4419037,1.238654,0.03959242,0.01082534,0.9364545,0.0174428,-0.04993376,0.9065294,0.06991606,-0.02300578,1.210444,0.08718355,-0.3403693,1.172912,-0.09424897,0.1441789,1.142852,0.001615248,-0.3319626,1.141904,-0.1208397,-0.06840895,1.028492,0.2704173,-0.03033816,1.01083,NA,NA,NotTracked,NotTracked,
-0.5180664,-1.486328,0.2133789,-0.3320313,0.8525391,0.4658203,-2,-3,-5,3,-7,-6,4,-7,-2,0,1,9,-7,-3,-2,0,339.8125,339.8125,339.8125,-188.3125,-188.3125,-188.3125,2.873498,5.341156,7.471601,6.536543,5.060924,4.271864,0.1327488,0.04070753,0.8936417,-0.03687789,-0.03662031,0.9598356,0.06493989,0.4410169,1.232479,0.1240566,0.07316947,0.9003333,0.003750405,0.004306924,0.9181999,0.06974705,-0.02305513,1.210129,0.08673502,-0.3406171,1.172738,-0.09527015,0.1455149,1.145076,0.001244654,-0.3321686,1.141737,-0.136106,-0.07223943,1.047709,0.2927347,-0.07473536,1.083656,NA,NA,NotTracked,NotTracked,
-0.01464844,-0.6503906,0.1860352,-0.08642578,0.7446289,0.5522461,0,0,1,7,19,-12,-6,6,0,-1,-3,-17,-9,-3,-1,-1,328.8125,328.8125,328.8125,-15,-15,-15,3.140936,5.57662,7.520063,6.410716,4.644795,3.892637,0.09951413,0.07982801,0.9292293,0.03755904,-0.1415885,1.039368,0.06458221,0.4394999,1.224823,0.09655169,0.1086042,0.922421,0.0291411,-0.06349101,1.0362,0.06946279,-0.0234939,1.209461,0.08627719,-0.3419299,1.172302,-0.1014239,0.1448975,1.155419,0.0004134341,-0.333562,1.140649,-0.1437691,-0.07251312,1.058216,0.3045163,-0.07116105,1.124214,NA,NA,NotTracked,NotTracked,
-0.7285156,-0.8852539,0.4746094,0.4516602,0.9379883,0.5859375,4,-2,-5,-4,-3,-9,-2,6,-2,1,1,-6,-11,-1,-1,-2,-43.4375,-43.4375,-43.4375,7.75,7.75,7.75,3.339939,5.985015,7.516503,6.542202,4.276379,3.572642,0.1156845,0.1529519,0.9828962,0.1143914,-0.2198143,1.003599,0.06297211,0.4376004,1.216277,0.08357029,0.1723145,0.979,0.09882529,-0.1805167,0.9890494,0.06905014,-0.02498349,1.208427,0.08554158,-0.3465669,1.171531,-0.1040321,0.1448045,1.158742,-0.0009216417,-0.3378843,1.13976,-0.1443308,-0.07503202,1.06702,0.3073938,-0.07172815,1.146312,NA,NA,Closed,Unknown,
-0.6972656,-0.9575195,0.4052734,0.5581055,0.9399414,0.675293,-1,2,3,5,-1,6,-23,-32,0,-5,-3,-5,-8,-1,1,-1,33,33,33,-27.625,-27.625,-27.625,3.352199,6.070626,7.508264,6.565269,4.16529,3.490398,0.05123388,0.1426978,1.020993,0.1597346,-0.3069324,0.9957742,0.06162143,0.4348626,1.206718,0.05518996,0.1516339,0.9893287,0.1263112,-0.2722778,0.9851818,0.06620654,-0.02677831,1.206229,0.08067734,-0.3519556,1.169914,-0.1039323,0.144714,1.158827,-0.008652321,-0.3415148,1.1362,-0.1428981,-0.07890298,1.07777,0.3037836,-0.08073684,1.159117,NA,NA,Unknown,Unknown,
-0.8286133,-0.659668,0.1303711,0.956543,0.6518555,0.2587891,-4,-2,5,0,1,38,49,-17,-2,0,-1,-7,-2,-1,-1,-1,20.5625,20.5625,20.5625,-57.25,-57.25,-57.25,3.429607,6.487834,7.367442,6.882711,3.526383,2.942377,0.03311799,0.1521023,1.047433,0.2144587,-0.369843,0.997886,0.06121891,0.4308676,1.199135,0.04434714,0.119873,1.070625,0.1784747,-0.3546861,1.005941,0.0646447,-0.02768038,1.20382,0.07822076,-0.3534882,1.168676,-0.1033557,0.144317,1.158853,-0.01216418,-0.3430703,1.132825,-0.1366044,-0.08209131,1.084231,0.3003315,-0.09534425,1.165719,NA,NA,Unknown,Unknown,
-0.7382813,-0.550293,0.08642578,1.035156,0.4291992,0.284668,3,-1,-4,-11,-7,-19,-49,-8,-1,-1,-2,-6,-2,-3,-3,-1,1,1,1,-32.1875,-32.1875,-32.1875,3.366697,6.566323,7.268989,6.965773,3.396223,2.78184,0.02684215,0.154413,1.057222,0.2509749,-0.3995961,1.023731,0.06023789,0.4261011,1.193782,0.03404457,0.1227031,1.071379,0.2118891,-0.3832672,1.032364,0.06751271,-0.03011134,1.198732,0.08099277,-0.3566835,1.168907,-0.1030389,0.138377,1.162234,-0.00928005,-0.346404,1.131729,-0.1310029,-0.088888,1.088363,0.2986258,-0.107853,1.166225,NA,NA,Unknown,Unknown,
-0.7509766,-0.5605469,0.190918,1.002441,0.5385742,0.1704102,-12,-6,-5,-2,-5,-7,-15,-12,0,0,0,-1,-3,-1,-1,-1,-13.375,-13.375,-13.375,6.625,6.625,6.625,3.279605,6.578428,7.203557,7.146102,3.27282,2.576576,0.02712955,0.1554879,1.059386,0.273267,-0.4109074,1.045629,0.05900831,0.4220834,1.190073,0.00702674,0.1668472,1.058478,0.2283051,-0.4096184,1.032191,0.06980585,-0.03152727,1.196864,0.08466577,-0.3590662,1.170307,-0.1017248,0.1350922,1.163942,-0.005212961,-0.3490859,1.132031,-0.125873,-0.09169988,1.086797,0.2976798,-0.1118015,1.16748,NA,NA,Unknown,Unknown,
-0.7851563,-0.6069336,0.2402344,0.8886719,0.5449219,0.1049805,-11,-10,-3,-2,-3,-6,-5,-3,-1,-1,-2,0,0,0,-2,-1,-2.375,-2.375,-2.375,-20.5625,-20.5625,-20.5625,3.239211,6.557967,7.186109,7.219725,3.209384,2.447096,0.04432627,0.1599728,1.076446,0.2778774,-0.4164635,1.063273,0.05733259,0.4181277,1.185993,0.0146892,0.16291,1.031966,0.2345591,-0.4131847,1.053111,0.07200162,-0.03303496,1.195345,0.0875058,-0.3605517,1.17135,-0.1017154,0.1334959,1.165272,-0.002204727,-0.3507598,1.132693,-0.1209968,-0.09284916,1.08494,0.296912,-0.1140515,1.168852,NA,NA,NotTracked,Unknown,
-0.8217773,-0.5454102,0.1782227,0.8925781,0.5742188,0.1469727,-2,-4,-4,-1,-1,-2,21,3,-1,-1,-3,-1,-3,-1,0,-1,-4.8125,-4.8125,-4.8125,-29.1875,-29.1875,-29.1875,3.233829,6.550759,7.185943,7.215281,3.209992,2.433247,0.04360569,0.1625085,1.075159,0.2796837,-0.4158592,1.069727,0.05591254,0.4151919,1.182949,0.01794409,0.1666579,1.0294,0.23593,-0.4124747,1.056337,0.07293364,-0.03409163,1.19498,0.08942695,-0.3619325,1.172691,-0.1019667,0.1322497,1.16641,-0.0003692094,-0.3522937,1.133671,-0.1189753,-0.09334148,1.083019,0.2964725,-0.1155167,1.171779,NA,NA,NotTracked,Unknown,
