ALX,ALY,ALZ,ARX,ARY,ARZ,EMG0L,EMG1L,EMG2L,EMG3L,EMG4L,EMG5L,EMG6L,EMG7L,EMG0R,EMG1R,EMG2R,EMG3R,EMG4R,EMG5R,EMG6R,EMG7R,GLX,GLY,GLZ,GRX,GRY,GRZ,ORL,OPL,OYL,ORR,OPR,OYR,LHNX,LHNY,LHNZ,RHNX,RHNY,RHNZ,HX,HY,HZ,LTX,LTY,LTZ,RTX,RTY,RTZ,SpineMidX,SpineMidY,SpineMidZ,SpineBaseX,SpineBaseY,SpineBaseZ,ShoulderLeftX,ShoulderLeftY,ShoulderLeftZ,ShoulderRightX,ShoulderRightY,ShoulderRightZ,ElbowLeftX,ElbowLeftY,ElbowLeftZ,ElbowRightX,ElbowRightY,ElbowRightZ,Myo_Pose_left,Myo_Pose_Right,Kinect_pose_left,Kinect_pose_right
0.9003906,-0.440918,0.0004882813,0.8652344,0.4995117,0.05957031,-2,0,-1,-1,0,-2,-2,-2,-1,-2,0,-2,-1,-2,-1,-1,15.4375,15.4375,15.4375,1.9375,1.9375,1.9375,2.605812,3.237342,8.659595,7.163375,3.355795,9.277679,-0.2099101,-0.4506447,1.061629,0.2741567,-0.4105519,1.053063,0.02361824,0.4376744,1.201469,-0.1698962,-0.4418902,1.045727,0.2324826,-0.4186198,1.038329,0.02975647,-0.0320848,1.223929,0.04470654,-0.3596126,1.207406,-0.1597804,0.1339516,1.199801,-0.04100112,-0.3521638,1.173238,-0.2014212,-0.1244996,1.187394,0.2559842,-0.1286499,1.191415,NA,NA,Unknown,Unknown,
0.8959961,-0.5185547,-0.01220703,0.8583984,0.5600586,0.001953125,-3,-1,-2,0,2,-12,-5,-16,-3,-1,-2,-1,-1,-1,-1,-3,43.125,43.125,43.125,-27.375,-27.375,-27.375,2.517791,3.297267,8.874893,7.205297,3.388073,9.191975,-0.2468279,-0.4418834,1.056961,0.286409,-0.4152188,1.044852,0.03256511,0.4362471,1.193748,-0.2146422,-0.4152886,1.06025,0.2544442,-0.4100558,1.0776,0.03746098,-0.03248555,1.222357,0.0521217,-0.3591509,1.207332,-0.1515552,0.1357953,1.200319,-0.03429676,-0.3512042,1.173364,-0.207536,-0.129524,1.18947,0.2640184,-0.1259977,1.188204,NA,NA,Unknown,Unknown,
0.8701172,-0.5131836,-0.08642578,0.8193359,0.5561523,0.02490234,-2,-1,0,-1,2,-1,-2,-6,-1,-2,-1,0,0,0,-1,-1,58.375,58.375,58.375,-30.5625,-30.5625,-30.5625,2.486372,3.371316,9.06297,7.221805,3.420653,9.115328,-0.2722901,-0.4338568,1.053518,0.3032195,-0.4161166,1.039879,0.03894276,0.4350955,1.189054,-0.2501867,-0.4181255,1.02305,0.269977,-0.4200972,1.069813,0.04178257,-0.03251505,1.221117,0.05567071,-0.3586397,1.20688,-0.1464263,0.136364,1.200458,-0.03120628,-0.3504779,1.173164,-0.2122956,-0.1311258,1.191624,0.272587,-0.1235088,1.185993,NA,NA,Unknown,Unknown,
0.8413086,-0.5966797,-0.005859375,0.8027344,0.5927734,0.06347656,-2,0,0,-1,-1,2,-1,4,-1,-4,-2,-2,-4,-1,-2,-1,41.5,41.5,41.5,-26.3125,-26.3125,-26.3125,2.452233,3.44405,9.19164,7.25541,3.458423,9.024639,-0.3040638,-0.4221582,1.053763,0.3249349,-0.4141692,1.036926,0.04550892,0.4339796,1.184427,-0.2879461,-0.3961007,1.023179,0.2916605,-0.4341609,1.066556,0.04715056,-0.03264374,1.219493,0.05993998,-0.3578412,1.206463,-0.1406963,0.1369194,1.200561,-0.02739306,-0.3496272,1.173028,-0.2161422,-0.1276546,1.197056,0.2839839,-0.1224353,1.183163,NA,NA,Unknown,Unknown,
0.7856445,-0.5737305,-0.004882813,0.7944336,0.5600586,0.078125,0,-1,0,-1,-2,-4,-1,3,-1,-1,-1,-1,1,-1,0,-1,38.5625,38.5625,38.5625,-25.4375,-25.4375,-25.4375,2.41716,3.515112,9.322834,7.297617,3.491735,8.918773,-0.3363579,-0.4068567,1.057408,0.3537343,-0.4139655,1.035339,0.05238118,0.4333606,1.180778,-0.3049255,-0.4128223,1.031757,0.3606151,-0.4507894,1.0495,0.05274007,-0.03257545,1.21823,0.06467339,-0.3568932,1.206092,-0.1340307,0.1380288,1.200994,-0.02328465,-0.3486685,1.17304,-0.222469,-0.1211083,1.203604,0.2983357,-0.12218,1.180926,NA,NA,Unknown,Unknown,
0.7944336,-0.5834961,0.02099609,0.8193359,0.5454102,0.1025391,0,-1,0,-2,0,3,-1,10,-1,-3,1,0,-2,-1,-1,-2,28.8125,28.8125,28.8125,-19.25,-19.25,-19.25,2.360445,3.570603,9.462059,7.343897,3.515996,8.815166,-0.365815,-0.3924126,1.066759,0.3844154,-0.4139754,1.031609,0.06052228,0.4326248,1.176932,-0.3387728,-0.3915291,1.031438,0.359172,-0.417585,1.0785,0.05965656,-0.03280545,1.216627,0.07063176,-0.3561588,1.205792,-0.125391,0.1399573,1.200867,-0.01783464,-0.3479051,1.172917,-0.2290676,-0.1150877,1.207548,0.3115698,-0.1210647,1.178902,NA,NA,Unknown,Unknown,
0.7875977,-0.5288086,-0.001464844,0.8227539,0.5180664,0.09814453,3,0,0,-1,-2,1,0,-2,-3,-1,-1,-1,-1,1,-1,-1,21.4375,21.4375,21.4375,-15.6875,-15.6875,-15.6875,2.27881,3.616355,9.672248,7.38484,3.530332,8.706635,-0.3855951,-0.3832043,1.07793,0.4111319,-0.4102652,1.032227,0.06887399,0.4316704,1.173998,-0.3588021,-0.372644,1.043391,0.3862784,-0.4251489,1.0581,0.06652248,-0.03298276,1.21557,0.07787377,-0.3557233,1.205418,-0.1175513,0.1400866,1.20103,-0.01104352,-0.3475339,1.172691,-0.2325992,-0.110127,1.209941,0.3240927,-0.1179609,1.177586,NA,NA,Unknown,Unknown,
0.7851563,-0.5234375,-0.02490234,0.8178711,0.5078125,0.09619141,0,-2,-1,0,1,1,0,-2,-1,-1,-1,-1,-3,-1,0,0,11.9375,11.9375,11.9375,-11.125,-11.125,-11.125,2.240191,3.62222,9.762648,7.393992,3.529469,8.662821,-0.3932059,-0.3746844,1.089512,0.4309366,-0.4207703,1.029181,0.07864745,0.4301364,1.170099,-0.3669122,-0.3679012,1.054286,0.3955428,-0.4309404,1.021187,0.07448844,-0.03375016,1.214159,0.08506335,-0.3560601,1.205051,-0.1103862,0.1394832,1.200933,-0.00422179,-0.3477298,1.172776,-0.2344893,-0.1064373,1.212444,0.3356457,-0.1163006,1.175584,NA,NA,Unknown,Unknown,
0.7744141,-0.5561523,-0.04052734,0.8125,0.5361328,0.08740234,-1,-1,0,0,0,-1,-1,-5,-2,-1,-1,-2,0,-1,-1,-1,16.9375,16.9375,16.9375,-5.625,-5.625,-5.625,2.225389,3.620043,9.819463,7.379951,3.519065,8.652796,-0.3919376,-0.3725621,1.097551,0.441073,-0.422105,1.028666,0.08750245,0.4293207,1.167068,-0.366297,-0.3646546,1.062783,0.4471191,-0.4498254,1.051,0.0831252,-0.03459323,1.212568,0.09246497,-0.3558759,1.204774,-0.1109227,0.1391842,1.200808,0.003316729,-0.3476368,1.172648,-0.2337538,-0.105155,1.213628,0.3455608,-0.1159123,1.173704,NA,NA,Unknown,Unknown,
0.7436523,-0.6088867,-0.08251953,0.815918,0.5512695,0.07714844,-4,-1,-1,-1,-1,9,-2,-13,-1,-1,-1,-1,-2,-1,-1,-1,26.6875,26.6875,26.6875,-3.6875,-3.6875,-3.6875,2.25332,3.613705,9.855291,7.358497,3.505788,8.666969,-0.3807438,-0.3709842,1.102589,0.4450366,-0.4211945,1.028293,0.09668967,0.4287816,1.163703,-0.3551471,-0.3630817,1.065733,0.4338401,-0.4234385,1.060444,0.09273107,-0.03558761,1.210571,0.1021889,-0.3564471,1.203784,-0.09243611,0.1383054,1.1992,0.01237001,-0.3480336,1.172199,-0.2280745,-0.1037934,1.215989,0.3525561,-0.1156699,1.17201,NA,NA,Unknown,Unknown,
0.7368164,-0.6210938,-0.08984375,0.8125,0.5732422,0.06591797,1,1,-1,0,-2,-4,0,9,0,-2,-1,-1,0,-2,-2,-2,16.375,16.375,16.375,8.875,8.875,8.875,2.269354,3.609174,9.862891,7.343083,3.487419,8.693475,-0.366979,-0.3729886,1.108549,0.4455765,-0.4239467,1.029011,0.1054714,0.4277149,1.160383,-0.3506624,-0.3683205,1.068696,0.4548066,-0.4603513,1.044083,0.101789,-0.03686059,1.209249,0.1115613,-0.3575579,1.203561,-0.08139755,0.1379593,1.199304,0.021562,-0.3491341,1.172549,-0.2144976,-0.1046294,1.22063,0.3585555,-0.1155595,1.17027,NA,NA,Unknown,Lasso,
0.7241211,-0.6708984,-0.1118164,0.8154297,0.5834961,0.03808594,-3,0,-1,1,0,-4,1,1,-1,0,-2,-3,-2,0,-1,-1,7.6875,7.6875,7.6875,12.3125,12.3125,12.3125,2.27387,3.597363,9.878882,7.336793,3.459307,8.744262,-0.3523243,-0.378131,1.11254,0.4443634,-0.4205708,1.02571,0.1136858,0.4267101,1.157305,-0.3784416,-0.3655032,1.093667,0.451051,-0.4540894,1.046445,0.1103411,-0.03777095,1.207561,0.1196988,-0.3581274,1.202564,-0.07102796,0.1377433,1.199165,0.02922736,-0.3495955,1.172067,-0.2041521,-0.1064003,1.222889,0.3637015,-0.1174029,1.168196,NA,NA,Unknown,Unknown,
0.7348633,-0.6450195,-0.1333008,0.8374023,0.5649414,0.04052734,-2,-1,0,1,-1,0,-1,-1,0,-3,-2,1,0,-1,-1,-1,-3.375,-3.375,-3.375,7.1875,7.1875,7.1875,2.26145,3.582562,9.892392,7.331028,3.447647,8.771608,-0.3383026,-0.3875158,1.116275,0.4436985,-0.4250808,1.025495,0.1207156,0.4264872,1.155343,-0.3483081,-0.4266487,1.121142,0.4504539,-0.4578399,1.049073,0.1195618,-0.03861674,1.206454,0.1281919,-0.3584088,1.202418,-0.06258686,0.1374358,1.199508,0.03750155,-0.349872,1.172131,-0.1887816,-0.1070289,1.22513,0.3679779,-0.1188152,1.166587,NA,NA,Unknown,Closed,
0.7490234,-0.6376953,-0.1206055,0.8378906,0.5458984,0.04980469,0,0,-2,0,0,-1,-2,1,0,0,-2,1,-1,-2,-1,-1,-2.0625,-2.0625,-2.0625,5.125,5.125,5.125,2.238168,3.564692,9.908329,7.320422,3.438881,8.797646,-0.3249833,-0.3908218,1.124359,0.4448787,-0.426534,1.023051,0.1273582,0.4260654,1.153431,-0.3235173,-0.4422249,1.121818,0.4513221,-0.4611865,1.045625,0.1266086,-0.03914652,1.205888,0.1354456,-0.3588767,1.202369,-0.05498803,0.136799,1.200601,0.04439443,-0.3504249,1.17253,-0.1801215,-0.1074178,1.227295,0.3723414,-0.1198473,1.165805,NA,NA,Unknown,Unknown,
0.7597656,-0.6230469,-0.1079102,0.8583984,0.5224609,0.07177734,-1,-3,-1,-1,-2,1,0,0,-2,0,-1,0,0,-1,0,-1,5.4375,5.4375,5.4375,3.3125,3.3125,3.3125,2.235115,3.548405,9.919552,7.299988,3.425298,8.830568,-0.3127245,-0.3977722,1.128662,0.4458639,-0.4277829,1.023055,0.1326622,0.4254695,1.152147,-0.3082901,-0.4366122,1.131267,0.4526101,-0.4613582,1.046874,0.132785,-0.03944137,1.205222,0.1415877,-0.3587428,1.202224,-0.04837462,0.1366215,1.201203,0.05039563,-0.3501472,1.172941,-0.1696927,-0.107331,1.22968,0.3761809,-0.1205608,1.164455,NA,NA,Unknown,Unknown,
0.7602539,-0.6000977,-0.1210938,0.84375,0.4956055,0.09521484,-1,2,0,-1,-1,-3,0,-3,0,0,0,0,-2,0,-3,-1,7.3125,7.3125,7.3125,10.125,10.125,10.125,2.240022,3.518799,9.935242,7.286695,3.410439,8.858931,-0.299023,-0.4024057,1.132688,0.4437363,-0.4265578,1.021465,0.1370122,0.4252025,1.151073,-0.3099026,-0.4371395,1.1418,0.4139128,-0.4400821,1.052667,0.1376795,-0.0389736,1.205083,0.1458259,-0.3579372,1.202232,-0.04272699,0.1370975,1.202098,0.05461996,-0.3491531,1.173696,-0.1590787,-0.1089921,1.231605,0.3793063,-0.1213747,1.163148,NA,NA,Unknown,Closed,
0.7753906,-0.5961914,-0.1357422,0.8696289,0.4916992,0.1079102,0,-1,-2,1,-2,-2,0,0,-2,-2,-1,-1,0,-1,1,0,2.4375,2.4375,2.4375,15.4375,15.4375,15.4375,2.242275,3.501073,9.937381,7.284773,3.39725,8.878705,-0.2841716,-0.407563,1.138571,0.4413426,-0.427595,1.022663,0.1403744,0.4253483,1.151009,-0.2909714,-0.4468159,1.147375,0.4104842,-0.4308573,1.050313,0.1420898,-0.03848829,1.205242,0.1503829,-0.3570111,1.202746,-0.04497562,0.1369442,1.202521,0.05929737,-0.3480771,1.174627,-0.1506335,-0.1108765,1.233796,0.3830093,-0.1230938,1.1608,NA,NA,Unknown,Unknown,
0.7495117,-0.6157227,-0.1323242,0.8779297,0.4594727,0.09130859,0,-2,0,-1,-3,-3,-2,-2,-2,0,-1,-3,0,-3,-2,-2,-4.0625,-4.0625,-4.0625,13.75,13.75,13.75,2.242801,3.466669,9.924238,7.281504,3.363715,8.92478,-0.269776,-0.4142244,1.142648,0.4364578,-0.4297789,1.02124,0.1421012,0.4253818,1.150916,-0.2762893,-0.4452643,1.1598,0.4061319,-0.4336796,1.047833,0.1446124,-0.0377858,1.205512,0.1532783,-0.3556813,1.203476,-0.04883354,0.1370582,1.20238,0.06235877,-0.346492,1.175961,-0.1434448,-0.1135086,1.236752,0.3840785,-0.1237453,1.159833,NA,NA,Unknown,Unknown,
0.7470703,-0.6123047,-0.1430664,0.8833008,0.4677734,0.08251953,0,0,0,1,0,-1,-1,-1,0,0,-2,-1,-1,-2,-1,-1,-5.1875,-5.1875,-5.1875,-6.9375,-6.9375,-6.9375,2.243599,3.459635,9.918943,7.268233,3.356436,8.943634,-0.2599271,-0.42227,1.145893,0.4280138,-0.4302174,1.022213,0.142496,0.4254429,1.150923,-0.2875357,-0.4158475,1.142,0.4652293,-0.4148207,1.012714,0.1455281,-0.03724511,1.206015,0.1547536,-0.3544271,1.204657,-0.05202598,0.1369099,1.202441,0.06388383,-0.3450892,1.177547,-0.1384479,-0.1162711,1.239605,0.3839448,-0.1243641,1.159137,NA,NA,Unknown,Unknown,
0.7563477,-0.6503906,-0.1054688,0.8476563,0.4394531,0.09667969,0,-3,-4,-1,-2,-9,-3,-3,-3,-4,-3,-2,-1,0,-1,-1,-4.625,-4.625,-4.625,-24.1875,-24.1875,-24.1875,2.239673,3.413677,9.887856,7.227058,3.361012,8.948344,-0.252733,-0.4236443,1.152329,0.4184241,-0.4288954,1.022783,0.142012,0.4255442,1.150936,-0.2744844,-0.4257289,1.119629,0.3933196,-0.4349853,1.052308,0.1453429,-0.03695493,1.206258,0.1549021,-0.3539119,1.205036,-0.05514964,0.13716,1.202169,0.06404365,-0.344542,1.177965,-0.1376394,-0.1175605,1.240522,0.3809412,-0.1256111,1.158882,NA,NA,Unknown,Unknown,
0.7915039,-0.5820313,-0.05126953,0.9746094,0.543457,0.08886719,-3,0,-2,0,2,0,0,-3,-5,2,-1,-1,-2,0,-2,-1,-15.125,-15.125,-15.125,-37.125,-37.125,-37.125,2.221289,3.3758,9.888511,7.169773,3.37292,8.939642,-0.2510093,-0.4270097,1.156077,0.405821,-0.4291085,1.022369,0.1378964,0.4260567,1.151587,-0.2757557,-0.4106611,1.140667,0.4182318,-0.4656003,1.036,0.1415485,-0.03633688,1.20657,0.1529652,-0.353844,1.204992,-0.06000757,0.1374004,1.201134,0.06207958,-0.3445049,1.177178,-0.1386841,-0.1181958,1.240386,0.3694191,-0.1272848,1.160281,NA,NA,Lasso,Unknown,
0.7700195,-0.5605469,-0.0625,1.060059,0.5673828,0.09570313,0,0,0,0,0,-2,0,-1,-7,1,-1,-1,0,-1,0,0,-17.6875,-17.6875,-17.6875,-35.25,-35.25,-35.25,2.209273,3.36091,9.892135,7.151339,3.375953,8.939183,-0.2517419,-0.4326351,1.157929,0.3897625,-0.422103,1.025096,0.1281932,0.4281466,1.153725,-0.2806656,-0.4243019,1.146176,0.4021626,-0.4191921,0.9819783,0.1300499,-0.03528583,1.207139,0.1441414,-0.35442,1.204503,-0.06647936,0.1376536,1.199239,0.05357234,-0.3453387,1.174683,-0.1455626,-0.1186859,1.236414,0.3530312,-0.1277878,1.16463,NA,NA,Unknown,Unknown,
0.9462891,-0.5102539,-0.05371094,0.8227539,0.6391602,0.03710938,-1,-1,-2,-1,0,0,1,0,-2,-1,0,-1,-2,-2,0,1,-30.5,-30.5,-30.5,-35.875,-35.875,-35.875,2.162099,3.31528,9.902701,7.08182,3.389786,8.965172,-0.2536474,-0.4348405,1.154259,0.3699032,-0.4131175,1.025108,0.114448,0.4312979,1.157343,-0.2844822,-0.4121462,1.158333,0.3649722,-0.4038141,0.9811891,0.1164831,-0.03357907,1.206968,0.1316377,-0.3540319,1.203009,-0.07412717,0.1381252,1.196967,0.0419087,-0.344871,1.172191,-0.1550601,-0.1184869,1.229434,0.3411595,-0.1260328,1.168485,NA,NA,Unknown,Unknown,
0.8564453,-0.3051758,-0.1508789,0.8383789,0.7299805,0.1904297,0,-1,2,-1,-1,0,1,0,0,-5,-3,-1,-1,0,-1,1,-9.125,-9.125,-9.125,33.875,33.875,33.875,2.191825,3.276327,9.804307,6.984737,3.51286,9.153427,-0.2558069,-0.4401549,1.140822,0.3521028,-0.4061366,1.018688,0.1002283,0.4334846,1.161063,-0.2569665,-0.4799571,1.165783,0.3464145,-0.3838265,0.9815153,0.1042729,-0.03186101,1.207842,0.1195754,-0.3531684,1.202062,-0.0856351,0.1387308,1.197727,0.03056667,-0.3444486,1.17086,-0.163309,-0.121957,1.2264,0.3343708,-0.1232664,1.17135,NA,NA,Lasso,Unknown,
0.9067383,-0.4638672,-0.02636719,0.9995117,0.7226563,0.2817383,0,-2,-1,-2,1,-1,-1,-1,0,-2,-2,-4,-4,-4,-3,-1,-28.75,-28.75,-28.75,-8.4375,-8.4375,-8.4375,2.26878,3.276374,9.665371,6.891611,3.631958,9.272357,-0.2545262,-0.4485303,1.126135,0.339424,-0.393546,1.007743,0.08725563,0.4339446,1.164891,-0.2625059,-0.4782345,1.146714,0.3531785,-0.3728758,0.9667084,0.09304317,-0.03140988,1.209185,0.1074504,-0.3529665,1.201828,-0.09711602,0.137857,1.199922,0.01880692,-0.3444772,1.170192,-0.1710793,-0.1243761,1.225107,0.3280078,-0.1215197,1.17486,NA,NA,Unknown,Closed,
0.8691406,-0.3994141,0.002441406,0.7988281,0.8217773,0.3344727,-1,0,0,-2,-2,-4,-3,0,0,-7,2,-12,-92,22,-2,-7,-26.75,-26.75,-26.75,20.1875,20.1875,20.1875,2.395447,3.273405,9.478772,6.792909,3.829103,9.432188,-0.2504261,-0.4520437,1.117392,0.3223849,-0.3643251,0.9830938,0.07611352,0.4337604,1.168098,-0.2491535,-0.4892633,1.13,0.3389131,-0.3340557,0.9485061,0.08391168,-0.03168686,1.210297,0.09892454,-0.3535894,1.201545,-0.09725295,0.1376756,1.200035,0.01020931,-0.3455049,1.169845,-0.1791885,-0.1268063,1.223447,0.3216076,-0.117562,1.178571,NA,NA,Unknown,Unknown,
0.8862305,-0.4135742,0.003417969,0.5092773,0.9003906,0.4433594,-2,-2,1,0,-1,0,0,-1,-2,-3,-3,-1,3,-2,-1,-1,-47.5,-47.5,-47.5,-8.5625,-8.5625,-8.5625,2.417732,3.253523,9.370853,6.721534,4.114744,9.572691,-0.2450554,-0.4488428,1.112924,0.2990392,-0.3139778,0.9462487,0.06640712,0.433549,1.171296,-0.2368466,-0.499941,1.104714,0.2860349,-0.3825509,0.9964,0.07522216,-0.03183813,1.211418,0.09125832,-0.3536172,1.201258,-0.1127016,0.1356172,1.203358,0.002802756,-0.3459958,1.169588,-0.1844641,-0.1292936,1.222613,0.3159958,-0.1077884,1.183581,NA,NA,Unknown,Closed,
0.8862305,-0.4135742,0.003417969,0.5092773,0.9003906,0.4433594,-2,-2,1,0,-1,0,0,-1,-2,-3,-3,-1,3,-2,-1,-1,-47.5,-47.5,-47.5,-8.5625,-8.5625,-8.5625,2.417732,3.253523,9.370853,6.721534,4.114744,9.572691,-0.2384942,-0.4508729,1.11222,0.2749732,-0.2345699,0.9202713,0.05819629,0.4332228,1.174495,-0.2390934,-0.4373211,1.080645,0.2471144,-0.2785379,0.9371111,0.06775244,-0.03183831,1.212804,0.08392248,-0.3537647,1.201074,-0.12193,0.1341949,1.205203,-0.004928481,-0.3468185,1.168965,-0.1891117,-0.1319602,1.22112,0.3106893,-0.08985557,1.190225,NA,NA,Unknown,Unknown,
0.9208984,-0.4082031,0.02148438,0.2338867,0.8979492,0.5581055,0,-1,-1,0,0,-3,-1,1,-5,-17,-8,-9,-27,-3,1,0,-23.3125,-23.3125,-23.3125,-55.8125,-55.8125,-55.8125,2.467642,3.206898,9.205621,6.544964,4.905883,9.779616,-0.2317766,-0.4537712,1.113479,0.2542181,-0.1485237,0.8967025,0.05133446,0.432864,1.177136,-0.1946265,-0.4511425,1.089778,0.2557025,-0.2168222,0.9338182,0.06154031,-0.03185141,1.214415,0.07791174,-0.3534952,1.201532,-0.128016,0.1332174,1.206186,-0.01081622,-0.3470537,1.169121,-0.1908003,-0.133223,1.220538,0.3261767,-0.07164841,1.190766,NA,NA,Unknown,Unknown,
0.9003906,-0.3979492,-0.002441406,-0.2080078,0.7773438,0.5180664,-2,0,-3,-1,-2,0,1,-1,-32,-52,-7,0,16,59,16,3,-6.0625,-6.0625,-6.0625,-29.4375,-29.4375,-29.4375,2.494572,3.184719,9.152529,6.458479,5.407823,9.928283,-0.2252071,-0.4578228,1.115756,0.2299564,-0.04429863,0.899756,0.04515698,0.4330732,1.180205,-0.1887319,-0.4538574,1.088625,0.2313898,-0.07563012,0.8708708,0.05677913,-0.0315331,1.21597,0.07382309,-0.3532442,1.202253,-0.1327723,0.1323211,1.207087,-0.01495244,-0.3473039,1.169979,-0.1916423,-0.1339351,1.220405,0.3341769,-0.0603983,1.141038,NA,NA,Unknown,Unknown,
0.9257813,-0.3945313,0.01708984,-0.3999023,0.5644531,0.6640625,-2,0,0,1,-2,0,0,0,7,17,-3,-30,-92,-16,-2,3,-19.0625,-19.0625,-19.0625,-51.9375,-51.9375,-51.9375,2.521149,3.154563,9.091245,6.439493,5.802219,0.06796245,-0.2181711,-0.4597785,1.118087,0.2139487,0.05645622,0.9256944,0.04095551,0.4327798,1.182151,-0.1782868,-0.4565705,1.098133,0.1592965,0.0908614,0.9538333,0.05262127,-0.03174715,1.21752,0.07059602,-0.353376,1.203031,-0.1363281,0.1306743,1.207709,-0.01848025,-0.3484184,1.171005,-0.1918228,-0.1341457,1.220189,0.351779,-0.1069104,1.155489,NA,NA,Unknown,Unknown,
0.9140625,-0.3789063,-0.0009765625,-0.7363281,0.5014648,0.3359375,0,1,-1,0,-1,-1,0,-2,-11,-9,-8,-7,0,1,-2,-5,-13.0625,-13.0625,-13.0625,-39.3125,-39.3125,-39.3125,2.542018,3.132628,9.035383,6.490391,6.194227,0.2764319,-0.2114923,-0.4622649,1.119494,0.1948176,0.1486072,0.9635717,0.03752146,0.4316933,1.183636,-0.1904197,-0.4706056,1.1276,0.1360084,0.1331249,0.9596364,0.04856967,-0.034342,1.219352,0.06537929,-0.358634,1.204579,-0.1380387,0.1294885,1.208183,-0.02440616,-0.3533997,1.172154,-0.1921491,-0.1366687,1.220015,0.3565795,-0.08462009,1.133867,NA,NA,NotTracked,Unknown,
0.902832,-0.3818359,0.01269531,-0.8168945,0.4418945,0.3344727,-1,0,-1,0,-1,-1,-2,1,10,5,11,1,10,3,-5,0,-15.6875,-15.6875,-15.6875,-27.625,-27.625,-27.625,2.545768,3.127609,9.021661,6.584975,6.419687,0.4531441,-0.2061852,-0.4643721,1.121635,0.1922473,0.2043424,1.006863,0.0351895,0.4307924,1.184628,-0.1673133,-0.4590594,1.099956,0.1401164,0.2009777,0.9808235,0.04678879,-0.03271328,1.221022,0.0628331,-0.3559097,1.20664,-0.1388005,0.1289588,1.208509,-0.02743744,-0.3500499,1.174371,-0.1920265,-0.1368385,1.219991,0.356175,-0.05985927,1.105561,NA,NA,NotTracked,Unknown,
0.9223633,-0.4033203,0.01757813,-0.6533203,0.4521484,0.140625,0,1,0,-2,0,0,0,-2,8,4,1,-3,-31,-11,-3,-3,-21.1875,-21.1875,-21.1875,-0.5,-0.5,-0.5,2.540797,3.110829,8.962616,7.078477,6.806163,1.052695,-0.2021367,-0.4647177,1.122952,0.1898322,0.2360003,1.0336,0.03463117,0.4299984,1.185463,-0.1627342,-0.4615557,1.099889,0.1870422,0.2466097,1.001411,0.04736779,-0.02984869,1.222744,0.0616684,-0.348821,1.209342,-0.13873,0.1283491,1.208488,-0.02857386,-0.3428203,1.1766,-0.1913451,-0.1363109,1.219925,0.3323706,0.006614167,1.055864,NA,NA,Lasso,Unknown,
0.9150391,-0.3608398,-0.004394531,-0.4243164,0.527832,-0.1665039,-2,-3,-2,1,-1,-1,-1,0,24,9,0,-4,12,-4,1,7,0.25,0.25,0.25,12.625,12.625,12.625,2.549627,3.113559,8.935722,7.401818,6.887432,1.396349,-0.2008023,-0.463872,1.122424,0.1849215,0.2551741,1.051441,0.03563556,0.4281151,1.186724,-0.1623794,-0.4574557,1.104559,0.1849622,0.2622611,1.014307,0.04930066,-0.02662911,1.225277,0.06190464,-0.3441724,1.211959,-0.1384848,0.1281474,1.208734,-0.0282726,-0.3382648,1.178976,-0.190235,-0.1348717,1.21967,0.3330998,0.02648253,1.041797,NA,NA,Unknown,Unknown,
0.9375,-0.3662109,0.0009765625,-0.7436523,0.3774414,0.04394531,0,-1,0,-1,0,-2,0,-1,14,7,5,1,12,0,1,12,5.125,5.125,5.125,-4.375,-4.375,-4.375,2.573635,3.123352,8.916592,7.537337,6.89912,1.543853,-0.1988942,-0.4637323,1.118807,0.1824454,0.2607925,1.057995,0.03650251,0.4272298,1.187486,-0.1849043,-0.5157768,1.112,0.1792585,0.2621555,1.015925,0.05068583,-0.02461448,1.227236,0.06217609,-0.3423558,1.213814,-0.1376821,0.1278193,1.209345,-0.02803716,-0.3367129,1.180581,-0.1892342,-0.1332695,1.220037,0.3313794,0.03017573,1.039631,NA,NA,Unknown,Unknown,
0.9194336,-0.3662109,0.005371094,-0.8461914,0.3818359,0.0078125,-1,-2,1,0,0,0,-3,2,11,37,19,-3,6,-2,-1,5,5.125,5.125,5.125,-4.8125,-4.8125,-4.8125,2.607986,3.135313,8.888055,7.518827,6.888131,1.532072,-0.1975908,-0.4633859,1.116094,0.1808099,0.2622946,1.059843,0.03694632,0.4264016,1.18834,-0.2261521,-0.4663478,1.105952,0.1734489,0.2386711,1.116414,0.05183215,-0.02339138,1.228798,0.06240777,-0.3411712,1.215735,-0.1370504,0.127356,1.210282,-0.02779575,-0.3356176,1.182722,-0.188504,-0.131343,1.220827,0.330835,0.03492742,1.036487,NA,NA,Unknown,Unknown,
0.8964844,-0.3657227,0.02294922,-0.8461914,0.4150391,0.0009765625,-1,-1,-1,-1,1,-1,-2,0,-9,4,-9,-6,14,9,-2,-4,-3.125,-3.125,-3.125,4.9375,4.9375,4.9375,2.634663,3.145659,8.858755,7.4727,6.883454,1.47705,-0.1985854,-0.4618631,1.11634,0.1788069,0.2628636,1.061423,0.03707087,0.425749,1.189074,-0.2390034,-0.4610531,1.126,0.1734152,0.239468,1.116211,0.05211483,-0.02254789,1.229998,0.06222164,-0.3402359,1.217175,-0.1367954,0.1271615,1.211284,-0.0279263,-0.3348043,1.184234,-0.1885001,-0.1302171,1.221747,0.3295915,0.03570055,1.037588,NA,NA,Unknown,Unknown,
0.8676758,-0.3974609,0.046875,-0.7807617,0.3974609,0.04736328,1,0,-3,-1,-1,-1,0,-1,2,-12,-15,-2,10,0,0,2,-2.5,-2.5,-2.5,9,9,9,2.638465,3.151593,8.847261,7.38215,6.879303,1.371431,-0.1997402,-0.4608481,1.118447,0.1792281,0.261321,1.061722,0.03713349,0.4253759,1.189789,-0.2331688,-0.459915,1.110605,0.1819831,0.23312,1.111714,0.05218091,-0.02171044,1.230806,0.0619829,-0.3391856,1.218302,-0.1366198,0.1271236,1.211912,-0.02815833,-0.3338257,1.185272,-0.1886053,-0.1298214,1.222474,0.3288386,0.03559078,1.039247,NA,NA,Unknown,Unknown,
0.9052734,-0.3852539,0.04443359,-0.8217773,0.3720703,0.04101563,-2,-1,1,1,0,-2,-1,1,-9,-8,-5,-9,-36,-10,-1,11,-1.125,-1.125,-1.125,-4.875,-4.875,-4.875,2.60875,3.142397,8.877911,7.139413,6.832987,1.091556,-0.2036378,-0.4628143,1.123501,0.1797733,0.2590216,1.059894,0.0366906,0.4253392,1.190936,-0.2347454,-0.467382,1.113302,0.1717503,0.236513,1.116636,0.05195064,-0.02133319,1.231441,0.0613823,-0.3386156,1.219211,-0.1368586,0.1273991,1.21289,-0.02875489,-0.3331178,1.186423,-0.1889029,-0.1295212,1.223173,0.3289918,0.03296872,1.041898,NA,NA,Unknown,Unknown,
0.90625,-0.3735352,0.007324219,-0.8032227,0.3833008,0.1914063,1,-1,-1,-1,0,0,-1,0,24,21,13,14,28,4,7,17,6.625,6.625,6.625,-66.6875,-66.6875,-66.6875,2.555409,3.125705,8.947816,6.773457,6.686563,0.7726561,-0.2079405,-0.463884,1.127828,0.1623992,0.2611414,1.057769,0.03513354,0.4256821,1.193558,-0.2402039,-0.458593,1.118966,0.1375668,0.2448059,1.107667,0.05112651,-0.02114365,1.23231,0.06084977,-0.3382019,1.219889,-0.1379917,0.1272204,1.214395,-0.02930804,-0.3326607,1.187298,-0.1898299,-0.1301798,1.22441,0.3269739,0.0193929,1.05562,NA,NA,Unknown,Unknown,
0.9194336,-0.3769531,0.01757813,-0.6977539,0.3735352,0.4589844,-1,-2,0,0,1,0,-2,-1,-19,-6,-10,5,66,4,-12,-27,5.1875,5.1875,5.1875,72.9375,72.9375,72.9375,2.526592,3.116033,8.988338,6.434542,6.446085,0.3318464,-0.2119696,-0.4660346,1.132766,0.2006219,0.2226826,1.022693,0.03120947,0.427983,1.197098,-0.2418105,-0.4680461,1.120796,0.1390229,0.2168711,1.020929,0.0474379,-0.02221504,1.233335,0.06013469,-0.3387729,1.220159,-0.1405505,0.1269031,1.216069,-0.02992961,-0.3333213,1.187711,-0.1914695,-0.13184,1.225374,0.3227079,0.0004973218,1.078098,NA,NA,Unknown,Unknown,
0.9072266,-0.3671875,0.015625,-0.8383789,0.2724609,0.6811523,-1,-1,-2,-1,-1,0,-1,-3,-2,75,30,2,27,-14,1,-4,2.8125,2.8125,2.8125,202.375,202.375,202.375,2.513557,3.111454,9.011934,6.493122,6.319093,0.0410174,-0.2151993,-0.4667088,1.134416,0.2044908,0.1835779,0.9759368,0.02768785,0.4293489,1.200106,-0.2463129,-0.4586149,1.12413,0.1490925,0.1691698,0.9257779,0.0432575,-0.02526303,1.233816,0.05780051,-0.3443168,1.21956,-0.1430474,0.1264943,1.217328,-0.03207269,-0.3389027,1.187415,-0.1935416,-0.133993,1.226295,0.3215577,-0.02778379,1.110586,NA,NA,Unknown,Unknown,
0.9204102,-0.3847656,0.03076172,-0.7143555,1.632813,-0.2250977,-1,-1,5,-1,0,-1,-1,1,-5,-23,11,1,-18,8,14,19,4.5625,4.5625,4.5625,43.875,43.875,43.875,2.513096,3.112227,9.018754,6.624448,6.119597,9.932962,-0.2169777,-0.4674593,1.135169,0.2193197,0.1416295,0.9467627,0.02461963,0.4307913,1.202814,-0.2481254,-0.4699841,1.123543,0.235883,0.1176739,0.8785556,0.04024991,-0.0283685,1.234033,0.05558148,-0.3497525,1.218462,-0.1481583,0.1254228,1.219501,-0.03381262,-0.3444711,1.186216,-0.1953544,-0.1357663,1.227033,0.3111999,-0.04897259,1.140867,NA,NA,Unknown,Unknown,
0.9106445,-0.3945313,0.02294922,-0.5766602,0.3598633,1.10498,-1,0,-2,-1,-3,2,-1,-1,3,-4,1,11,-26,-5,-1,12,-2.5,-2.5,-2.5,-257.3125,-257.3125,-257.3125,2.525484,3.117001,9.007326,6.218903,5.934752,9.825356,-0.2187644,-0.4671851,1.132663,0.2242216,0.1198538,0.9419449,0.02230997,0.431561,1.204557,-0.2476355,-0.4625043,1.119307,0.1764249,0.08404864,0.8890001,0.03831981,-0.02997462,1.233967,0.05449143,-0.3520877,1.217658,-0.1508497,0.12529,1.219963,-0.03470361,-0.347137,1.185152,-0.1972353,-0.137756,1.227391,0.3244348,-0.09609818,1.142018,NA,NA,NotTracked,Unknown,
