ALX,ALY,ALZ,ARX,ARY,ARZ,EMG0L,EMG1L,EMG2L,EMG3L,EMG4L,EMG5L,EMG6L,EMG7L,EMG0R,EMG1R,EMG2R,EMG3R,EMG4R,EMG5R,EMG6R,EMG7R,GLX,GLY,GLZ,GRX,GRY,GRZ,ORL,OPL,OYL,ORR,OPR,OYR,LHNX,LHNY,LHNZ,RHNX,RHNY,RHNZ,HX,HY,HZ,LTX,LTY,LTZ,RTX,RTY,RTZ,SpineMidX,SpineMidY,SpineMidZ,SpineBaseX,SpineBaseY,SpineBaseZ,ShoulderLeftX,ShoulderLeftY,ShoulderLeftZ,ShoulderRightX,ShoulderRightY,ShoulderRightZ,ElbowLeftX,ElbowLeftY,ElbowLeftZ,ElbowRightX,ElbowRightY,ElbowRightZ,Myo_Pose_left,Myo_Pose_Right,Kinect_pose_left,Kinect_pose_right
0.9179688,-0.3637695,0.03808594,0.9125977,0.4121094,0.08837891,1,-2,-3,-1,-2,-1,0,0,-1,0,-2,0,-1,0,1,-3,-3.75,-3.75,-3.75,-7.6875,-7.6875,-7.6875,2.631111,3.074976,9.664018,7.129603,3.204167,3.973519,-0.1536984,-0.4327262,1.095069,0.2876472,-0.4132155,1.056784,0.06108719,0.4470131,1.183262,-0.1088632,-0.4201401,1.102133,0.2538617,-0.3936238,1.077134,0.06113985,-0.02169817,1.201532,0.07343458,-0.3514753,1.184948,-0.1265218,0.1430076,1.178089,-0.01314522,-0.3426408,1.151282,-0.1701626,-0.1136336,1.18617,0.2843111,-0.1204205,1.17792,NA,NA,NotTracked,NotTracked,
0.9111328,-0.3369141,0.02294922,0.8867188,0.4199219,0.09179688,-1,-1,1,-2,-1,-1,-1,0,-2,-2,-2,-1,-2,-1,-2,-2,-4.25,-4.25,-4.25,-2.5,-2.5,-2.5,2.629436,3.070441,9.659918,7.115518,3.205841,3.980191,-0.1524262,-0.4305883,1.094408,0.2866645,-0.4118056,1.055655,0.06140153,0.446947,1.182651,-0.1085052,-0.4159537,1.098415,0.2496614,-0.4036352,1.078767,0.06143338,-0.02196701,1.200933,0.07344238,-0.3517118,1.184259,-0.1268277,0.1426833,1.177878,-0.01314464,-0.3428796,1.150385,-0.1701139,-0.1140434,1.185434,0.2841682,-0.1210082,1.177526,NA,NA,NotTracked,NotTracked,
0.921875,-0.3432617,0.02978516,0.8896484,0.4189453,0.09814453,0,-2,-1,-1,-1,-1,-1,-1,-1,-1,0,-1,-2,1,-1,0,-2.6875,-2.6875,-2.6875,-4,-4,-4,2.630707,3.070944,9.652885,7.10956,3.208515,3.980676,-0.1534465,-0.4310578,1.092939,0.2868299,-0.4119129,1.056208,0.06166757,0.4469733,1.182226,-0.1088549,-0.434147,1.102696,0.2511193,-0.3995741,1.074085,0.06154012,-0.02205723,1.200664,0.07343583,-0.3518168,1.183934,-0.1268995,0.1427711,1.177348,-0.01317034,-0.3429787,1.149891,-0.1697956,-0.1143737,1.184757,0.2840977,-0.1213619,1.177341,NA,NA,NotTracked,NotTracked,
0.921875,-0.3442383,0.03320313,0.9101563,0.4165039,0.09521484,-1,0,-1,-1,-2,0,0,-3,-3,-2,-2,-2,-1,-2,-4,-2,-0.125,-0.125,-0.125,-2.8125,-2.8125,-2.8125,2.641976,3.074852,9.638607,7.110153,3.209348,3.973995,-0.1544785,-0.4320316,1.090179,0.2868446,-0.4125966,1.055377,0.06196635,0.446802,1.181588,-0.1083694,-0.4382061,1.100834,0.2480028,-0.411255,1.042931,0.06167463,-0.02234504,1.200334,0.07354763,-0.3522581,1.183342,-0.1259326,0.1425805,1.17543,-0.01312141,-0.3434502,1.149161,-0.169716,-0.114312,1.183762,0.2839583,-0.1217204,1.177004,NA,NA,NotTracked,Unknown,
0.9326172,-0.3447266,0.03125,0.9047852,0.4350586,0.07763672,-1,-1,-1,0,-2,-1,-1,-1,1,-4,-2,-2,-2,-2,-1,-1,-0.5,-0.5,-0.5,-0.4375,-0.4375,-0.4375,2.648621,3.07809,9.630919,7.113986,3.209667,3.968694,-0.154178,-0.4326596,1.08721,0.2865456,-0.4152224,1.053403,0.06237927,0.4467626,1.180892,-0.1109047,-0.4479349,1.09725,0.2473941,-0.4199196,1.036318,0.06172814,-0.0225997,1.199876,0.07363117,-0.3526116,1.182905,-0.1251256,0.1424095,1.173717,-0.01306938,-0.3437764,1.148644,-0.1696889,-0.1135373,1.182206,0.2838146,-0.1220912,1.176702,NA,NA,NotTracked,Unknown,
0.9238281,-0.3349609,0.02880859,0.8959961,0.4189453,0.07666016,0,-1,0,1,-3,-2,-2,1,-1,-1,0,0,-4,-1,-1,0,0.375,0.375,0.375,1.9375,1.9375,1.9375,2.651002,3.080462,9.6281,7.124036,3.208205,3.962117,-0.153529,-0.435633,1.083036,0.2874391,-0.4153756,1.052752,0.06255105,0.4467418,1.180115,-0.1092076,-0.4482588,1.0922,0.2572911,-0.3939562,1.084286,0.06193094,-0.02287168,1.199288,0.07386901,-0.3529001,1.182447,-0.1256972,0.1417989,1.173637,-0.01286393,-0.3441007,1.148117,-0.1694872,-0.11445,1.18103,0.2837136,-0.1225511,1.175954,NA,NA,NotTracked,Unknown,
0.9228516,-0.3198242,0.02001953,0.8955078,0.4101563,0.08496094,-2,-1,0,0,0,0,-2,0,-2,-1,-1,0,0,-3,0,2,1.5625,1.5625,1.5625,4.4375,4.4375,4.4375,2.654356,3.081083,9.628284,7.134336,3.20714,3.959669,-0.1516258,-0.436102,1.083574,0.2877137,-0.4152634,1.051913,0.0626241,0.4466232,1.179188,-0.1108987,-0.4309668,1.097566,0.2503753,-0.4152963,1.033668,0.06228227,-0.02301628,1.19862,0.07419419,-0.3531201,1.181844,-0.126236,0.1414203,1.173987,-0.01256683,-0.3443217,1.147521,-0.1693009,-0.1150068,1.179824,0.2838885,-0.1227516,1.175102,NA,NA,NotTracked,Unknown,
0.9204102,-0.3383789,0.03515625,0.9033203,0.3989258,0.09228516,0,0,1,-2,-2,-1,-1,-3,-3,-2,-2,-2,-1,-1,-3,-7,0.875,0.875,0.875,-3.125,-3.125,-3.125,2.655546,3.079587,9.6284,7.13849,3.209015,3.952432,-0.1507213,-0.4342839,1.083877,0.2886242,-0.4179356,1.050656,0.06278653,0.446469,1.178059,-0.1075943,-0.4344039,1.092066,0.2508034,-0.41846,1.036134,0.06265803,-0.02320046,1.197667,0.07456763,-0.3533478,1.18099,-0.1252929,0.1414156,1.172091,-0.01222747,-0.3445338,1.14673,-0.1688672,-0.1154918,1.179023,0.2841545,-0.1228125,1.174302,NA,NA,NotTracked,Unknown,
0.9633789,-0.3608398,0.008789063,0.96875,0.4487305,0.08544922,-1,-1,-1,-3,-7,1,-5,-1,2,-10,-1,-8,0,-1,-3,-10,-5.625,-5.625,-5.625,-3.5,-3.5,-3.5,2.656978,3.077871,9.620206,7.12362,3.217643,3.964292,-0.1489782,-0.4351325,1.085393,0.2890969,-0.416719,1.051532,0.06297047,0.44642,1.17731,-0.1126061,-0.4313234,1.058105,0.2513235,-0.4149633,1.050058,0.06301367,-0.0231766,1.197217,0.07502985,-0.3533052,1.180305,-0.1267571,0.1409819,1.174346,-0.01169454,-0.3444508,1.146006,-0.1686669,-0.1155796,1.178412,0.2844591,-0.1229293,1.173838,NA,NA,NotTracked,Unknown,
1.098145,-0.4311523,0.01757813,1.149902,0.4443359,0.1386719,-1,-2,-15,-45,-22,-7,5,0,13,15,-7,-7,-1,-1,-4,4,-26.4375,-26.4375,-26.4375,-2.8125,-2.8125,-2.8125,2.8179,3.141845,9.419459,6.98013,3.266603,4.114097,-0.1404625,-0.4251481,1.07453,0.284666,-0.4135544,1.043329,0.06319821,0.4463614,1.177017,-0.1003932,-0.4098188,1.067367,0.2546947,-0.382997,1.084,0.06349525,-0.02324218,1.196615,0.07595878,-0.3531108,1.179121,-0.1265308,0.1413566,1.173454,-0.010737,-0.3441204,1.144772,-0.1694636,-0.1140984,1.178213,0.2849069,-0.1229711,1.173808,NA,NA,NotTracked,Unknown,
0.940918,-0.6928711,0.3398438,1.077637,0.737793,0.5170898,-2,-1,4,17,8,4,3,-1,3,-1,14,-6,2,0,-4,0,-104.125,-104.125,-104.125,46.6875,46.6875,46.6875,2.987997,3.312286,9.070514,6.676991,3.523894,4.563145,-0.1169176,-0.3967839,1.047895,0.2681913,-0.3927707,1.017102,0.06340774,0.4463387,1.176655,-0.08056325,-0.3694587,1.042882,0.3042786,-0.4074163,1.0092,0.06443405,-0.02298253,1.195607,0.07810277,-0.3521545,1.177016,-0.1265207,0.1414934,1.173568,-0.008872448,-0.3431579,1.142601,-0.1720307,-0.1095413,1.177751,0.2889846,-0.1190985,1.177549,NA,NA,NotTracked,Unknown,
0.7416992,-0.8295898,0.3950195,0.6933594,0.8193359,0.6132813,-1,-1,0,7,-6,2,-1,-1,4,1,8,24,-26,-19,1,6,-23.5625,-23.5625,-23.5625,-53.875,-53.875,-53.875,3.149799,3.595599,8.774896,6.461697,3.886943,4.806917,-0.08082858,-0.3405598,1.019116,0.2332068,-0.3311703,0.9720742,0.06352424,0.4462629,1.176533,-0.04724501,-0.3177617,0.97345,0.2759104,-0.3539253,0.9771819,0.0653704,-0.02256318,1.194552,0.07964851,-0.35055,1.174193,-0.1257703,0.1419531,1.172687,-0.008430219,-0.3419278,1.139658,-0.1772872,-0.1003746,1.175374,0.2930785,-0.1101205,1.183842,NA,NA,Unknown,Unknown,
0.5043945,-0.7519531,0.4238281,0.2871094,0.7094727,0.5957031,-1,-4,-7,8,4,0,2,2,-9,3,0,-9,4,-3,-7,-13,-36.625,-36.625,-36.625,-13.5625,-13.5625,-13.5625,3.26403,3.9253,8.559517,6.304187,4.491791,4.973892,-0.0184544,-0.2899824,0.9813446,0.1947174,-0.2283552,0.9306833,0.06368519,0.4461989,1.176489,-0.005131825,-0.2511109,0.9321795,0.163139,-0.2526273,0.9428,0.06533723,-0.02198864,1.193966,0.07746498,-0.3481551,1.171405,-0.126073,0.1420514,1.174101,-0.01121577,-0.3391926,1.136737,-0.1806709,-0.09373262,1.169099,0.2981028,-0.07829659,1.188785,NA,NA,Unknown,Unknown,
0.4711914,-0.8129883,0.4711914,0.08837891,0.7456055,0.6201172,0,-1,3,8,-5,0,3,2,-7,7,-9,0,5,7,15,7,-38.9375,-38.9375,-38.9375,-9.8125,-9.8125,-9.8125,3.286222,4.354481,8.344846,6.279514,4.986711,5.072464,0.04564666,-0.227157,0.9400685,0.1639011,-0.1142364,0.8979937,0.06419327,0.4460076,1.176776,0.03327591,-0.1812469,0.9083456,0.1632435,-0.1505153,0.8924,0.06524462,-0.02187553,1.194257,0.07636847,-0.3480791,1.171861,-0.1250734,0.1423784,1.174622,-0.01156211,-0.3391498,1.137087,-0.1822324,-0.08632561,1.155324,0.3046583,-0.0755649,1.180625,NA,NA,NotTracked,NotTracked,
0.3330078,-0.8334961,0.434082,-0.1958008,0.6665039,0.5449219,3,2,4,3,-9,-7,4,7,-5,0,8,0,-11,5,0,-3,-41.3125,-41.3125,-41.3125,4.875,4.875,4.875,3.257315,4.644999,8.211444,6.289822,5.492596,5.144392,0.0702981,-0.1530772,0.9240064,0.01445922,-0.144273,0.9373842,0.06501113,0.4455966,1.177817,0.05897977,-0.1126553,0.8967016,0.04836553,-0.1718065,0.900931,0.06438983,-0.0214048,1.195119,0.07594178,-0.3475353,1.17241,-0.1253219,0.1422868,1.175911,-0.01162732,-0.3388243,1.137717,-0.2089129,-0.09698448,1.134706,0.2867232,-0.07907883,1.129426,NA,NA,NotTracked,NotTracked,
0.2089844,-0.8374023,0.4370117,-0.3881836,0.5952148,0.4150391,-2,-2,-5,-35,-4,5,3,-2,-3,3,-1,0,-9,-4,-8,-23,-39.4375,-39.4375,-39.4375,24.75,24.75,24.75,3.205443,4.875424,8.116117,6.376698,6.065701,5.230798,0.07996465,-0.09422281,0.912012,-0.1323215,0.02619738,1.12547,0.06608635,0.4452043,1.179399,0.07844929,-0.04549244,0.9046316,-0.1567659,-0.04197069,1.070348,0.06387559,-0.02118326,1.196055,0.07576956,-0.3468966,1.173161,-0.1215686,0.1431922,1.174069,-0.01183476,-0.3380449,1.13882,-0.2156656,-0.09744241,1.122143,0.268171,-0.0775758,1.102131,NA,NA,Unknown,NotTracked,
0.1269531,-0.7358398,0.3935547,-0.5976563,0.4716797,0.3676758,-3,1,-1,-18,0,-2,-13,-1,-6,-4,-1,3,-33,-1,-5,-5,-39.625,-39.625,-39.625,24.4375,24.4375,24.4375,3.140943,5.061651,8.044455,6.48146,6.358287,5.321361,0.08216506,-0.06179878,0.9058377,-0.1323914,0.02199217,1.11681,0.06611245,0.4451005,1.181266,0.08214595,-0.01492128,0.8957742,-0.1637888,-0.03247945,1.059543,0.06257164,-0.02027732,1.197279,0.0744681,-0.3451228,1.17467,-0.1217529,0.1431624,1.174784,-0.01348487,-0.3357207,1.141542,-0.2207489,-0.0904962,1.107579,0.2368959,-0.03759053,1.017905,NA,NA,Unknown,NotTracked,
0.1044922,-0.7709961,0.4072266,-0.6010742,0.4160156,0.324707,0,1,2,8,2,1,1,1,-2,5,1,-2,4,16,-9,-4,-29,-29,-29,19.9375,19.9375,19.9375,3.090683,5.094224,8.009939,6.583472,6.526694,5.402071,0.09137355,-0.05226081,0.9013624,-0.1314225,0.02616945,1.110129,0.06621114,0.445418,1.183284,0.08410728,-0.003074498,0.8947501,-0.1654898,-0.02413473,1.051972,0.06579579,-0.01655748,1.199405,0.07336196,-0.3404517,1.176632,-0.1134402,0.1480261,1.170493,-0.01466336,-0.3306387,1.143577,-0.177616,-0.06623315,1.080009,0.2482862,-0.0475259,1.029484,NA,NA,Unknown,NotTracked,
0.005859375,-0.8916016,0.4130859,-0.8408203,0.3618164,0.1923828,-3,-4,-2,1,-2,0,-4,-4,-1,-3,-2,2,4,-3,1,4,-12,-12,-12,4.1875,4.1875,4.1875,3.05254,5.06517,7.9752,6.627578,6.627968,5.440835,0.09518798,-0.05446916,0.9017338,-0.1254669,0.02657565,1.10844,0.06674869,0.4454902,1.184623,0.08226229,-0.006569087,0.8996921,-0.1530408,-0.02594199,1.046389,0.06744247,-0.01486491,1.200518,0.0728133,-0.3380864,1.177872,-0.1085963,0.1503664,1.167064,-0.01530259,-0.327911,1.144703,-0.2124306,-0.07293505,1.076402,0.254175,-0.05134267,1.032014,NA,NA,NotTracked,NotTracked,
-0.05273438,-0.9741211,0.4350586,-0.03369141,0.2358398,0.7329102,-3,-2,0,-8,1,10,14,-4,5,9,-1,2,7,2,9,9,-1.125,-1.125,-1.125,-18.125,-18.125,-18.125,3.054487,5.036869,7.957307,6.513799,6.511329,5.336449,0.09542654,-0.05901141,0.9016554,-0.112136,0.02815754,1.111009,0.06741843,0.4455872,1.185518,0.08496589,-0.01036174,0.8950717,-0.1403727,-0.03111595,1.040133,0.06830844,-0.01401987,1.201055,0.07241088,-0.3365593,1.17864,-0.1064537,0.1516685,1.165851,-0.01573789,-0.3262454,1.145484,-0.2142646,-0.07231754,1.082822,0.2765173,-0.06411067,1.058482,NA,NA,Unknown,NotTracked,
-0.06640625,-0.9902344,0.3632813,-0.2348633,0.4472656,0.3701172,0,-2,-2,-10,3,-1,2,3,1,2,-2,1,-14,0,-1,4,9.875,9.875,9.875,-73.6875,-73.6875,-73.6875,3.070407,5.032429,7.954377,6.337785,5.984465,5.224706,0.08937772,-0.05747398,0.8997937,-0.1187404,0.02760099,1.10988,0.06790668,0.445773,1.186325,0.08430462,-0.0106675,0.8931822,-0.1434814,-0.03259261,1.038897,0.06596348,-0.01437464,1.201126,0.07227048,-0.3366109,1.178754,-0.1141547,0.1480308,1.171707,-0.01583765,-0.3264135,1.145606,-0.1807489,-0.0632558,1.07544,0.2752866,-0.07203481,1.075854,NA,NA,Unknown,NotTracked,
-0.06347656,-1.040039,0.3476563,-0.7719727,0.5546875,0.4750977,0,0,5,16,2,0,0,2,-21,-6,-5,-4,4,-2,1,-5,9.6875,9.6875,9.6875,-30.8125,-30.8125,-30.8125,3.080579,5.082875,7.98334,6.22013,5.334644,5.185048,0.07092332,-0.05035654,0.8967773,-0.1024775,0.02798891,1.110591,0.0690001,0.4457945,1.18701,0.06848653,-0.001344241,0.88485,-0.118473,-0.04099217,1.0266,0.06562924,-0.01527332,1.201428,0.07207164,-0.3383068,1.178564,-0.1165609,0.1463785,1.173357,-0.01545968,-0.3282256,1.144736,-0.1706354,-0.06394577,1.066277,0.2914915,-0.1153506,1.13878,NA,NA,Unknown,NotTracked,
-0.05615234,-0.9506836,0.3911133,-0.02001953,0.9833984,0.8134766,-3,-3,-20,-7,1,1,2,-4,-1,-6,8,1,-2,-4,11,0,3.1875,3.1875,3.1875,11.0625,11.0625,11.0625,3.093325,5.124178,8.018888,6.23849,4.682176,5.135292,0.107039,-0.04621766,0.8928265,-0.09613863,0.02163608,1.10793,0.06917491,0.4459353,1.187366,0.07038823,0.00461301,0.8701025,-0.1014792,-0.03967794,1.016333,0.06495692,-0.015347,1.201249,0.07226828,-0.3381802,1.178366,-0.1177683,0.1457455,1.174397,-0.01464309,-0.32797,1.143332,-0.1719576,-0.0648105,1.067935,0.311707,-0.07542308,1.173368,NA,NA,Unknown,NotTracked,
-0.09619141,-0.8203125,0.4287109,0.5239258,1.217773,0.9770508,-4,-2,-4,1,-2,-1,-5,-8,-2,-6,-2,5,8,1,1,6,-22.6875,-22.6875,-22.6875,68.8125,68.8125,68.8125,3.089245,5.146318,8.033311,6.2839,4.25637,5.069589,0.09791553,-0.03369354,0.882201,-0.096594,0.02208553,1.104435,0.06913517,0.4459736,1.187443,0.0683106,0.0114606,0.8730999,-0.1270931,-0.03026511,1.033329,0.06425072,-0.01552685,1.200943,0.07222005,-0.3381689,1.177794,-0.1186465,0.1453876,1.174782,-0.01435506,-0.3279052,1.141523,-0.2061357,-0.0784652,1.059398,0.3086367,-0.07467851,1.188206,NA,NA,Unknown,NotTracked,
-0.06201172,-0.902832,0.4741211,0.6699219,0.6450195,0.6831055,-3,-1,-2,-2,-4,-10,-9,-5,-2,1,4,1,-6,-5,-23,-6,-9.1875,-9.1875,-9.1875,-68.125,-68.125,-68.125,3.079875,5.133099,8.01277,6.262605,4.154592,5.047047,0.09990294,-0.03491545,0.8846307,0.1587315,-0.2662263,0.9623634,0.0691148,0.4459661,1.187442,0.07078437,0.01005443,0.8745799,0.1758138,-0.2511943,0.9169,0.0639595,-0.01584148,1.200872,0.07127663,-0.3387402,1.177105,-0.1191573,0.1450989,1.17492,-0.01522799,-0.3282207,1.14002,-0.206259,-0.07854687,1.058541,0.2902574,-0.08334746,1.180334,NA,NA,Unknown,NotTracked,
-0.1171875,-0.9467773,0.3881836,0.6103516,0.6806641,0.6015625,-1,0,-2,0,0,-8,3,-2,0,4,1,1,15,1,2,1,7.5,7.5,7.5,47,47,47,3.087102,5.129056,7.986155,6.287445,4.138861,5.040527,0.1005609,-0.03520487,0.8873584,0.1592088,-0.2712869,0.954982,0.06923524,0.4460505,1.187312,0.071741,0.009123754,0.8776755,0.1299853,-0.3030088,1.019,0.06377447,-0.01592728,1.200816,0.07057284,-0.3387266,1.17679,-0.1194297,0.1449279,1.174983,-0.01590784,-0.3277294,1.139215,-0.2064246,-0.07903815,1.057486,0.2856315,-0.09157614,1.17707,NA,NA,Unknown,Closed,
-0.1044922,-0.9570313,0.3764648,0.5019531,0.6611328,0.5751953,-2,0,3,-5,-8,-3,0,-4,-2,-3,-4,-2,-5,1,-14,2,1.4375,1.4375,1.4375,-15.125,-15.125,-15.125,3.094197,5.136257,7.976674,6.313941,4.157248,5.032704,0.1026899,-0.03533147,0.8874258,0.1581499,-0.2683088,0.9505274,0.06948644,0.4460746,1.187065,0.07381011,0.009603115,0.8769292,0.1320488,-0.3091451,1.021,0.06356382,-0.01615794,1.200665,0.07010598,-0.3390235,1.17647,-0.1196541,0.1447834,1.17491,-0.01638385,-0.3277416,1.138387,-0.2064165,-0.07959257,1.056695,0.2837071,-0.09512459,1.174168,NA,NA,Unknown,Closed,
-0.07177734,-0.9804688,0.3779297,0.4882813,0.6191406,0.5639648,1,2,-1,0,-1,0,-1,-1,-1,1,1,-2,-2,-3,-6,-7,6.375,6.375,6.375,9.9375,9.9375,9.9375,3.09919,5.141217,7.979613,6.308016,4.157752,5.029255,0.1033069,-0.03504672,0.8857374,0.1567077,-0.2686298,0.9476572,0.06971879,0.4461173,1.186589,0.07473388,0.009973219,0.8775098,0.1263245,-0.2942784,0.9734444,0.06316483,-0.01642276,1.200279,0.06939569,-0.3393228,1.175866,-0.1198816,0.1446451,1.174793,-0.01702797,-0.327727,1.137448,-0.2060316,-0.07998283,1.056012,0.2828707,-0.09653107,1.172118,NA,NA,Unknown,Closed,
-0.07421875,-0.9614258,0.3818359,0.4833984,0.6118164,0.546875,0,2,-2,-5,2,-2,-2,-6,0,0,-1,-1,0,2,-2,-3,1.75,1.75,1.75,-7.6875,-7.6875,-7.6875,3.103788,5.141863,7.985586,6.312352,4.141388,5.017696,0.1033445,-0.03525653,0.8853159,0.1587016,-0.2704497,0.9457411,0.06976178,0.4460284,1.186022,0.07529607,0.01053762,0.877691,0.1259807,-0.3016368,0.954,0.06284688,-0.01668465,1.199841,0.06875036,-0.3396404,1.175297,-0.118725,0.1452011,1.172419,-0.01760539,-0.32775,1.13666,-0.2058457,-0.08029883,1.055962,0.2821175,-0.09801728,1.169894,NA,NA,Unknown,Closed,
-0.05566406,-0.9233398,0.3793945,0.496582,0.6162109,0.4985352,1,-2,-1,0,-4,-6,-2,1,-1,0,-1,-1,1,-1,1,1,3.125,3.125,3.125,1.3125,1.3125,1.3125,3.108927,5.135226,7.995587,6.335742,4.075054,4.97807,0.1018858,-0.03887159,0.8840644,0.1603232,-0.2803866,0.9482055,0.06952878,0.4460018,1.185314,0.0737502,0.007669186,0.8763294,0.1354512,-0.3282087,0.995,0.06222387,-0.01708893,1.198879,0.06767047,-0.3400207,1.174143,-0.1171748,0.1456279,1.169941,-0.01867799,-0.3276861,1.135161,-0.2058883,-0.0806261,1.056817,0.2817349,-0.09893566,1.169331,NA,NA,Unknown,Closed,
-0.03076172,-0.8686523,0.3896484,0.5996094,0.6142578,0.4697266,0,-2,0,2,0,-2,-3,0,-2,-1,0,0,-2,0,1,1,3.3125,3.3125,3.3125,2.625,2.625,2.625,3.119748,5.105939,8.011074,6.372166,3.989221,4.925878,0.09968997,-0.04873487,0.8825864,0.1668934,-0.3004155,0.9456546,0.06918818,0.4459595,1.184825,0.07575741,-0.001674008,0.8736666,0.1788575,-0.2920995,0.9001001,0.06148346,-0.017467,1.19781,0.06623313,-0.3403423,1.172668,-0.1166222,0.1456389,1.168609,-0.0202094,-0.3276889,1.133589,-0.2062388,-0.08119865,1.058131,0.2818893,-0.09894258,1.169326,NA,NA,Unknown,Closed,
0.05322266,-0.7802734,0.3979492,0.6206055,0.5776367,0.4355469,-1,-1,-4,-3,0,1,0,0,0,-2,1,0,-1,0,-2,0,12.5625,12.5625,12.5625,0.75,0.75,0.75,3.14888,4.998327,8.042259,6.41519,3.882717,4.864037,0.09328033,-0.07535484,0.8828835,0.1758829,-0.3261979,0.9662293,0.06889645,0.4459887,1.184529,0.07209817,-0.03085679,0.8670334,0.1918181,-0.314143,0.9119743,0.06091401,-0.01762521,1.19662,0.0653852,-0.3405536,1.170747,-0.116359,0.1456073,1.167936,-0.02127951,-0.327493,1.131474,-0.2088361,-0.08346081,1.069705,0.2831667,-0.09799928,1.169764,NA,NA,Unknown,Closed,
0.1230469,-0.7543945,0.378418,0.675293,0.4238281,0.300293,-1,-2,0,-3,-1,3,-2,0,1,-2,-1,0,-2,-1,0,-1,16.5625,16.5625,16.5625,-5.25,-5.25,-5.25,3.178677,4.845957,8.085258,6.484224,3.701234,4.738629,0.08733964,-0.1237707,0.8827349,0.2020342,-0.3429061,0.9705934,0.06862579,0.4460207,1.184112,0.07092674,-0.07697077,0.8666667,0.2018654,-0.3420464,0.9219999,0.0602292,-0.01832317,1.195045,0.06599573,-0.3419863,1.168548,-0.1163482,0.1453656,1.167184,-0.02103574,-0.3291675,1.129276,-0.2091115,-0.08563321,1.077533,0.2853752,-0.09583496,1.171866,NA,NA,Unknown,Closed,
0.2158203,-0.7788086,0.3837891,0.8447266,0.4799805,0.3242188,-1,-1,-1,-12,-2,-1,-1,-2,-2,-1,0,0,-2,-1,-1,0,15.4375,15.4375,15.4375,23.625,23.625,23.625,3.198641,4.61269,8.13691,6.635632,3.549119,4.58225,0.07626607,-0.1978584,0.8900725,0.2298961,-0.3602896,0.9908653,0.06845076,0.4461586,1.183585,0.08740755,-0.1598242,0.934,0.2415705,-0.3754174,0.9462667,0.06102474,-0.01922408,1.194041,0.0675218,-0.3439706,1.167508,-0.1164185,0.1451052,1.166568,-0.01899387,-0.3318576,1.128449,-0.2019681,-0.09224869,1.078105,0.2822261,-0.1025053,1.172943,NA,NA,Unknown,Unknown,
0.4101563,-0.8251953,0.3535156,0.9443359,0.5336914,0.2016602,-2,-2,-2,4,-2,0,-2,-2,0,-1,1,1,0,-1,-2,-1,8.5625,8.5625,8.5625,-17.5625,-17.5625,-17.5625,3.18148,4.219949,8.235748,6.802799,3.403512,4.382356,0.03543805,-0.2745095,0.9104407,0.25261,-0.3918149,1.005583,0.06847589,0.4461702,1.182642,0.06462982,-0.2447714,0.9778462,0.2875078,-0.3876757,0.9919168,0.06324915,-0.02051985,1.193608,0.07465633,-0.3475639,1.169303,-0.1166462,0.1445889,1.165831,-0.01315987,-0.3373484,1.130666,-0.1949519,-0.1005705,1.080774,0.2827824,-0.1068275,1.174083,NA,NA,Unknown,Unknown,
0.7495117,-0.8085938,0.331543,0.9658203,0.4648438,0.1337891,1,0,0,1,-3,-3,-1,-1,-2,0,0,1,-2,0,-1,-2,3,3,3,-22.25,-22.25,-22.25,3.117876,3.886317,8.355116,7.004773,3.253538,4.085096,-0.02273036,-0.336969,0.9357515,0.2772805,-0.4029842,1.03159,0.06882012,0.4464783,1.181329,-0.005939343,-0.3059933,0.9555262,0.3008226,-0.4071209,1.0056,0.0700231,-0.0214736,1.190402,0.09037296,-0.3491102,1.165584,-0.1169478,0.1438504,1.165143,0.0009016515,-0.3404255,1.126902,-0.1723642,-0.09600987,1.123895,0.2838134,-0.1138214,1.174712,NA,NA,Unknown,Unknown,
0.8032227,-0.6845703,0.2636719,0.9604492,0.4121094,0.140625,-1,0,-1,1,-1,-1,0,0,0,0,0,0,-1,-1,0,-1,29.25,29.25,29.25,-23.6875,-23.6875,-23.6875,3.027246,3.565163,8.535842,7.142117,3.184544,3.889086,-0.07692719,-0.3862009,0.9756215,0.2896889,-0.416341,1.05154,0.06961078,0.4468386,1.179086,-0.04848312,-0.3659597,0.9868638,0.3181867,-0.4154446,1.029762,0.07208773,-0.02207849,1.188596,0.09286135,-0.3497643,1.164162,-0.1172454,0.1432309,1.164483,0.00347556,-0.341248,1.125489,-0.1713896,-0.0970996,1.125085,0.2847431,-0.1215102,1.175811,NA,NA,Unknown,Unknown,
0.9946289,-0.5537109,0.1206055,0.9282227,0.4189453,0.1621094,-1,-1,0,0,-2,1,-2,0,-3,-2,-1,-2,-1,-3,-1,-2,71.6875,71.6875,71.6875,-14.3125,-14.3125,-14.3125,2.72125,3.196471,9.02311,7.231864,3.149346,3.755692,-0.1199447,-0.4329828,1.012027,0.2989518,-0.42553,1.068067,0.07044614,0.4469251,1.176232,-0.08417588,-0.4178614,1.023438,0.3348636,-0.4181448,1.051,0.07180625,-0.02282781,1.187552,0.09115016,-0.3513981,1.16377,-0.1175265,0.1426017,1.163866,0.002506232,-0.3422595,1.125403,-0.1672308,-0.1059809,1.128762,0.2862015,-0.1248436,1.177446,NA,NA,Unknown,NotTracked,
1.066895,-0.4599609,-0.07910156,0.8930664,0.4360352,0.1489258,-2,-2,1,1,2,0,0,-2,-1,0,-1,-1,-1,0,0,0,89.5,89.5,89.5,-25,-25,-25,2.308039,3.030401,9.621439,7.271803,3.139,3.661608,-0.1554649,-0.4568796,1.050909,0.3049357,-0.4297026,1.078463,0.07162151,0.4470892,1.173143,-0.1138228,-0.4383291,1.058188,0.3352992,-0.4255105,1.049812,0.07105426,-0.0239385,1.186292,0.08763876,-0.3538798,1.163881,-0.1176245,0.1423118,1.163582,2.705894E-05,-0.3441779,1.125773,-0.1630697,-0.1156446,1.13405,0.2881601,-0.126643,1.1792,NA,NA,Unknown,NotTracked,
1.025879,-0.3886719,-0.1577148,0.8989258,0.4116211,0.128418,-1,-1,-2,-1,0,-1,1,0,-1,0,-2,-1,0,-1,-2,-1,100.1875,100.1875,100.1875,-28.1875,-28.1875,-28.1875,2.05434,2.974104,0.003580044,7.238639,3.145783,3.640938,-0.180349,-0.4541848,1.081865,0.3085696,-0.4343876,1.080937,0.0726746,0.4470161,1.168698,-0.1384911,-0.4515409,1.063437,0.3431704,-0.447007,1.0654,0.07079411,-0.02452881,1.185364,0.08697635,-0.3544224,1.16404,-0.1176495,0.1421734,1.163391,-0.0004529856,-0.344552,1.125966,-0.16364,-0.1205042,1.140078,0.289783,-0.1278798,1.180663,NA,NA,NotTracked,NotTracked,
0.9921875,-0.2646484,-0.02978516,0.9082031,0.4116211,0.1210938,0,-1,0,0,-2,0,0,-2,-1,-1,-2,-2,-1,-1,1,0,33.0625,33.0625,33.0625,-17.3125,-17.3125,-17.3125,1.818293,2.933199,0.405086,7.185217,3.159915,3.659049,-0.187569,-0.452496,1.101077,0.3102743,-0.4340265,1.079172,0.07388993,0.4468998,1.164314,-0.1489976,-0.4492049,1.081826,0.3490815,-0.4274721,1.05924,0.07100273,-0.02475071,1.184422,0.08692317,-0.3544725,1.16408,-0.115839,0.1419883,1.159132,-0.0004986897,-0.3446074,1.126046,-0.1676113,-0.1243593,1.149472,0.2908426,-0.1281542,1.181307,NA,NA,NotTracked,NotTracked,
0.9375,-0.4033203,0.1386719,0.9038086,0.4135742,0.1132813,-2,-1,-1,0,-1,-1,0,-1,-1,0,1,-1,-1,-2,0,-1,6.625,6.625,6.625,4.125,4.125,4.125,1.931677,2.919718,0.3070795,7.110137,3.18559,3.731311,-0.1857249,-0.4493496,1.109749,0.3082801,-0.4334133,1.073636,0.07497437,0.4464798,1.160693,-0.1466922,-0.4462599,1.086571,0.3457052,-0.4323994,1.057487,0.0715909,-0.02505765,1.183627,0.08705907,-0.3545918,1.164231,-0.114622,0.1419402,1.157229,-0.0003012578,-0.3447857,1.126369,-0.1710524,-0.1270535,1.158998,0.291147,-0.1281149,1.181381,NA,NA,NotTracked,NotTracked,
0.8901367,-0.3798828,0.08886719,0.9091797,0.4204102,0.1162109,0,0,0,-1,-1,0,-1,-1,-1,-1,-1,-1,-3,-2,-2,-2,29.0625,29.0625,29.0625,8.75,8.75,8.75,2.172662,2.930164,0.1044541,7.061329,3.208028,3.798952,-0.1772251,-0.4460442,1.107864,0.3046104,-0.4281495,1.06462,0.07602786,0.4459906,1.157339,-0.1375711,-0.4325663,1.094842,0.327812,-0.4307806,1.02425,0.07218427,-0.02544037,1.182704,0.08710429,-0.3546298,1.164323,-0.1144217,0.1419693,1.157944,-0.0002150697,-0.3448756,1.126652,-0.1713134,-0.1283422,1.164043,0.2913654,-0.128252,1.180958,NA,NA,NotTracked,NotTracked,
0.9301758,-0.359375,0.03076172,0.9345703,0.4272461,0.1113281,-1,-2,-3,0,-1,0,-1,-3,-1,-4,-2,-1,-1,-1,-3,-1,36.875,36.875,36.875,10.6875,10.6875,10.6875,2.485373,2.971331,9.863554,7.026253,3.227904,3.859895,-0.164256,-0.4401157,1.100602,0.3012281,-0.4264781,1.055472,0.0768785,0.4454181,1.155575,-0.1230314,-0.4182064,1.099125,0.3215483,-0.4256578,1.014914,0.07240705,-0.02584979,1.182359,0.08700591,-0.3548728,1.164656,-0.114876,0.1420075,1.159768,-0.000270367,-0.3451893,1.12736,-0.1675756,-0.1255637,1.169468,0.2915658,-0.1283162,1.179442,NA,NA,NotTracked,NotTracked,
0.9384766,-0.3183594,-0.001953125,0.9091797,0.4121094,0.08886719,1,0,0,0,-1,-2,1,1,-2,0,-2,-1,-2,-1,-2,-1,23.3125,23.3125,23.3125,7.25,7.25,7.25,2.689132,3.014251,9.70024,6.99452,3.244916,3.915871,-0.1466086,-0.4335793,1.090024,0.2954501,-0.4231901,1.046729,0.07747874,0.4448994,1.154509,-0.105351,-0.425887,1.067722,0.3282533,-0.4241626,1.023917,0.07250725,-0.02616162,1.182225,0.08664867,-0.3551631,1.165021,-0.1147909,0.1418823,1.160718,-0.0006705138,-0.3455431,1.128213,-0.1634299,-0.1230233,1.172693,0.2910784,-0.1286978,1.176907,NA,NA,NotTracked,NotTracked,
