ALX,ALY,ALZ,ARX,ARY,ARZ,EMG0L,EMG1L,EMG2L,EMG3L,EMG4L,EMG5L,EMG6L,EMG7L,EMG0R,EMG1R,EMG2R,EMG3R,EMG4R,EMG5R,EMG6R,EMG7R,GLX,GLY,GLZ,GRX,GRY,GRZ,ORL,OPL,OYL,ORR,OPR,OYR,LHNX,LHNY,LHNZ,RHNX,RHNY,RHNZ,HX,HY,HZ,LTX,LTY,LTZ,RTX,RTY,RTZ,SpineMidX,SpineMidY,SpineMidZ,SpineBaseX,SpineBaseY,SpineBaseZ,ShoulderLeftX,ShoulderLeftY,ShoulderLeftZ,ShoulderRightX,ShoulderRightY,ShoulderRightZ,ElbowLeftX,ElbowLeftY,ElbowLeftZ,ElbowRightX,ElbowRightY,ElbowRightZ,Myo_Pose_left,Myo_Pose_Right,Kinect_pose_left,Kinect_pose_right
0.9003906,-0.3930664,0.07128906,0.8847656,0.4326172,0.1010742,-1,-1,-2,0,0,-2,-2,-2,-2,0,0,-2,0,0,4,1,-0.4375,-0.4375,-0.4375,-4.3125,-4.3125,-4.3125,2.766793,3.156943,9.418369,7.108121,3.25702,4.70736,-0.1173784,-0.4433857,1.054729,0.2791404,-0.4163111,1.046293,0.06301679,0.442495,1.190778,-0.07724495,-0.413456,1.065737,0.3126372,-0.4204213,1.033183,0.06962651,-0.03042568,1.201136,0.08489982,-0.3590963,1.176984,-0.1285259,0.1314051,1.162333,-0.002314574,-0.3510206,1.142999,-0.1512866,-0.1214879,1.166902,0.2844798,-0.1313813,1.169548,NA,NA,NotTracked,Unknown,
0.9067383,-0.3847656,0.06445313,0.8793945,0.4301758,0.1123047,0,-2,-1,-2,-1,0,-1,0,-2,-2,-4,-3,-1,-1,-3,2,1,1,1,-4.875,-4.875,-4.875,2.773174,3.161335,9.415036,7.100214,3.259946,4.706847,-0.1169392,-0.4422577,1.054414,0.2784939,-0.4171579,1.044531,0.06231391,0.4426031,1.191955,-0.07527803,-0.4349725,1.04132,0.3091535,-0.4241861,1.02579,0.06946418,-0.03049269,1.201041,0.08473957,-0.3591743,1.176418,-0.1288914,0.1313893,1.161858,-0.002462603,-0.3511098,1.142527,-0.151496,-0.12153,1.166611,0.2842969,-0.1311721,1.169236,NA,NA,NotTracked,Unknown,
0.9057617,-0.3901367,0.07373047,0.8833008,0.4438477,0.1025391,1,-1,0,0,-3,-1,0,-2,-2,-2,-3,-2,-2,-2,-2,0,1.4375,1.4375,1.4375,-3.1875,-3.1875,-3.1875,2.777434,3.164233,9.413154,7.098369,3.26097,4.702456,-0.1172754,-0.440879,1.05311,0.2785195,-0.4163669,1.044532,0.06184431,0.4427009,1.192782,-0.07508951,-0.4282489,1.051383,0.3139614,-0.4273376,1.0316,0.0692395,-0.03054981,1.20086,0.08463709,-0.3592924,1.175589,-0.1277401,0.1299847,1.166517,-0.002579499,-0.3512539,1.141733,-0.1515661,-0.1215042,1.166317,0.2841174,-0.1308266,1.168783,NA,NA,NotTracked,Unknown,
0.894043,-0.4008789,0.06982422,0.8740234,0.4360352,0.1069336,-1,-1,1,0,-1,0,-1,1,0,-1,0,1,-1,-3,-3,-2,1.9375,1.9375,1.9375,-2.0625,-2.0625,-2.0625,2.779433,3.167125,9.414739,7.096668,3.260703,4.699336,-0.1166783,-0.4397281,1.052184,0.2793373,-0.4171227,1.043661,0.06143441,0.4426637,1.19342,-0.07695558,-0.4131528,1.061816,0.3151031,-0.4134883,1.036765,0.06897864,-0.03064415,1.200567,0.08439951,-0.3594521,1.174625,-0.1287839,0.1303385,1.1642,-0.002846052,-0.3514523,1.14083,-0.1515628,-0.1218071,1.165842,0.2837048,-0.1308129,1.168215,NA,NA,NotTracked,Unknown,
0.9086914,-0.4033203,0.06494141,0.9008789,0.4570313,0.1035156,1,1,0,-2,-3,0,0,-2,-2,-2,-1,0,-1,-2,0,-2,0.4375,0.4375,0.4375,-2.5625,-2.5625,-2.5625,2.780078,3.169377,9.416441,7.097157,3.262473,4.69712,-0.116684,-0.4397554,1.052062,0.279879,-0.4173606,1.04414,0.06110186,0.4427695,1.194541,-0.07427035,-0.4348561,1.039261,0.2987644,-0.4175605,1.013822,0.06876433,-0.03076606,1.200363,0.08418411,-0.3595332,1.174007,-0.1292254,0.1305301,1.163018,-0.003103577,-0.3515887,1.140064,-0.1514788,-0.1221939,1.165211,0.283691,-0.130892,1.167807,NA,NA,NotTracked,Unknown,
0.9179688,-0.4296875,0.07373047,0.9584961,0.4848633,0.09179688,-2,0,-1,-2,0,1,1,-3,-4,7,34,2,1,-1,-3,-4,1.4375,1.4375,1.4375,-5.25,-5.25,-5.25,2.795677,3.176925,9.398854,7.07044,3.280763,4.716995,-0.1155056,-0.4388109,1.04987,0.2784567,-0.4168023,1.04295,0.06093378,0.4427509,1.195104,-0.07272079,-0.4323868,1.03665,0.2952088,-0.4037965,1.014485,0.0686231,-0.03083733,1.200189,0.08405659,-0.3597371,1.173278,-0.1287433,0.1298014,1.165652,-0.003268441,-0.3517989,1.139353,-0.15164,-0.1221496,1.164874,0.2836875,-0.131065,1.167364,NA,NA,NotTracked,Unknown,
0.96875,-0.4399414,0.04101563,1.07373,0.4936523,0.2080078,-2,1,-2,-11,-8,-7,-6,-3,-15,-3,6,2,-1,0,-2,-9,-47.6875,-47.6875,-47.6875,-31.5625,-31.5625,-31.5625,2.869157,3.222906,9.274491,6.917592,3.341596,4.837077,-0.1096831,-0.4314145,1.0435,0.2732587,-0.4125205,1.035919,0.0607281,0.4426741,1.195544,-0.07372613,-0.4307095,1.013667,0.3077197,-0.4215915,1.026777,0.06835799,-0.03085428,1.199935,0.08393368,-0.3596675,1.172452,-0.1296609,0.1304116,1.163628,-0.003451918,-0.3516862,1.138538,-0.15194,-0.1219498,1.164241,0.2836341,-0.131393,1.167292,NA,NA,NotTracked,Unknown,
0.9521484,-0.6303711,0.2050781,1.000977,0.6538086,0.4384766,0,0,-4,-20,-3,-3,6,0,1,-7,-11,-1,9,13,-4,0,-34.4375,-34.4375,-34.4375,17.3125,17.3125,17.3125,2.98506,3.350982,9.061589,6.726247,3.500146,5.070948,-0.0958683,-0.4092782,1.031981,0.259573,-0.396663,1.013253,0.0606006,0.4427896,1.195993,-0.05968518,-0.4004984,0.9923,0.2319372,-0.434953,1.0318,0.06822899,-0.03063376,1.199595,0.08400377,-0.3589329,1.171268,-0.1301911,0.1310154,1.162464,-0.003640673,-0.3508225,1.137237,-0.1552804,-0.1190609,1.162903,0.2851819,-0.1278726,1.170377,NA,NA,Unknown,Unknown,
0.7973633,-0.6733398,0.3056641,0.7294922,0.8447266,0.5625,-1,-1,5,22,11,0,-3,3,4,22,-3,-14,-37,-3,14,2,-50.3125,-50.3125,-50.3125,-30.375,-30.375,-30.375,3.114033,3.54721,8.824885,6.503442,3.89478,5.344772,-0.07345586,-0.3557684,1.016687,0.2319963,-0.3470319,0.9756148,0.06057119,0.4428647,1.196125,-0.04897658,-0.3339987,1.042133,0.2606596,-0.3764006,0.9603333,0.06844506,-0.02981383,1.19867,0.08531683,-0.356444,1.168513,-0.1305524,0.1315904,1.161604,-0.003155607,-0.3476789,1.134001,-0.1639025,-0.1099594,1.161261,0.2874535,-0.1206613,1.174345,NA,NA,Unknown,Unknown,
0.7016602,-0.8461914,0.3745117,0.4345703,0.7416992,0.5952148,-2,0,-3,-18,-10,2,5,-1,2,20,5,-1,15,-14,-20,-8,-40.375,-40.375,-40.375,-35.625,-35.625,-35.625,3.180852,3.805529,8.621029,6.374112,4.279545,5.461598,-0.03522937,-0.3203551,0.9869659,0.1971642,-0.2750476,0.9273028,0.06064004,0.4428412,1.196001,-0.0426148,-0.3558874,0.9935,0.213653,-0.2574905,0.8837419,0.06770363,-0.02896606,1.197158,0.08236916,-0.3546557,1.165567,-0.1304972,0.1322008,1.16067,-0.007587424,-0.3452299,1.130613,-0.1712574,-0.09947041,1.15882,0.2894171,-0.105385,1.176861,NA,NA,Unknown,Unknown,
0.4614258,-0.7783203,0.4169922,0.3359375,0.7695313,0.6313477,1,-2,-3,-20,3,2,14,5,0,-1,-4,3,1,1,-3,0,-21.1875,-21.1875,-21.1875,-13.9375,-13.9375,-13.9375,3.259099,4.183643,8.40885,6.330049,4.69686,5.519282,0.024028,-0.27303,0.969294,0.1751769,-0.1798091,0.8901204,0.06081183,0.4428375,1.195879,-0.006330659,-0.3260828,1.020484,0.201012,-0.1624749,0.8668668,0.06616065,-0.02863579,1.197174,0.0772018,-0.3543552,1.166932,-0.130402,0.1327611,1.160004,-0.01104684,-0.3446676,1.131802,-0.1742457,-0.0985641,1.154683,0.2921954,-0.08448975,1.174962,NA,NA,NotTracked,Closed,
0.3911133,-0.7910156,0.425293,0.09228516,0.7094727,0.6206055,1,0,-2,-42,-2,-6,-2,4,2,1,17,6,-3,-5,1,-2,-13.5,-13.5,-13.5,-10.6875,-10.6875,-10.6875,3.270696,4.440789,8.317048,6.314627,5.137778,5.580878,0.07233153,-0.2215018,0.9346067,0.1634283,-0.0721819,0.8684275,0.06108612,0.4427623,1.195622,0.103103,-0.1920658,0.99225,0.1771488,-0.04383452,0.859,0.06556114,-0.02857233,1.197453,0.07590011,-0.3544584,1.168254,-0.1298933,0.1336476,1.158894,-0.01159929,-0.3447526,1.133145,-0.1794819,-0.09684883,1.14375,0.2942518,-0.08331686,1.163352,NA,NA,NotTracked,NotTracked,
0.2885742,-0.7636719,0.434082,-0.296875,0.5825195,0.5185547,-1,-1,-4,-51,-1,-2,-11,0,8,4,-20,-9,-9,-4,-3,-1,-19.1875,-19.1875,-19.1875,1.8125,1.8125,1.8125,3.264659,4.643308,8.253853,6.335592,5.740728,5.668996,0.07871302,-0.1709304,0.9240366,0.1603705,0.03640141,0.892872,0.06172128,0.4427764,1.195328,0.06689534,-0.2272617,0.9837778,0.1222381,0.05857706,0.9104286,0.06279045,-0.02740476,1.197176,0.07481018,-0.3538371,1.168747,-0.1292982,0.1345234,1.157822,-0.01210132,-0.3443124,1.13375,-0.2067731,-0.105081,1.12822,0.2667657,-0.09507834,1.097249,NA,NA,Unknown,NotTracked,
0.2026367,-0.7768555,0.4526367,-0.5043945,0.4682617,0.3774414,1,-1,1,-12,3,3,-9,-1,-1,3,2,-3,3,-1,-2,-7,-16.25,-16.25,-16.25,9.6875,9.6875,9.6875,3.238407,4.811929,8.207106,6.396105,6.1412,5.749708,0.09133209,-0.1403584,0.9152363,0.1648983,0.1265822,0.9339756,0.06230926,0.4427249,1.195104,0.1162904,-0.1084168,0.9553334,0.138422,0.1298664,0.9931251,0.06126098,-0.02737165,1.196924,0.07389604,-0.3544245,1.168807,-0.1286103,0.1351025,1.156761,-0.01332242,-0.3448691,1.134431,-0.2064103,-0.1069969,1.113871,0.2696692,-0.08782523,1.089281,NA,NA,Unknown,Unknown,
0.1357422,-0.8413086,0.46875,-0.6254883,0.3764648,0.2841797,-3,-2,-6,-17,3,3,-8,-6,3,-6,-1,-4,-2,0,10,1,-16.6875,-16.6875,-16.6875,-6.3125,-6.3125,-6.3125,3.218988,4.879083,8.18581,6.500491,6.50405,5.872283,0.08459566,-0.1216094,0.9115495,0.1676405,0.1886766,0.9714878,0.06217569,0.4428121,1.194889,0.07746262,-0.07024456,0.897074,0.1432173,0.1791027,1.015474,0.06030254,-0.02608928,1.19664,0.07272269,-0.3526756,1.168969,-0.1282565,0.1358684,1.155813,-0.01491904,-0.3432477,1.135661,-0.2108405,-0.1024975,1.112373,0.2611019,-0.07405783,1.056223,NA,NA,Unknown,Unknown,
0.08642578,-0.8745117,0.4765625,-0.5288086,0.3466797,0.3310547,0,0,-3,-12,-3,4,2,2,-2,-3,-4,-2,-3,-1,-3,6,-11.5625,-11.5625,-11.5625,-6.0625,-6.0625,-6.0625,3.204288,4.920435,8.170625,6.54031,6.619722,5.934847,0.08359725,-0.1103999,0.9090468,0.1738876,0.2062606,0.9973063,0.0620471,0.4428384,1.194661,0.07750113,-0.05897561,0.8970385,0.149466,0.1948619,1.0373,0.06059132,-0.02447784,1.196136,0.0715661,-0.3494049,1.169018,-0.1278825,0.1367314,1.154962,-0.01623966,-0.340363,1.13631,-0.2136661,-0.09526534,1.111666,0.2649065,-0.07420558,1.064026,NA,NA,Unknown,Closed,
0.04150391,-0.9023438,0.4589844,-0.3173828,0.2509766,0.6035156,3,-2,0,-2,-6,1,3,4,2,5,6,-1,0,4,11,6,-8.5,-8.5,-8.5,-18.125,-18.125,-18.125,3.192689,4.951828,8.161143,6.46912,6.583774,5.88554,0.08540436,-0.1025479,0.9064306,0.1716069,0.2073732,1.001153,0.06182596,0.4429786,1.194104,0.07969036,-0.05200173,0.8963078,0.1480363,0.1940865,1.047944,0.06066896,-0.02281407,1.195922,0.07070726,-0.3471506,1.16903,-0.1276184,0.1374099,1.154323,-0.01727323,-0.3381857,1.136599,-0.2159085,-0.09064878,1.106545,0.2665781,-0.07432842,1.068447,NA,NA,Unknown,Closed,
-0.007324219,-0.9267578,0.4594727,-0.4277344,0.46875,0.4492188,-1,-2,-1,-27,6,5,-6,-2,-10,-45,-1,1,-2,-2,-4,-7,-1.4375,-1.4375,-1.4375,-20.25,-20.25,-20.25,3.190467,4.99109,8.154414,6.378885,6.361237,5.807888,0.08976576,-0.09415954,0.9033892,0.1655507,0.1914687,0.9861004,0.06154063,0.4429479,1.193667,0.07677222,-0.04431013,0.8923103,0.1421612,0.1888341,1.033688,0.0597655,-0.02209443,1.195724,0.07030674,-0.3465396,1.168972,-0.1275588,0.1378094,1.15387,-0.01776959,-0.3376278,1.136726,-0.2138315,-0.08991775,1.102746,0.2665627,-0.07633618,1.073176,NA,NA,Unknown,Closed,
-0.01171875,-0.987793,0.456543,-0.4326172,0.559082,0.5463867,1,2,0,6,1,4,12,5,-7,2,-4,-9,2,-2,-3,-5,2.25,2.25,2.25,-45.1875,-45.1875,-45.1875,3.191288,5.02359,8.163015,6.296643,6.060054,5.77038,0.08300814,-0.08300867,0.8983237,0.164112,0.1330744,0.9658467,0.06131685,0.4429224,1.193166,0.07709449,-0.03018058,0.897,0.1376495,0.1335953,1.0129,0.05876597,-0.02222025,1.195526,0.0699908,-0.3467712,1.1689,-0.1276465,0.1379845,1.153606,-0.01799924,-0.3376939,1.136721,-0.2206712,-0.09662137,1.111091,0.266201,-0.08452629,1.082973,NA,NA,NotTracked,Unknown,
-0.01757813,-1.03418,0.4316406,-0.6289063,0.5151367,0.4370117,0,-1,-6,-7,-1,-5,-13,-6,-6,-5,1,1,0,5,-2,7,-13.375,-13.375,-13.375,-53.3125,-53.3125,-53.3125,3.175889,5.087101,8.184374,6.204309,5.609028,5.770809,0.08995193,-0.06652353,0.8920985,0.007056108,-0.07791179,0.91541,0.06093097,0.4429278,1.192544,0.06810995,-0.01783819,0.8846667,0.03439002,-0.09007084,0.8755001,0.05872285,-0.02235617,1.195536,0.06986415,-0.3462621,1.168951,-0.1276477,0.1380251,1.153299,-0.01782818,-0.3370459,1.136416,-0.2035137,-0.09919803,1.073874,0.2626283,-0.0826957,1.09345,NA,NA,NotTracked,NotTracked,
-0.07568359,-0.9311523,0.4150391,-0.2646484,0.559082,0.425293,0,2,0,-34,-2,4,1,5,6,7,2,-1,-10,-8,14,13,6.75,6.75,6.75,17.8125,17.8125,17.8125,3.176774,5.150629,8.199338,6.190286,5.002992,5.790379,0.08469632,-0.04993932,0.8862577,0.04665866,-0.04687408,0.8952022,0.05964088,0.4429293,1.191794,0.05990246,-0.008039481,0.8741786,0.0608049,-0.0006931224,0.8763201,0.05863787,-0.02207503,1.195483,0.06966511,-0.3444303,1.169137,-0.1277036,0.1381086,1.153082,-0.01750433,-0.3352759,1.135798,-0.2027178,-0.0837234,1.077496,0.2883419,-0.08355153,1.147792,NA,NA,NotTracked,NotTracked,
-0.137207,-0.8510742,0.4458008,0.7280273,0.8105469,0.7382813,2,1,4,-7,4,-4,-11,-1,2,3,2,2,-4,-8,15,12,-8.4375,-8.4375,-8.4375,11.8125,11.8125,11.8125,3.171973,5.218523,8.207052,6.290392,4.324985,5.811703,0.08105358,-0.03041793,0.8825521,0.03843998,-0.03401768,0.8931702,0.05832288,0.4430425,1.191121,0.05633125,0.007959871,0.8755162,0.05338557,0.01336141,0.8731112,0.05824547,-0.02169715,1.195387,0.06958342,-0.3437482,1.169228,-0.1278195,0.1383246,1.152815,-0.01730414,-0.3344514,1.13549,-0.2031575,-0.08567,1.075202,0.2882051,-0.08300249,1.155718,NA,NA,NotTracked,NotTracked,
-0.1069336,-0.8417969,0.4838867,0.7368164,1.457031,0.9560547,3,0,6,31,-1,-1,6,3,6,17,18,-5,-2,9,6,8,-9.1875,-9.1875,-9.1875,44.8125,44.8125,44.8125,3.165775,5.270463,8.200708,6.414322,4.146377,5.782561,0.08607963,-0.01919673,0.8830604,-0.03176662,0.02268421,1.098126,0.05748849,0.4430849,1.190753,0.05171284,0.02601955,0.8746668,0.01131912,0.007383982,1.0559,0.05805172,-0.02180539,1.195237,0.06877302,-0.3438405,1.169199,-0.1279409,0.1385234,1.152517,-0.0177518,-0.3343106,1.135008,-0.2045526,-0.08655982,1.074424,0.2876607,-0.0865683,1.164088,NA,NA,NotTracked,NotTracked,
-0.05419922,-0.8930664,0.3793945,0.5200195,0.6069336,0.4858398,-1,-1,1,-24,5,15,6,5,6,3,-5,-3,-5,-7,17,9,-7.625,-7.625,-7.625,-23.875,-23.875,-23.875,3.146958,5.25598,8.199337,6.34065,4.16082,5.756614,0.08734218,-0.02045991,0.8836507,-0.03049188,0.02415335,1.096707,0.05710018,0.4430095,1.190018,0.05527431,0.02323817,0.8815727,-0.09908127,-0.02256714,1.106091,0.05780238,-0.02191559,1.194996,0.06790497,-0.343902,1.169166,-0.1279467,0.1388243,1.151955,-0.01842834,-0.3340838,1.134559,-0.2053891,-0.08613111,1.073474,0.2858804,-0.09000005,1.166569,NA,NA,NotTracked,NotTracked,
-0.1494141,-0.8452148,0.4082031,0.4038086,0.6401367,0.4794922,-3,-1,8,44,2,1,-10,-5,0,-7,-5,-4,0,1,11,3,-0.9375,-0.9375,-0.9375,-32.25,-32.25,-32.25,3.153647,5.235893,8.198116,6.330549,4.21355,5.712535,0.08743384,-0.02461564,0.8825827,-0.03148798,0.0218947,1.095731,0.0573239,0.4430611,1.189091,0.05220168,0.02029419,0.8760414,-0.1005643,-0.01696637,1.108657,0.0577827,-0.02188313,1.194736,0.06747981,-0.3438238,1.16912,-0.1278482,0.1391925,1.151369,-0.01878932,-0.3337332,1.134184,-0.2068286,-0.08577143,1.072978,0.283678,-0.09202984,1.166337,NA,NA,NotTracked,NotTracked,
-0.1601563,-0.9438477,0.4707031,0.4243164,0.581543,0.5615234,2,0,-3,-9,0,0,1,6,-6,-6,-7,-3,0,1,10,4,0.4375,0.4375,0.4375,-2.25,-2.25,-2.25,3.153131,5.220146,8.206081,6.318618,4.228755,5.681983,0.08627282,-0.03027856,0.8825891,-0.03130905,0.01950939,1.097254,0.05785555,0.4431034,1.188241,0.05410085,0.01526572,0.8799438,0.01716546,0.07110466,1.067,0.05783503,-0.02185278,1.194474,0.06724471,-0.3436967,1.169013,-0.1277732,0.1393833,1.151076,-0.01891259,-0.3333603,1.13377,-0.2073959,-0.08561864,1.072622,0.2828389,-0.09265737,1.165946,NA,NA,NotTracked,NotTracked,
-0.1015625,-0.9282227,0.3984375,0.5366211,0.625,0.5668945,2,0,1,-8,1,-1,-6,1,-4,1,4,-1,-2,-3,-5,-2,9.75,9.75,9.75,-4.3125,-4.3125,-4.3125,3.168029,5.19311,8.217529,6.342542,4.189908,5.634231,0.08547417,-0.03778574,0.8821585,-0.03115852,0.01687379,1.098148,0.05823464,0.4431085,1.1876,0.05366374,0.00922121,0.876087,0.01680575,0.07085212,1.066858,0.05777384,-0.02189137,1.194095,0.06670028,-0.3437113,1.168699,-0.1276988,0.1394815,1.150918,-0.01932389,-0.3331668,1.133217,-0.2081372,-0.08617017,1.073498,0.281706,-0.09357777,1.165201,NA,NA,NotTracked,NotTracked,
-0.04003906,-0.8959961,0.4150391,0.5200195,0.6235352,0.5424805,-1,-2,-1,-3,-3,-2,1,1,-1,1,1,-1,-3,-6,-10,-6,3.625,3.625,3.625,-2.5625,-2.5625,-2.5625,3.179742,5.145673,8.227178,6.355327,4.140172,5.599136,0.08353476,-0.04848147,0.8838864,-0.03043387,0.01091799,1.098292,0.05837166,0.4430487,1.187219,0.05170045,-0.00123095,0.8876666,0.0171242,0.06973922,1.06685,0.05766698,-0.02192107,1.193827,0.06590562,-0.3437327,1.168197,-0.1276524,0.1395462,1.150768,-0.02003221,-0.3329429,1.132523,-0.2091112,-0.08682677,1.074135,0.2815121,-0.09349748,1.165005,NA,NA,NotTracked,NotTracked,
0.03369141,-0.8266602,0.4326172,0.5361328,0.574707,0.4892578,1,0,-2,-3,2,-2,0,3,2,1,-2,-2,-5,-3,0,2,14.4375,14.4375,14.4375,-0.375,-0.375,-0.375,3.206275,5.052486,8.244646,6.371754,4.063266,5.566494,0.0798735,-0.06903663,0.8866258,-0.02955329,0.003573257,1.09837,0.05843313,0.442971,1.186876,0.04927953,-0.02362661,0.8774484,0.0161816,0.06901036,1.066412,0.05742522,-0.02199523,1.193496,0.06512345,-0.3438387,1.167732,-0.1276621,0.1395636,1.150682,-0.02094399,-0.3327366,1.13186,-0.2116309,-0.0895442,1.07944,0.2814262,-0.0932702,1.165037,NA,NA,NotTracked,NotTracked,
0.03759766,-0.7524414,0.4243164,0.5209961,0.581543,0.4458008,-1,2,0,5,-3,-2,-2,-2,0,0,-1,-1,0,0,-6,-2,23.125,23.125,23.125,12.375,12.375,12.375,3.24705,4.924362,8.273952,6.417158,3.959822,5.514177,0.06927934,-0.1081214,0.889533,-0.02631167,-0.002130786,1.096661,0.05834016,0.4429753,1.186567,0.04831739,-0.06196496,0.8792414,0.01807805,0.07053119,1.066579,0.05706978,-0.0222701,1.192945,0.06393966,-0.3446866,1.16652,-0.127775,0.139546,1.150637,-0.02269746,-0.3333016,1.130469,-0.2179279,-0.09516004,1.095014,0.2818211,-0.09230252,1.166215,NA,NA,Unknown,NotTracked,
0.06054688,-0.7275391,0.4296875,0.7246094,0.6879883,0.4624023,-1,1,5,8,2,-1,0,-1,-2,0,-2,-3,0,0,-3,-2,10.1875,10.1875,10.1875,-6.4375,-6.4375,-6.4375,3.272778,4.72748,8.329106,6.522251,3.747773,5.379502,0.05962233,-0.1721776,0.8933176,-0.02603602,-0.002464325,1.096308,0.05810488,0.4429298,1.186133,0.07436685,-0.1363788,0.95125,0.01967702,0.06950712,1.066591,0.05675393,-0.02276136,1.192406,0.06332037,-0.3463927,1.165349,-0.127894,0.1394701,1.150612,-0.02348693,-0.3348087,1.129429,-0.217769,-0.1006557,1.099427,0.2803845,-0.09557297,1.168492,NA,NA,Unknown,NotTracked,
0.3066406,-0.7651367,0.4082031,0.8867188,0.765625,0.2841797,-1,-1,-3,-10,-8,-3,-3,1,0,-1,-1,-2,-2,0,1,0,21.75,21.75,21.75,-23.625,-23.625,-23.625,3.2795,4.43881,8.408102,6.576775,3.616269,5.292919,0.02358261,-0.2480312,0.909138,-0.02517969,-0.002757827,1.096348,0.0576731,0.4429117,1.185764,0.06582411,-0.2371482,0.971,0.01834794,0.06990995,1.066611,0.05703626,-0.02343682,1.19259,0.06503303,-0.3485994,1.166631,-0.1282454,0.1392001,1.150694,-0.02214278,-0.3378558,1.131057,-0.2142414,-0.1021729,1.112661,0.2788163,-0.1030417,1.168326,NA,NA,Unknown,NotTracked,
0.5839844,-0.8818359,0.3789063,1.01416,0.3300781,0.1494141,-2,-2,-1,-10,-1,-1,0,-1,-1,-1,0,1,-1,0,-3,0,18.375,18.375,18.375,40.4375,40.4375,40.4375,3.223851,4.005331,8.551816,6.747915,3.389828,5.059917,-0.01887446,-0.3153442,0.9466925,-0.02220629,-0.002727311,1.094684,0.05701572,0.4426835,1.184968,0.02225193,-0.3041303,0.9953529,0.01810744,0.07019566,1.066439,0.06031145,-0.02421932,1.192215,0.07763328,-0.3499263,1.166169,-0.1281658,0.1371385,1.15459,-0.01265505,-0.3412712,1.130852,-0.1807243,-0.09270029,1.130099,0.2776233,-0.1142699,1.166895,NA,NA,Unknown,NotTracked,
0.9130859,-0.7304688,0.2988281,0.9707031,0.5146484,0.1235352,-1,-1,-4,-2,-2,-3,-2,-1,1,0,0,0,-1,-1,-1,0,21.5625,21.5625,21.5625,-16.5625,-16.5625,-16.5625,3.153392,3.671364,8.711623,7.047992,3.250875,4.791508,-0.07549786,-0.3655109,0.9729633,-0.02126925,-0.00606992,1.094378,0.05626757,0.4424447,1.183787,-0.0492986,-0.3497091,0.9906,0.01801805,0.06627127,1.065072,0.0625047,-0.02495581,1.191679,0.08275322,-0.3510447,1.165634,-0.1290562,0.1365475,1.154067,-0.006806664,-0.3434899,1.130495,-0.1786086,-0.09491744,1.135702,0.2770924,-0.1185642,1.16652,NA,NA,Unknown,NotTracked,
0.9760742,-0.609375,0.1542969,0.9394531,0.4116211,0.1381836,0,0,-1,-3,0,-2,-1,1,1,0,0,0,-2,-1,-1,-2,25.9375,25.9375,25.9375,-22,-22,-22,3.014891,3.388036,8.936578,7.143759,3.187531,4.631728,-0.1096224,-0.4112999,1.009469,-0.01541701,-0.01200399,1.092601,0.0555685,0.4425279,1.182443,-0.08094215,-0.3924068,1.0242,0.02132921,0.06338028,1.064013,0.06262781,-0.0257272,1.191514,0.08252636,-0.3523853,1.166109,-0.1298782,0.1359486,1.153816,-0.006715616,-0.3445166,1.131202,-0.1740766,-0.1043494,1.141514,0.2783709,-0.1236346,1.168325,NA,NA,Unknown,NotTracked,
1.021484,-0.5146484,0.04101563,0.8979492,0.4194336,0.15625,-2,-1,-2,-3,-2,-1,0,0,0,-2,-2,-1,0,-1,-2,-2,23.0625,23.0625,23.0625,-21.0625,-21.0625,-21.0625,2.672515,3.126934,9.365329,7.221588,3.151205,4.496713,-0.1362793,-0.4383933,1.043006,-0.01182405,-0.01664488,1.089402,0.05454198,0.4424844,1.179366,-0.1078948,-0.4113631,1.058684,0.03005916,0.05830609,1.063615,0.06226095,-0.02654135,1.191156,0.08098605,-0.3542098,1.1666,-0.1304085,0.1355589,1.153571,-0.007594866,-0.3459211,1.131971,-0.1717346,-0.1124477,1.146641,0.2792444,-0.1264405,1.170153,NA,NA,NotTracked,NotTracked,
0.9619141,-0.4379883,0.01953125,0.8930664,0.4228516,0.1518555,0,0,0,-1,-1,-1,-1,-1,-1,1,-1,0,-1,0,2,-1,35.6875,35.6875,35.6875,-15.6875,-15.6875,-15.6875,2.431631,3.035944,9.681737,7.225955,3.143591,4.455942,-0.1570497,-0.4513867,1.072129,-0.1107058,0.0146641,1.133395,0.05374064,0.442659,1.176295,-0.1141257,-0.42011,1.060211,-0.05170918,0.07409516,1.063875,0.06167771,-0.02742343,1.190807,0.07855923,-0.3561811,1.167607,-0.1303254,0.1346167,1.15668,-0.009357611,-0.3476432,1.133249,-0.1721946,-0.1183308,1.152493,0.281483,-0.1288667,1.172726,NA,NA,NotTracked,NotTracked,
0.9301758,-0.3964844,0.04492188,0.8959961,0.4257813,0.1313477,-2,1,-1,-1,0,0,0,-3,-1,-1,1,-1,-1,-2,-1,-1,9.25,9.25,9.25,-19.4375,-19.4375,-19.4375,2.276162,2.990662,9.881899,7.200416,3.147319,4.448009,-0.17568,-0.4501198,1.092493,-0.1091446,0.01534625,1.135683,0.05312113,0.4426187,1.173307,-0.1324995,-0.4431149,1.075292,-0.05144255,0.07396148,1.063769,0.06138289,-0.02782318,1.190631,0.07760116,-0.3569275,1.168177,-0.1307582,0.1347256,1.156066,-0.01009889,-0.3483585,1.134047,-0.1751497,-0.1232438,1.159341,0.2828325,-0.1294059,1.175054,NA,NA,NotTracked,NotTracked,
0.9140625,-0.4223633,0.1005859,0.909668,0.4052734,0.1147461,0,-1,-1,-1,0,-2,-1,-2,0,0,-2,0,-2,1,-2,-1,29.875,29.875,29.875,-12.8125,-12.8125,-12.8125,2.222664,2.978889,9.983197,7.150596,3.159544,4.470356,-0.1815648,-0.4503813,1.102594,-0.1089979,0.01529506,1.13831,0.05280029,0.4421265,1.17021,-0.1382761,-0.4492388,1.081,-0.05147345,0.07392852,1.064275,0.06138494,-0.02808257,1.190509,0.07747626,-0.3572166,1.168475,-0.131018,0.1347772,1.15586,-0.01013385,-0.3486438,1.134478,-0.1772659,-0.1258181,1.163797,0.2833443,-0.1302371,1.176709,NA,NA,NotTracked,NotTracked,
0.9287109,-0.3735352,0.05664063,0.909668,0.4277344,0.105957,0,-2,-1,0,-1,-2,-2,-2,-3,-2,2,-2,-1,-2,-1,-1,48.375,48.375,48.375,-1.0625,-1.0625,-1.0625,2.303944,2.985748,9.980191,7.081986,3.187405,4.536748,-0.1802882,-0.4499916,1.103225,-0.1087306,0.01486384,1.139175,0.05302755,0.4419446,1.168243,-0.1349563,-0.4417507,1.081191,-0.0514936,0.07418821,1.06423,0.06145138,-0.02826895,1.190402,0.07740604,-0.3574686,1.168783,-0.131191,0.13477,1.155736,-0.01011551,-0.3488796,1.134842,-0.1784099,-0.1273666,1.167599,0.2833529,-0.1307537,1.177076,NA,NA,NotTracked,NotTracked,
0.9355469,-0.3408203,0.0234375,0.902832,0.4140625,0.09521484,-1,0,0,1,-2,0,-2,-2,0,0,-2,-3,-1,-1,0,-1,44.9375,44.9375,44.9375,-2.8125,-2.8125,-2.8125,2.511581,3.013311,9.876619,7.026674,3.214002,4.594074,-0.1715872,-0.4443347,1.09674,-0.1083918,0.01458975,1.138855,0.05359637,0.441716,1.166844,-0.1285344,-0.436601,1.081954,-0.05143693,0.07404366,1.064983,0.06137959,-0.02853301,1.190316,0.07705533,-0.3577414,1.169052,-0.1313433,0.1347593,1.155675,-0.01036832,-0.3490903,1.135179,-0.1778034,-0.1278551,1.170161,0.2832812,-0.1313653,1.176949,NA,NA,NotTracked,NotTracked,
0.9321289,-0.3720703,0.03857422,0.8999023,0.4140625,0.1069336,-3,-1,-1,-2,-2,-1,0,1,-1,-2,-2,-2,-1,-3,0,-3,39.6875,39.6875,39.6875,1.8125,1.8125,1.8125,2.691558,3.052694,9.755329,6.980003,3.241524,4.648409,-0.1588311,-0.4384373,1.086826,-0.009291358,-0.017744,1.089435,0.05413849,0.4415435,1.165996,-0.1214636,-0.4094543,1.094636,0.040867,0.05460091,1.066028,0.06126421,-0.02873644,1.190312,0.07631724,-0.3582202,1.169544,-0.1300146,0.1347165,1.159669,-0.01102228,-0.3494884,1.135835,-0.1756898,-0.1275524,1.172165,0.282393,-0.132373,1.175992,NA,NA,NotTracked,NotTracked,
0.9116211,-0.3476563,0.03759766,0.8833008,0.4160156,0.125,-1,0,-1,-1,-1,0,-3,-1,-1,-2,-1,-1,-1,-1,-2,0,12.6875,12.6875,12.6875,1.3125,1.3125,1.3125,2.841235,3.094128,9.637058,6.942925,3.272734,4.699601,-0.1452659,-0.4355365,1.075263,-0.009538558,-0.01827954,1.089713,0.05458162,0.441518,1.165846,-0.1067007,-0.4193081,1.086308,0.03997051,0.05457662,1.065903,0.06127147,-0.0289328,1.190324,0.07595214,-0.358391,1.169759,-0.1303415,0.1347119,1.158716,-0.01136981,-0.3496499,1.13616,-0.1729885,-0.1259332,1.174207,0.2816273,-0.1323854,1.174549,NA,NA,NotTracked,NotTracked,
0.8925781,-0.4038086,0.05126953,0.8862305,0.4160156,0.1240234,0,1,0,0,-1,1,0,1,1,-2,0,-1,0,0,0,0,-10.0625,-10.0625,-10.0625,3.9375,3.9375,3.9375,2.922099,3.139173,9.538383,6.933603,3.285253,4.71878,-0.1354034,-0.42885,1.065952,-0.007351976,-0.01938149,1.089281,0.05509267,0.4413432,1.165996,-0.09747384,-0.4092104,1.079476,0.03652651,0.05463917,1.066232,0.06137348,-0.02905715,1.190362,0.07592192,-0.358422,1.169796,-0.1305374,0.1346575,1.158221,-0.01139524,-0.349677,1.136242,-0.1703932,-0.1245637,1.1745,0.2805859,-0.1326859,1.172234,NA,NA,NotTracked,NotTracked,
0.8818359,-0.3725586,0.04736328,0.8911133,0.4072266,0.1181641,-1,-2,-2,-1,-1,-1,-5,0,0,0,-1,0,-1,-3,-2,-1,-12.6875,-12.6875,-12.6875,-3.6875,-3.6875,-3.6875,2.973653,3.187024,9.450315,6.937668,3.290426,4.713839,-0.1298539,-0.4291624,1.058741,-0.009261017,-0.02330813,1.091496,0.05591665,0.4413935,1.166587,-0.09332645,-0.4020315,1.0788,0.0345899,0.05076023,1.066334,0.06148419,-0.02911278,1.190555,0.07594098,-0.3584196,1.169834,-0.1293446,0.1348293,1.162001,-0.01135886,-0.3496488,1.136302,-0.1685002,-0.1235692,1.174159,0.2795322,-0.1320335,1.170654,NA,NA,NotTracked,NotTracked,
0.8828125,-0.3852539,0.06591797,0.8999023,0.4150391,0.1152344,-2,-2,-4,-2,0,1,-2,1,-2,-1,-1,0,-1,0,1,-2,-16.8125,-16.8125,-16.8125,-4.5625,-4.5625,-4.5625,2.965431,3.205698,9.426441,6.945148,3.288833,4.699954,-0.12617,-0.4334933,1.053306,-0.01232819,-0.02074866,1.092732,0.05673042,0.4414572,1.167579,-0.088148,-0.4088467,1.066846,0.02939252,0.05295969,1.067346,0.06160655,-0.02919772,1.190731,0.07596887,-0.3584128,1.169847,-0.1299461,0.1348605,1.160508,-0.01131288,-0.3496408,1.136306,-0.1674323,-0.1232283,1.173648,0.2783458,-0.1326583,1.168712,NA,NA,NotTracked,NotTracked,
