ALX,ALY,ALZ,ARX,ARY,ARZ,EMG0L,EMG1L,EMG2L,EMG3L,EMG4L,EMG5L,EMG6L,EMG7L,EMG0R,EMG1R,EMG2R,EMG3R,EMG4R,EMG5R,EMG6R,EMG7R,GLX,GLY,GLZ,GRX,GRY,GRZ,ORL,OPL,OYL,ORR,OPR,OYR,LHNX,LHNY,LHNZ,RHNX,RHNY,RHNZ,HX,HY,HZ,LTX,LTY,LTZ,RTX,RTY,RTZ,SpineMidX,SpineMidY,SpineMidZ,SpineBaseX,SpineBaseY,SpineBaseZ,ShoulderLeftX,ShoulderLeftY,ShoulderLeftZ,ShoulderRightX,ShoulderRightY,ShoulderRightZ,ElbowLeftX,ElbowLeftY,ElbowLeftZ,ElbowRightX,ElbowRightY,ElbowRightZ,Myo_Pose_left,Myo_Pose_Right,Kinect_pose_left,Kinect_pose_right
0.8867188,-0.4438477,0.04638672,0.8823242,0.4438477,0.1210938,-1,0,1,-2,0,-2,-1,1,-3,-2,-1,-2,-2,-1,0,-1,-0.1875,-0.1875,-0.1875,-0.9375,-0.9375,-0.9375,2.641031,3.242973,0.03589996,7.082378,3.273992,6.438855,-0.1671049,-0.4470814,1.031419,0.2931708,-0.4188725,1.064228,0.07059143,0.4436237,1.182461,-0.1236466,-0.4382251,1.01533,0.2536746,-0.4495625,1.079,0.06355653,-0.02910735,1.200377,0.07745952,-0.3583479,1.184919,-0.1251404,0.1387015,1.164739,-0.00885467,-0.3492834,1.147172,-0.1803843,-0.1178563,1.160818,0.281711,-0.1298854,1.187674,NA,NA,Unknown,NotTracked,
0.8793945,-0.4418945,0.04443359,0.8837891,0.4501953,0.1210938,0,-2,-1,-2,0,-1,-1,2,-4,0,-3,-1,1,-1,1,-2,1.375,1.375,1.375,-0.25,-0.25,-0.25,2.642264,3.241896,0.0373775,7.084598,3.277024,6.435266,-0.1671092,-0.4468795,1.03134,0.294146,-0.4187787,1.063128,0.07048804,0.4436153,1.182769,-0.1237738,-0.4365765,1.019921,0.2577665,-0.4165823,1.076933,0.06354569,-0.02917207,1.200269,0.07721069,-0.3585075,1.184197,-0.1259412,0.1379172,1.163912,-0.009047801,-0.3494312,1.146573,-0.1803628,-0.1178619,1.160518,0.2817028,-0.1300232,1.187655,NA,NA,Unknown,NotTracked,
0.8876953,-0.440918,0.04443359,0.8774414,0.4448242,0.1201172,-1,0,-3,-1,-1,-1,2,-1,-1,-1,-2,-1,-1,-2,0,2,-0.125,-0.125,-0.125,-1.1875,-1.1875,-1.1875,2.643113,3.241458,0.03706843,7.082545,3.27899,6.435389,-0.166049,-0.4478705,1.031183,0.2934328,-0.4194357,1.062529,0.07027768,0.4436952,1.183443,-0.1209125,-0.4358844,1.027739,0.258447,-0.4033161,1.090727,0.06351672,-0.02917185,1.200265,0.0771411,-0.3586265,1.183749,-0.1275842,0.1372842,1.16078,-0.009094791,-0.3496132,1.146073,-0.1803371,-0.1180267,1.159986,0.2816028,-0.129819,1.187498,NA,NA,Unknown,NotTracked,
0.878418,-0.456543,0.05419922,0.887207,0.4477539,0.1113281,-1,-1,-1,-1,-1,-1,-2,-1,-1,-2,-2,-1,-1,0,-1,-1,9.25,9.25,9.25,-1.625,-1.625,-1.625,2.663716,3.248282,0.02590631,7.077286,3.283234,6.438936,-0.1662483,-0.447664,1.030952,0.2938708,-0.4180623,1.061869,0.06993783,0.4436556,1.183976,-0.1253539,-0.4412511,1.013351,0.2582197,-0.4107142,1.08149,0.06348534,-0.02921344,1.200246,0.07708316,-0.3587166,1.183262,-0.1273691,0.1370191,1.162508,-0.00914795,-0.3497646,1.145661,-0.180332,-0.1180276,1.159986,0.2816147,-0.1298591,1.187352,NA,NA,Unknown,NotTracked,
0.8745117,-0.4541016,0.05029297,0.8764648,0.4438477,0.1142578,-1,-2,0,-2,-1,0,0,1,-1,-1,-2,-2,-1,-2,-1,-1,15.6875,15.6875,15.6875,-2.375,-2.375,-2.375,2.678881,3.253233,0.02702884,7.070801,3.286753,6.442183,-0.1655465,-0.4474463,1.028134,0.2931727,-0.4178073,1.060153,0.06938161,0.4436833,1.184514,-0.124387,-0.4397764,1.011,0.2579685,-0.4136147,1.083691,0.06339041,-0.02923462,1.200235,0.07695679,-0.3587444,1.182753,-0.1285177,0.1368174,1.160427,-0.009246062,-0.349852,1.145114,-0.1802749,-0.1181504,1.159851,0.2817113,-0.1301606,1.186893,NA,NA,Unknown,NotTracked,
0.8803711,-0.4375,0.04199219,0.878418,0.4521484,0.1171875,0,-2,0,-1,-1,-1,0,-1,-1,-2,0,-2,0,-1,2,-1,8.3125,8.3125,8.3125,0.3125,0.3125,0.3125,2.695797,3.257611,0.03104655,7.06976,3.288979,6.44273,-0.1656128,-0.4461204,1.027097,0.2927257,-0.417508,1.059717,0.06861168,0.44368,1.18557,-0.1227879,-0.4390304,1.011798,0.2579801,-0.4145402,1.082589,0.0631634,-0.02935952,1.200237,0.07671242,-0.3589199,1.182212,-0.1292774,0.1365551,1.159337,-0.009451233,-0.3500529,1.144632,-0.1801122,-0.1183462,1.159698,0.2818254,-0.1303043,1.18663,NA,NA,Unknown,NotTracked,
0.8959961,-0.4453125,0.05712891,0.9282227,0.496582,0.1005859,-2,-3,-3,-2,-6,-1,-3,0,-2,-7,0,-4,12,-1,-2,-6,-4.3125,-4.3125,-4.3125,-3.25,-3.25,-3.25,2.696497,3.258887,0.02758041,7.063147,3.291937,6.451072,-0.1633604,-0.4465986,1.027072,0.2924569,-0.4168901,1.059757,0.06776511,0.4434747,1.186441,-0.1227725,-0.4384886,1.010363,0.2586683,-0.4065841,1.078611,0.0629158,-0.02950987,1.200232,0.07653771,-0.3590377,1.181764,-0.1297554,0.1364452,1.158763,-0.009623975,-0.3502215,1.144178,-0.1799879,-0.1184312,1.15953,0.2818481,-0.1304057,1.186502,NA,NA,Unknown,NotTracked,
0.9677734,-0.4438477,0.05859375,1.111816,0.4550781,0.2026367,0,-2,6,1,2,-4,-9,1,4,14,15,7,-2,4,3,7,-22.625,-22.625,-22.625,23.4375,23.4375,23.4375,2.77385,3.297345,9.911969,6.922022,3.353229,6.624823,-0.1536976,-0.4427207,1.021451,0.287125,-0.4144812,1.053899,0.06682046,0.443292,1.187576,-0.1131885,-0.4332201,1.000872,0.2553186,-0.4343676,1.067231,0.06262667,-0.02969681,1.200184,0.07630965,-0.3591053,1.181356,-0.1301891,0.1362776,1.158424,-0.00979274,-0.3502923,1.143813,-0.1799964,-0.1181803,1.15971,0.2818814,-0.1301552,1.186909,NA,NA,Unknown,NotTracked,
0.9731445,-0.6796875,0.2509766,1.008789,0.6206055,0.3754883,0,0,6,32,0,13,-6,0,1,22,5,8,26,19,-14,-7,-59.6875,-59.6875,-59.6875,57,57,57,2.876225,3.402104,9.681347,6.751528,3.503741,6.915979,-0.1336559,-0.4158207,1.010453,0.2719687,-0.4025597,1.032503,0.06576351,0.44325,1.18828,-0.09719153,-0.3940579,0.9828667,0.2404495,-0.4177475,1.037,0.0622956,-0.02975535,1.200062,0.07612221,-0.3588919,1.180631,-0.130586,0.1363361,1.161647,-0.01011401,-0.350041,1.143168,-0.1806109,-0.1168826,1.160046,0.2831376,-0.1266113,1.191486,NA,NA,Unknown,Unknown,
0.8164063,-0.6699219,0.3461914,0.8569336,0.855957,0.5458984,1,0,2,-12,-6,-4,-5,6,0,-6,-19,-10,6,9,-13,6,-47.375,-47.375,-47.375,-31.125,-31.125,-31.125,3.049549,3.588992,9.390195,6.576252,3.768113,7.162169,-0.09419513,-0.3744949,0.9923357,0.2430566,-0.3524693,0.9991692,0.0647006,0.4429176,1.188568,-0.06345264,-0.3513188,0.9525555,0.2084358,-0.332045,0.9794375,0.06223858,-0.02965844,1.199783,0.07679053,-0.3576926,1.179156,-0.1313586,0.1361729,1.160475,-0.01014982,-0.3492287,1.14203,-0.1822198,-0.1103395,1.16118,0.2863381,-0.120512,1.197966,NA,NA,Unknown,Unknown,
0.6621094,-0.8564453,0.3911133,0.3491211,0.6943359,0.5566406,1,-1,-11,8,1,0,-8,4,1,-5,2,-1,4,-2,-8,-3,-20.3125,-20.3125,-20.3125,-28.8125,-28.8125,-28.8125,3.167543,3.846589,9.142737,6.353842,4.251211,7.37646,-0.03468827,-0.3209174,0.9793848,0.2061861,-0.2691264,0.9596377,0.06394446,0.4427373,1.188654,-0.06082293,-0.2997291,0.9437408,0.2240826,-0.2522767,0.9221213,0.06199928,-0.02902599,1.199111,0.07675304,-0.3548921,1.176927,-0.1316932,0.1361133,1.159923,-0.01160555,-0.3463677,1.139842,-0.187078,-0.09902919,1.160515,0.2858785,-0.1054946,1.203115,NA,NA,Unknown,Unknown,
0.4130859,-0.7949219,0.3857422,0.2651367,0.7314453,0.5917969,-2,-2,0,-2,-4,4,8,3,4,0,-13,-5,-5,-2,-4,-10,-5.1875,-5.1875,-5.1875,4.0625,4.0625,4.0625,3.294781,4.231161,8.914793,6.320393,4.658029,7.462457,0.004160809,-0.261932,0.9495339,0.1815647,-0.1773032,0.930128,0.06349749,0.4425746,1.188441,-0.02607086,-0.2482809,0.9243496,0.2169359,-0.2139786,0.9488571,0.06155379,-0.02899318,1.199043,0.07530082,-0.3545566,1.177139,-0.1318419,0.1361164,1.1595,-0.01281874,-0.3464133,1.14014,-0.187311,-0.0923911,1.157516,0.2858662,-0.08184402,1.200915,NA,NA,NotTracked,Unknown,
0.3969727,-0.8222656,0.3789063,0.06542969,0.7695313,0.5874023,1,-2,-8,-29,-4,2,11,3,0,26,16,1,-2,-3,-12,1,-17.25,-17.25,-17.25,-0.4375,-0.4375,-0.4375,3.310638,4.49613,8.81264,6.320976,5.079054,7.530327,0.0558455,-0.2114127,0.9221938,0.1624275,-0.07826009,0.9077145,0.06309024,0.4422067,1.188038,0.04162388,-0.1627855,0.8944092,0.1370339,-0.05048968,0.91975,0.06100728,-0.02898993,1.199318,0.0738095,-0.354248,1.178076,-0.1316664,0.136224,1.158911,-0.01345809,-0.346032,1.141038,-0.1867902,-0.09272663,1.151519,0.2857275,-0.08378927,1.17167,NA,NA,NotTracked,NotTracked,
0.2666016,-0.7924805,0.3833008,-0.2675781,0.6318359,0.5200195,1,1,2,33,-5,2,4,2,1,8,11,-5,1,26,2,-5,-20,-20,-20,7.8125,7.8125,7.8125,3.299073,4.70228,8.733009,6.339625,5.592349,7.616026,0.07034059,-0.1630491,0.9109144,0.1561276,0.0125878,0.9215104,0.06286899,0.4419783,1.187843,0.054088,-0.1703678,0.881,0.1781551,0.006299756,0.8945925,0.06083268,-0.02846715,1.197618,0.07264671,-0.3533286,1.178582,-0.131254,0.1365803,1.15799,-0.01399669,-0.3452461,1.141641,-0.2058485,-0.1102476,1.121912,0.2550913,-0.09231937,1.098002,NA,NA,NotTracked,NotTracked,
0.2207031,-0.8071289,0.4238281,-0.3535156,0.5927734,0.4926758,-2,1,8,10,-3,-9,-7,-9,-1,-7,-4,-6,-14,-7,13,9,-25.75,-25.75,-25.75,1.6875,1.6875,1.6875,3.262297,4.835284,8.683507,6.377916,5.892758,7.671462,0.07575149,-0.1328271,0.9007397,0.1592768,0.08166403,0.9375653,0.0627637,0.4418533,1.187709,0.06555326,-0.08088084,0.8907,0.172003,0.06399505,0.9073142,0.06043217,-0.02823702,1.197975,0.07235292,-0.3528857,1.178628,-0.1306346,0.1368279,1.156839,-0.01431268,-0.3448014,1.141724,-0.2077684,-0.1082032,1.118757,0.2609778,-0.08816357,1.105519,NA,NA,Unknown,Unknown,
0.1645508,-0.8144531,0.4472656,-0.5014648,0.5297852,0.4316406,-1,0,-8,-36,6,-4,-3,-2,-2,-2,-3,-6,-18,-6,-2,2,-27.25,-27.25,-27.25,9.3125,9.3125,9.3125,3.225101,4.910001,8.654708,6.418709,6.149622,7.71897,0.08085526,-0.1179915,0.894892,0.1605029,0.1342865,0.9536716,0.06225454,0.4414302,1.187368,0.06784728,-0.06542318,0.8852593,0.179926,0.1194287,0.9269375,0.06080944,-0.02831127,1.195348,0.07213115,-0.3528855,1.178643,-0.130301,0.1370733,1.155918,-0.01484326,-0.3445978,1.142086,-0.2108652,-0.1052426,1.10929,0.2713805,-0.08256115,1.112118,NA,NA,Unknown,Unknown,
0.1108398,-0.8305664,0.4829102,-0.5551758,0.4628906,0.387207,0,1,-7,-13,-8,-1,10,4,-6,-3,-1,-3,-16,-8,-16,-32,-12.8125,-12.8125,-12.8125,-6.3125,-6.3125,-6.3125,3.196376,4.945378,8.633279,6.421467,6.248527,7.728754,0.0816867,-0.1111514,0.891767,0.1644582,0.1596915,0.9707259,0.06163721,0.4412569,1.187054,0.06892213,-0.06153759,0.9002,0.1770058,0.1253895,0.9409285,0.06049499,-0.02779032,1.195321,0.07141136,-0.3521752,1.178797,-0.1299993,0.1375541,1.155078,-0.01595934,-0.3436282,1.142553,-0.2108069,-0.09748381,1.101692,0.2732718,-0.08237215,1.108775,NA,NA,Unknown,Unknown,
0.06787109,-0.9223633,0.5009766,-0.5205078,0.4868164,0.3994141,1,1,1,5,8,0,-13,7,-4,-8,-12,-2,5,-16,-12,2,-4,-4,-4,-3.625,-3.625,-3.625,3.192164,4.949562,8.624718,6.40119,6.230716,7.713516,0.08137273,-0.10747,0.8921573,0.1656761,0.1633286,0.9752455,0.06113125,0.4411159,1.186548,0.06164828,-0.05492472,0.8805556,0.170567,0.1266662,0.9431202,0.06037533,-0.02715863,1.195053,0.07084004,-0.3512288,1.178883,-0.1274704,0.1393042,1.156554,-0.01679795,-0.3424284,1.142906,-0.2115823,-0.09543563,1.100749,0.2745181,-0.08282399,1.110383,NA,NA,Unknown,Unknown,
-0.01806641,-0.9594727,0.4897461,-0.1567383,0.4541016,0.3588867,1,1,1,20,5,-2,-8,-1,-9,1,5,-1,6,-12,-12,-22,9.625,9.625,9.625,-33.0625,-33.0625,-33.0625,3.208982,4.959017,8.612146,6.349021,5.866374,7.703598,0.08009745,-0.1006837,0.8912072,0.1615051,0.1204392,0.965341,0.06083579,0.4407543,1.185524,0.06691526,-0.04958057,0.8859217,0.1719248,0.1018159,0.9296786,0.06059977,-0.02719042,1.193487,0.07070611,-0.351118,1.178848,-0.127742,0.1392229,1.155251,-0.0169907,-0.342265,1.142982,-0.2135601,-0.09549636,1.100735,0.2787863,-0.08433868,1.119946,NA,NA,Unknown,Unknown,
-0.01855469,-0.9438477,0.4458008,-0.5629883,0.3725586,0.3330078,1,0,5,5,3,0,-5,-5,-1,0,-4,-5,11,6,-13,-7,6.125,6.125,6.125,-42.125,-42.125,-42.125,3.229476,5.004371,8.61198,6.298398,5.365953,7.731997,0.07151223,-0.08778597,0.8898777,0.1263248,0.05547603,0.9444204,0.06083156,0.4405591,1.184881,0.05563131,-0.03924757,0.8866364,0.1112102,0.05736708,0.934,0.0607832,-0.02653222,1.192417,0.07062792,-0.3489497,1.179106,-0.1279616,0.1393203,1.154417,-0.01666234,-0.3403157,1.143003,-0.2188364,-0.09811791,1.102757,0.2848384,-0.08256581,1.134105,NA,NA,NotTracked,Closed,
-0.01269531,-0.9707031,0.4887695,-0.03320313,0.4790039,0.5893555,10,-5,-13,-1,1,-1,-2,4,9,3,13,1,-18,-10,-2,-3,10,10,10,10,10,10,3.242121,5.058801,8.624456,6.279224,4.73056,7.708976,0.08220766,-0.07497535,0.8840297,0.06285439,-0.08485524,0.8866483,0.06047877,0.4403069,1.183771,0.05431368,-0.03753287,0.8637111,0.008109249,-0.07178995,0.886,0.06096823,-0.02576157,1.19144,0.07064608,-0.3471291,1.179109,-0.1280641,0.1393895,1.153709,-0.0163817,-0.3381262,1.142499,-0.2139645,-0.09806459,1.093752,0.2999739,-0.0780284,1.179741,NA,NA,NotTracked,NotTracked,
-0.08398438,-0.8427734,0.4287109,0.7749023,1.214355,0.9589844,7,0,-7,-26,-8,-1,5,6,-7,14,-1,-22,-2,-5,22,17,0.5625,0.5625,0.5625,1.6875,1.6875,1.6875,3.259385,5.106258,8.630378,6.367465,4.280604,7.661515,0.0758169,-0.05873623,0.8842303,0.1477664,-0.2351516,0.9614231,0.05992249,0.4401316,1.182797,0.04514234,-0.01208134,0.8758261,0.1658516,-0.223015,0.9168571,0.05945673,-0.02486701,1.193036,0.06943724,-0.3456036,1.178697,-0.1281067,0.1395164,1.153166,-0.01717943,-0.3362013,1.141561,-0.2139969,-0.09849908,1.092822,0.2862392,-0.0812209,1.177019,NA,NA,Unknown,NotTracked,
-0.04345703,-0.9033203,0.5151367,0.8950195,1.026367,0.6801758,-1,0,6,-9,2,-5,-2,5,4,1,2,13,16,-3,1,17,-2.6875,-2.6875,-2.6875,-20.0625,-20.0625,-20.0625,3.263068,5.131654,8.620197,6.364613,4.063209,7.615829,0.07677724,-0.05308282,0.8867645,0.1530496,-0.2753908,0.9693117,0.05969062,0.439741,1.181382,0.04691336,-0.007843484,0.8767692,0.1686249,-0.2625769,0.9276522,0.05798726,-0.02447348,1.194052,0.06760328,-0.3448325,1.178472,-0.1281245,0.1395824,1.152722,-0.01910951,-0.3345812,1.140786,-0.2139684,-0.09947587,1.090567,0.2821494,-0.0818805,1.178806,NA,NA,Unknown,Unknown,
-0.04541016,-0.894043,0.4760742,0.6630859,0.652832,0.5390625,-2,1,7,-13,1,-1,-4,-1,3,-20,-9,3,13,0,-3,-24,-8.5625,-8.5625,-8.5625,-4.3125,-4.3125,-4.3125,3.254149,5.128654,8.601844,6.339945,4.048715,7.608867,0.07726549,-0.05301042,0.8880106,0.1479295,-0.2801161,0.9674284,0.06026895,0.4394911,1.179538,0.05054782,-0.009016357,0.8763567,0.1762902,-0.280439,0.9286923,0.05720471,-0.02434571,1.194544,0.06575613,-0.3443634,1.178597,-0.1280838,0.1396645,1.152215,-0.02103593,-0.3334679,1.140547,-0.2144569,-0.09948338,1.089293,0.2789285,-0.08461002,1.180361,NA,NA,Unknown,Closed,
-0.1000977,-0.8989258,0.4560547,0.472168,0.6005859,0.4868164,-1,0,1,0,0,1,4,4,9,10,1,4,12,-9,1,-6,-3.4375,-3.4375,-3.4375,-13.25,-13.25,-13.25,3.243094,5.120195,8.588061,6.340778,4.069793,7.602902,0.07779581,-0.05359304,0.8893884,0.1473851,-0.2765356,0.9591582,0.06173679,0.4393045,1.178275,0.05153168,-0.008920318,0.8767997,0.1766158,-0.2878067,0.9287859,0.0568632,-0.02411281,1.194993,0.0648863,-0.3439802,1.178864,-0.1278834,0.1398685,1.151671,-0.02188464,-0.332689,1.140578,-0.2148851,-0.09934776,1.088176,0.2778419,-0.08511158,1.180591,NA,NA,Unknown,Closed,
-0.05957031,-0.9331055,0.4951172,0.605957,0.6044922,0.527832,3,0,1,0,1,6,-4,5,7,2,0,0,9,-1,9,19,-3.625,-3.625,-3.625,5.4375,5.4375,5.4375,3.237672,5.11485,8.587125,6.352368,4.058253,7.584911,0.0791103,-0.05344371,0.8894715,0.1491977,-0.2783739,0.9547724,0.06328513,0.4392259,1.177568,0.04849917,-0.004473835,0.8820668,0.1604092,-0.2677852,0.907037,0.05663688,-0.02396578,1.1953,0.06424917,-0.3437434,1.179019,-0.1276889,0.1399622,1.151204,-0.02247008,-0.3321177,1.140488,-0.21518,-0.09829662,1.088602,0.2775606,-0.08505078,1.180585,NA,NA,Unknown,Closed,
-0.04785156,-0.9208984,0.4638672,0.6479492,0.6186523,0.543457,3,0,-1,-2,-2,-3,10,5,3,5,6,0,-6,-4,-4,1,-0.25,-0.25,-0.25,7.125,7.125,7.125,3.238161,5.11276,8.590914,6.367733,4.036332,7.577405,0.0794207,-0.05380708,0.8907893,0.1519554,-0.2825974,0.9535398,0.06444307,0.4391823,1.177301,0.05055635,-0.009476947,0.8795411,0.1741749,-0.2852468,0.9142579,0.0563511,-0.02386738,1.195661,0.06354766,-0.3436358,1.179073,-0.1274413,0.1400813,1.150954,-0.02315006,-0.3317388,1.140372,-0.2154189,-0.09860984,1.088529,0.2772706,-0.08506391,1.180339,NA,NA,Unknown,Closed,
-0.02148438,-0.8686523,0.4331055,0.5717773,0.5693359,0.4750977,2,0,0,2,1,1,-2,1,-2,-2,-4,-2,-3,0,2,2,-3.0625,-3.0625,-3.0625,2.875,2.875,2.875,3.234815,5.100039,8.593102,6.38181,4.002199,7.568086,0.0787995,-0.05846487,0.890747,0.1538419,-0.2879652,0.9573821,0.0651431,0.4391276,1.177324,0.05056633,-0.01100817,0.8785596,0.1645993,-0.2769212,0.9097298,0.0559842,-0.02375128,1.196045,0.0627173,-0.3434416,1.179092,-0.1272758,0.1401355,1.150802,-0.02395772,-0.331378,1.140369,-0.2155787,-0.09720777,1.089608,0.2769653,-0.08510841,1.179873,NA,NA,Unknown,Closed,
0.006347656,-0.7661133,0.4321289,0.4423828,0.4990234,0.3686523,0,-1,-1,-1,0,0,-1,0,-3,0,-3,-1,-7,-4,-5,-2,-5.625,-5.625,-5.625,-2.375,-2.375,-2.375,3.230107,5.048994,8.608304,6.415469,3.895905,7.51264,0.07522216,-0.08130138,0.8909981,0.1601604,-0.3025908,0.9671301,0.06539174,0.4391001,1.177666,0.06050302,-0.04520479,0.8655128,0.1852908,-0.3156149,0.9235555,0.0561168,-0.02378315,1.194438,0.06193186,-0.3433875,1.178789,-0.1273063,0.1401462,1.150732,-0.02497108,-0.3311749,1.139865,-0.2168122,-0.09704683,1.089287,0.276422,-0.08597165,1.1795,NA,NA,Unknown,Closed,
0.1704102,-0.6542969,0.3486328,0.6552734,0.5639648,0.3256836,-2,-3,-4,-2,-2,1,-1,-1,0,1,0,0,1,-2,-1,0,-7.75,-7.75,-7.75,37.625,37.625,37.625,3.221773,4.833844,8.662825,6.534291,3.731623,7.395304,0.06500351,-0.1374135,0.8907209,0.1966039,-0.3221597,0.9890605,0.06536735,0.439282,1.178639,0.06514259,-0.08864625,0.8950556,0.1998893,-0.3370749,0.9309412,0.05640268,-0.0242945,1.192303,0.06108161,-0.344283,1.177925,-0.1273421,0.1401181,1.150732,-0.02606633,-0.3320206,1.139022,-0.2191315,-0.09528836,1.101151,0.2748875,-0.08985448,1.180294,NA,NA,Unknown,Closed,
0.3867188,-0.8271484,0.3769531,0.8901367,0.5800781,0.2724609,-2,0,0,-3,0,4,-2,-2,-1,-1,-2,0,-3,0,-2,-1,-16.0625,-16.0625,-16.0625,-16.125,-16.125,-16.125,3.168158,4.449987,8.726353,6.686173,3.545228,7.227788,0.04789899,-0.2232771,0.8954157,0.2128286,-0.3759,0.9983724,0.06504423,0.4398631,1.180146,0.05944808,-0.1819947,0.9171429,0.2323708,-0.3837112,0.95745,0.0564324,-0.02487656,1.194554,0.06156761,-0.3461145,1.178333,-0.1275052,0.1399567,1.150736,-0.02517317,-0.3344686,1.139575,-0.2142771,-0.09533601,1.099772,0.270903,-0.1055991,1.179848,NA,NA,Unknown,Unknown,
0.5732422,-0.8564453,0.3828125,0.9990234,0.4321289,0.1826172,-1,-2,0,-2,-3,0,0,-2,-1,1,0,0,-2,-1,0,-3,-4.9375,-4.9375,-4.9375,-11.375,-11.375,-11.375,3.125903,4.124342,8.803314,6.895462,3.331409,6.924726,0.0007815794,-0.3000182,0.9222691,0.2444577,-0.4022917,1.025823,0.06448147,0.4408008,1.182117,0.02560496,-0.2732837,0.9959334,0.2664639,-0.400861,0.9973102,0.05864909,-0.02498352,1.196838,0.07174996,-0.3485425,1.179312,-0.1266668,0.1396165,1.153039,-0.01774819,-0.3393715,1.140615,-0.1909506,-0.08699077,1.124298,0.2699016,-0.1159759,1.179407,NA,NA,Unknown,Unknown,
0.7241211,-0.7988281,0.2900391,1.003418,0.4433594,0.1201172,0,0,-1,-3,-2,0,-1,-2,-1,-1,-2,0,-2,-1,-1,0,16.125,16.125,16.125,-18.25,-18.25,-18.25,3.07132,3.806293,8.918656,7.112917,3.218123,6.654171,-0.05468028,-0.3523036,0.9538617,0.2725248,-0.4130237,1.053505,0.06397848,0.4414118,1.183096,-0.03331872,-0.3220308,0.9746155,0.3064925,-0.403147,1.0205,0.06106509,-0.02511965,1.197125,0.08044156,-0.3497924,1.177438,-0.1273214,0.138777,1.153527,-0.009155904,-0.3415659,1.138597,-0.1879472,-0.08901551,1.128845,0.2702484,-0.1246359,1.179435,NA,NA,Unknown,Open,
0.8847656,-0.6967773,0.2568359,0.972168,0.4375,0.105957,-1,-3,-1,1,0,-1,-1,-3,-1,-1,-1,-1,-1,-1,-1,-1,24.9375,24.9375,24.9375,-32.1875,-32.1875,-32.1875,2.985932,3.528828,9.082721,7.264808,3.155217,6.434219,-0.09560494,-0.3947702,0.9896749,0.2866063,-0.4205154,1.073091,0.06355334,0.4420157,1.183574,-0.06190367,-0.3749523,0.9997059,0.3153153,-0.4165501,1.052871,0.06141566,-0.02542773,1.196916,0.08061897,-0.351,1.176567,-0.1286923,0.1380149,1.152739,-0.008736279,-0.3427656,1.137853,-0.1856764,-0.09716583,1.134052,0.2709372,-0.1291124,1.180977,NA,NA,Unknown,Unknown,
0.9375,-0.5610352,0.1557617,0.9453125,0.4140625,0.1298828,-1,0,-3,0,-2,-1,-1,-1,0,-3,-2,-3,-1,0,-3,1,36.3125,36.3125,36.3125,-30.75,-30.75,-30.75,2.791774,3.25105,9.397745,7.31729,3.133851,6.314415,-0.1299365,-0.424355,1.024328,0.2937357,-0.4257329,1.085491,0.06295311,0.4424905,1.183454,-0.09515912,-0.4045737,1.030273,0.3274031,-0.4252475,1.0687,0.06083099,-0.02597561,1.196704,0.07855639,-0.3531252,1.176143,-0.1293979,0.1371317,1.154843,-0.01000265,-0.3443175,1.137777,-0.184431,-0.1045263,1.140034,0.2723555,-0.1313074,1.183984,NA,NA,Unknown,NotTracked,
0.9609375,-0.5019531,0.08300781,0.8974609,0.4208984,0.1464844,-1,1,-1,-1,-1,0,0,-1,0,-1,-2,-2,-1,-2,1,0,59.8125,59.8125,59.8125,-24.5,-24.5,-24.5,2.593231,3.123128,9.71171,7.285472,3.138864,6.284529,-0.157101,-0.4478026,1.055254,0.2904499,-0.4287381,1.094721,0.06221937,0.4428546,1.182826,-0.1212537,-0.4184587,1.061864,0.3273778,-0.4219738,1.071105,0.0597439,-0.02667056,1.196424,0.07552771,-0.3551656,1.175958,-0.1302857,0.1368217,1.155981,-0.01213077,-0.3460403,1.137908,-0.183062,-0.1108214,1.147391,0.2742324,-0.1328149,1.188153,NA,NA,NotTracked,NotTracked,
0.9555664,-0.4243164,-0.01806641,0.8828125,0.4189453,0.1333008,-2,-2,-1,0,1,-2,0,-2,1,-2,-1,-3,0,0,1,-1,87.875,87.875,87.875,-32,-32,-32,2.348481,3.027253,0.1653383,7.222424,3.156134,6.29559,-0.175807,-0.4521454,1.081011,0.2912433,-0.427568,1.095085,0.06110633,0.4430768,1.181646,-0.1223128,-0.4365742,1.055539,0.3306874,-0.4216212,1.0755,0.05856793,-0.02744598,1.196002,0.07343643,-0.356323,1.175916,-0.1310429,0.136583,1.155315,-0.01366867,-0.3471097,1.137983,-0.1824885,-0.1179658,1.156234,0.2757184,-0.1337188,1.191439,NA,NA,NotTracked,NotTracked,
0.9599609,-0.3549805,-0.007324219,0.8857422,0.4228516,0.1220703,-1,0,0,0,-2,1,1,-1,0,-3,-2,-2,-1,1,0,1,65.1875,65.1875,65.1875,-21.75,-21.75,-21.75,2.241019,2.991557,0.4120346,7.160054,3.17468,6.3155,-0.1914382,-0.4589244,1.099499,0.2886171,-0.4275484,1.093261,0.06005153,0.4431171,1.180156,-0.1482119,-0.4509373,1.082933,0.3264343,-0.4314089,1.065,0.05805412,-0.02765191,1.195651,0.07302608,-0.3564706,1.175938,-0.1316216,0.1363324,1.15489,-0.01399561,-0.3473718,1.138047,-0.1841386,-0.124069,1.163185,0.2764093,-0.1353272,1.194013,NA,NA,NotTracked,NotTracked,
0.9580078,-0.3344727,0.02929688,0.8935547,0.4199219,0.09912109,-2,0,-2,-1,1,-1,0,2,-1,0,-1,-2,-2,-2,-2,-2,26.375,26.375,26.375,-2.25,-2.25,-2.25,2.232803,2.972545,0.4918306,7.100195,3.195837,6.353717,-0.1955189,-0.4544968,1.111066,0.2870756,-0.4261937,1.090654,0.05914171,0.4431065,1.178899,-0.152338,-0.4546323,1.089714,0.3226514,-0.4328268,1.057867,0.05767525,-0.02777185,1.195512,0.07283786,-0.3565364,1.176068,-0.1319885,0.1362368,1.154712,-0.01412232,-0.3474473,1.138141,-0.1857718,-0.1270372,1.17024,0.276082,-0.1349586,1.195038,NA,NA,NotTracked,NotTracked,
0.9199219,-0.3696289,0.06005859,0.890625,0.4360352,0.08447266,0,-1,-3,-1,-1,-1,0,0,-1,-3,-2,-3,-1,0,0,-1,2.0625,2.0625,2.0625,6.8125,6.8125,6.8125,2.318666,2.973413,0.4188526,7.08008,3.208317,6.387703,-0.1915849,-0.4530231,1.113832,0.2841147,-0.4249312,1.085837,0.05836385,0.4429363,1.177749,-0.1472208,-0.451719,1.095403,0.3059968,-0.4215706,1.046636,0.05716195,-0.02802389,1.195321,0.07247663,-0.3565919,1.176345,-0.1323967,0.1361867,1.158241,-0.01446444,-0.3476214,1.138538,-0.1861493,-0.1269752,1.174392,0.2758371,-0.1348288,1.19528,NA,NA,NotTracked,NotTracked,
0.9106445,-0.3833008,0.06298828,0.8950195,0.418457,0.0859375,-1,-1,0,0,-1,-1,-1,-2,-1,0,-1,-1,-1,-1,-1,0,11.25,11.25,11.25,7.0625,7.0625,7.0625,2.50827,3.005579,0.2398618,7.059745,3.222866,6.426315,-0.1834673,-0.4521867,1.109074,0.2826056,-0.4226961,1.081243,0.05765452,0.4427927,1.176833,-0.1415462,-0.4470162,1.087705,0.317948,-0.4212976,1.058412,0.05648129,-0.02824283,1.195379,0.07169932,-0.3567468,1.176953,-0.1326326,0.1358574,1.160198,-0.01524219,-0.3479739,1.13948,-0.1860874,-0.1264404,1.178281,0.2753811,-0.1357082,1.195468,NA,NA,NotTracked,NotTracked,
0.9306641,-0.3632813,0.04296875,0.9150391,0.4296875,0.08642578,0,-1,-2,0,-1,-1,-1,1,0,-1,-2,-2,-1,-1,-2,-1,16.4375,16.4375,16.4375,8.75,8.75,8.75,2.646207,3.040844,0.1222982,7.05705,3.23226,6.446899,-0.1742197,-0.4455292,1.101543,0.282404,-0.419862,1.075627,0.05713328,0.4426304,1.176335,-0.1318001,-0.4327942,1.088773,0.3175124,-0.4244722,1.050706,0.05571803,-0.02865077,1.19564,0.07035367,-0.3572299,1.177949,-0.1331738,0.1357693,1.159466,-0.01664345,-0.3485115,1.141011,-0.1850878,-0.1258681,1.180244,0.2748012,-0.1346172,1.195087,NA,NA,NotTracked,NotTracked,
0.9345703,-0.3393555,0.01123047,0.8867188,0.4179688,0.07861328,0,-1,-1,1,-3,0,-1,0,-2,-1,-1,0,-2,-1,0,0,12.875,12.875,12.875,3.125,3.125,3.125,2.796505,3.094911,9.996702,7.05997,3.239023,6.456664,-0.1638884,-0.4409602,1.090797,0.2824832,-0.418605,1.071797,0.05681653,0.4426897,1.176296,-0.1252009,-0.4163994,1.094875,0.3130943,-0.4133486,1.048188,0.05509225,-0.02877869,1.195951,0.06938732,-0.357305,1.17883,-0.1336127,0.1355996,1.163205,-0.01766324,-0.348639,1.142459,-0.1833485,-0.1248439,1.181726,0.2745171,-0.13406,1.194761,NA,NA,NotTracked,NotTracked,
0.8950195,-0.3569336,0.04003906,0.8574219,0.4130859,0.1098633,-2,1,-1,-2,0,0,-2,-3,-1,-2,0,-1,-1,1,-1,-3,1.8125,1.8125,1.8125,7.4375,7.4375,7.4375,2.878151,3.13822,9.9152,7.066171,3.246036,6.464353,-0.1535228,-0.4404668,1.079148,0.2837327,-0.4158849,1.068364,0.05615574,0.4428988,1.17678,-0.1085757,-0.4414082,1.0742,0.3182223,-0.4085849,1.050571,0.05466839,-0.02887243,1.196496,0.06916705,-0.3573978,1.179443,-0.1338268,0.1352382,1.166594,-0.01791904,-0.3488009,1.143575,-0.1816655,-0.1224364,1.183254,0.2741772,-0.1335141,1.194108,NA,NA,NotTracked,NotTracked,
0.8681641,-0.3618164,0.05810547,0.8764648,0.4291992,0.1088867,-1,1,-1,-2,0,-2,-2,-1,-2,-1,-1,-1,0,-1,0,-3,-1.25,-1.25,-1.25,3.0625,3.0625,3.0625,2.932553,3.178632,9.853969,7.079752,3.248482,6.4582,-0.1476992,-0.4424956,1.069702,0.2839478,-0.4165018,1.067585,0.05546,0.4430249,1.177586,-0.1033012,-0.4375426,1.0677,0.3182323,-0.4050787,1.049347,0.05447373,-0.02905171,1.197211,0.06923172,-0.3575009,1.180056,-0.1345898,0.1349958,1.164656,-0.01785116,-0.3489696,1.144849,-0.1808792,-0.1218322,1.184016,0.2740909,-0.1328933,1.193515,NA,NA,NotTracked,NotTracked,
