ALX,ALY,ALZ,ARX,ARY,ARZ,EMG0L,EMG1L,EMG2L,EMG3L,EMG4L,EMG5L,EMG6L,EMG7L,EMG0R,EMG1R,EMG2R,EMG3R,EMG4R,EMG5R,EMG6R,EMG7R,GLX,GLY,GLZ,GRX,GRY,GRZ,ORL,OPL,OYL,ORR,OPR,OYR,LHNX,LHNY,LHNZ,RHNX,RHNY,RHNZ,HX,HY,HZ,LTX,LTY,LTZ,RTX,RTY,RTZ,SpineMidX,SpineMidY,SpineMidZ,SpineBaseX,SpineBaseY,SpineBaseZ,ShoulderLeftX,ShoulderLeftY,ShoulderLeftZ,ShoulderRightX,ShoulderRightY,ShoulderRightZ,ElbowLeftX,ElbowLeftY,ElbowLeftZ,ElbowRightX,ElbowRightY,ElbowRightZ,Myo_Pose_left,Myo_Pose_Right,Kinect_pose_left,Kinect_pose_right
0.8964844,-0.40625,0.02929688,-0.3876953,0.8129883,0.4477539,-4,-1,2,9,25,0,-4,-4,-10,-2,-3,0,1,18,-9,-19,1.0625,1.0625,1.0625,-1.4375,-1.4375,-1.4375,2.562519,3.180419,4.040991,6.675163,5.628961,7.383935,-0.1100159,-0.4050106,1.285389,0.05840689,0.01078768,1.209353,0.1255087,0.4247243,1.392709,-0.06720804,-0.3916822,1.278672,0.05105139,-0.03711414,1.239762,0.09811779,-0.03537466,1.418127,0.09441075,-0.3570355,1.39864,-0.08914228,0.1555,1.388983,0.007991477,-0.3461847,1.370694,-0.156694,-0.1125733,1.392955,0.3191688,-0.07738867,1.282439,NA,NA,Unknown,Unknown,
0.8964844,-0.4135742,0.03125,-0.4033203,0.8208008,0.4443359,1,0,0,5,9,2,3,3,-3,-1,-1,-2,-7,0,0,-2,1.4375,1.4375,1.4375,-2.25,-2.25,-2.25,2.560726,3.18232,4.044961,6.675119,5.628816,7.384589,-0.1097654,-0.404754,1.285765,0.05576489,0.01350067,1.209914,0.1254896,0.4247272,1.392769,-0.07079218,-0.3900791,1.271034,0.04664105,-0.03265817,1.24053,0.09810582,-0.03538935,1.418158,0.09441328,-0.3570634,1.39868,-0.08886803,0.1553006,1.388059,0.007973283,-0.3462142,1.370721,-0.1566679,-0.1126007,1.39311,0.3191277,-0.07748141,1.282333,NA,NA,Unknown,Unknown,
0.8930664,-0.4003906,0.04150391,-0.3964844,0.8149414,0.4482422,-1,-1,-1,-3,17,7,1,1,-4,0,4,1,0,5,0,9,0.0625,0.0625,0.0625,-1.1875,-1.1875,-1.1875,2.560056,3.181646,4.048892,6.673132,5.629136,7.385265,-0.1100893,-0.4049433,1.285461,0.06486214,0.007415008,1.21149,0.1254798,0.424727,1.392844,-0.06857543,-0.3868586,1.277449,0.04754581,-0.03472084,1.239644,0.09809212,-0.03539453,1.418216,0.09439759,-0.3570692,1.398701,-0.08882096,0.1551573,1.388521,0.007940903,-0.3462211,1.370753,-0.1566752,-0.1125936,1.393185,0.3190938,-0.07743897,1.282351,NA,NA,Unknown,Unknown,
0.8925781,-0.4082031,0.04003906,-0.390625,0.7998047,0.4501953,-2,1,-1,-3,-8,-4,-1,-1,3,-2,0,-2,-1,4,3,-3,-0.375,-0.375,-0.375,-0.125,-0.125,-0.125,2.559953,3.181147,4.049481,6.671981,5.630647,7.3827,-0.1099276,-0.4049129,1.286277,0.0583406,0.0115584,1.21028,0.1254414,0.4246926,1.392977,-0.07096335,-0.389796,1.270283,0.05485434,-0.0407053,1.240811,0.09804192,-0.03539588,1.418408,0.0943625,-0.3570762,1.398829,-0.08896906,0.155331,1.389392,0.007918431,-0.346228,1.370853,-0.1566008,-0.1125806,1.393306,0.318975,-0.07633404,1.282597,NA,NA,Unknown,Unknown,
0.9008789,-0.409668,0.04248047,-0.3930664,0.8139648,0.4575195,-1,-3,-3,-3,-5,-5,-5,-4,-11,-2,-4,-2,-9,-4,-5,-19,-0.0625,-0.0625,-0.0625,-0.8125,-0.8125,-0.8125,2.560239,3.18206,4.049526,6.670228,5.633346,7.377156,-0.1099251,-0.4053616,1.286291,0.05566732,0.01284774,1.210083,0.1254176,0.4245929,1.393063,-0.07395189,-0.3948311,1.264789,0.0492838,-0.03519638,1.241,0.09804858,-0.0354346,1.418483,0.09434548,-0.3570915,1.398885,-0.08881284,0.1551027,1.389571,0.007899238,-0.3462384,1.370913,-0.15656,-0.1127262,1.393392,0.3195627,-0.07710949,1.283787,NA,NA,Unknown,Unknown,
0.8925781,-0.4047852,0.04199219,-0.4038086,0.7983398,0.4624023,-2,-1,-1,-2,-1,3,-1,-2,0,3,0,-4,-3,4,1,-1,0.0625,0.0625,0.0625,1.0625,1.0625,1.0625,2.561737,3.182627,4.049699,6.665619,5.637566,7.370564,-0.1097788,-0.4050412,1.28751,0.06235348,0.01051397,1.211037,0.1254035,0.4245616,1.393474,-0.07153921,-0.3898627,1.271042,0.03888694,-0.02308691,1.244833,0.09807049,-0.03540232,1.418693,0.09438431,-0.3570456,1.399113,-0.08881906,0.1552387,1.390046,0.007935749,-0.3462003,1.371048,-0.1565316,-0.1125975,1.393737,0.3199897,-0.0781291,1.284963,NA,NA,Unknown,Unknown,
0.8984375,-0.4267578,0.03955078,-0.3969727,0.8603516,0.4301758,-1,0,-1,2,0,0,4,1,10,10,-5,16,33,20,12,18,-0.125,-0.125,-0.125,-3.25,-3.25,-3.25,2.5604,3.18332,4.051339,6.664299,5.640306,7.365627,-0.1100875,-0.4059694,1.287791,0.08103584,-0.005658601,1.213866,0.1253758,0.4245638,1.393755,-0.07176282,-0.392787,1.269124,0.05424803,-0.04118202,1.242237,0.09805842,-0.03540688,1.418983,0.09441264,-0.3570241,1.399344,-0.08905261,0.1552183,1.391521,0.007984754,-0.3461837,1.371258,-0.156595,-0.112486,1.394216,0.3198476,-0.0781141,1.284986,NA,NA,Unknown,Unknown,
0.90625,-0.4135742,0.03125,-0.3217773,1.081543,0.4995117,-3,0,-1,4,7,2,1,-2,-4,4,18,4,-1,-1,-6,-1,6.375,6.375,6.375,18.625,18.625,18.625,2.560696,3.187348,4.061014,6.680589,5.66346,7.341628,-0.1104697,-0.4057428,1.28714,0.09337318,0.005516246,1.215445,0.1253232,0.4245591,1.394176,-0.06977373,-0.3861964,1.27443,0.06457085,-0.04078519,1.242171,0.09804029,-0.03537832,1.419237,0.09443133,-0.3569526,1.399579,-0.08894636,0.1552584,1.392144,0.008008701,-0.3461189,1.371403,-0.1566084,-0.1121043,1.394762,0.3195559,-0.08045092,1.286111,NA,NA,Unknown,Unknown,
0.9169922,-0.3613281,0.01416016,-0.2783203,1.165039,0.3330078,2,-1,-2,-3,-4,4,3,3,-5,-1,10,0,26,10,-10,-6,21.5,21.5,21.5,-1.5,-1.5,-1.5,2.57537,3.191547,4.077055,6.671228,5.759207,7.235662,-0.110439,-0.4057897,1.287814,0.1067776,0.07415564,1.192877,0.1251286,0.4245673,1.394348,-0.07191587,-0.388248,1.271892,0.1129184,0.05107821,1.148879,0.09800897,-0.03547293,1.419482,0.09447129,-0.3570989,1.399751,-0.08704504,0.1551392,1.39233,0.008023642,-0.3462399,1.371605,-0.1564965,-0.1113151,1.396093,0.3188826,-0.08190988,1.286765,NA,NA,Unknown,Unknown,
0.862793,-0.3881836,0.03222656,-0.4833984,0.8491211,0.5444336,-2,-3,-2,-3,-4,-5,-3,-1,-1,0,14,2,-17,-8,-3,-2,11.1875,11.1875,11.1875,-21,-21,-21,2.58312,3.181026,4.109981,6.513581,5.926595,7.001148,-0.1116857,-0.4048787,1.289118,0.165538,0.09534401,1.186508,0.1245151,0.4246021,1.394221,-0.06984792,-0.3819292,1.283791,0.1939564,0.08218878,1.138175,0.09749535,-0.03587183,1.419205,0.09400641,-0.3580299,1.399818,-0.08561674,0.1563053,1.392606,0.007253012,-0.3472406,1.371772,-0.1566184,-0.1110931,1.397449,0.3131824,-0.08269468,1.283122,NA,NA,Unknown,Closed,
0.8964844,-0.4619141,0.05859375,-0.5898438,0.5395508,0.5297852,-1,-2,-1,0,-1,-1,-1,-1,-6,-6,-1,-6,-10,-12,-7,-8,4.5,4.5,4.5,84.0625,84.0625,84.0625,2.566397,3.172474,4.141021,6.388897,6.146749,6.654169,-0.1148199,-0.4037512,1.296176,0.2109153,0.1241614,1.193036,0.1229291,0.4247276,1.394034,-0.07077801,-0.3956447,1.286016,0.249029,0.1058471,1.140377,0.09675895,-0.0370766,1.418569,0.09277786,-0.3606298,1.399649,-0.08675592,0.1564188,1.392317,0.005120324,-0.3504781,1.372714,-0.1567087,-0.1112732,1.399479,0.310187,-0.07474452,1.277474,NA,NA,Unknown,Closed,
0.8935547,-0.4707031,0.0703125,-0.6630859,0.1992188,0.5385742,-2,0,-1,-1,-4,-5,-3,-3,-3,-1,0,1,0,-38,-16,-1,3.6875,3.6875,3.6875,133.875,133.875,133.875,2.557715,3.172067,4.159396,6.209937,6.434556,6.012862,-0.1170549,-0.4044597,1.298227,0.2479161,0.1547347,1.195923,0.1208067,0.4248057,1.393339,-0.07252376,-0.3893656,1.288238,0.299648,0.1442271,1.15663,0.09591807,-0.03788168,1.418349,0.09088635,-0.3627973,1.399743,-0.08972817,0.1571431,1.398112,0.003113864,-0.3524581,1.373135,-0.1571381,-0.1110558,1.402017,0.3212032,-0.07633305,1.278716,NA,NA,Unknown,Unknown,
0.8959961,-0.4169922,0.06982422,-0.8120117,0.1547852,0.4970703,1,0,1,3,5,1,1,1,5,0,-11,4,20,21,26,33,2.6875,2.6875,2.6875,126.3125,126.3125,126.3125,2.559748,3.174232,4.167415,6.219572,6.553259,5.649586,-0.1189116,-0.4049966,1.298955,0.267003,0.1616961,1.206586,0.1197855,0.4247654,1.392994,-0.07215121,-0.3977866,1.281411,0.3219566,0.1628398,1.176571,0.09568413,-0.03817224,1.418441,0.09033206,-0.3632835,1.39974,-0.09103699,0.1574075,1.401119,0.002490063,-0.3528726,1.372691,-0.1571117,-0.1109253,1.403539,0.3356831,-0.07166787,1.277995,NA,NA,Unknown,Unknown,
0.8789063,-0.4179688,0.05224609,-0.831543,0.2114258,0.4443359,0,1,-1,1,3,-1,-2,-2,3,7,3,7,-2,-12,-7,6,-2.0625,-2.0625,-2.0625,88.9375,88.9375,88.9375,2.568633,3.178615,4.157232,6.228679,6.575038,5.474812,-0.1183508,-0.4048789,1.297506,0.2630907,0.1829081,1.216026,0.1192901,0.4248989,1.392729,-0.07640237,-0.3886379,1.2803,0.3021258,0.188944,1.179941,0.09555823,-0.03831837,1.418342,0.09021192,-0.3633897,1.399793,-0.09115983,0.157518,1.40177,0.002278462,-0.3528977,1.372331,-0.1571451,-0.1105938,1.404645,0.3502842,-0.06677556,1.278961,NA,NA,Unknown,NotTracked,
0.9042969,-0.409668,0.03564453,-0.7973633,0.3305664,0.4633789,-2,-2,-3,-3,-11,1,-1,-2,-3,-3,-8,-4,8,61,6,-1,-5.5625,-5.5625,-5.5625,79.1875,79.1875,79.1875,2.568804,3.180041,4.150451,6.202333,6.56884,5.288157,-0.1172736,-0.4037777,1.296754,0.2833878,0.1879425,1.220379,0.1191317,0.424909,1.392571,-0.07357956,-0.3901306,1.285491,0.3186819,0.1915286,1.185636,0.09553488,-0.03839995,1.418189,0.09023277,-0.3634491,1.399802,-0.09097825,0.1575364,1.402263,0.002312824,-0.3529434,1.371464,-0.1570855,-0.1105931,1.404796,0.361598,-0.06249883,1.279331,NA,NA,Unknown,NotTracked,
0.918457,-0.3857422,0.02490234,-0.8579102,0.3012695,0.4526367,1,0,-1,-1,3,2,-1,-1,3,2,5,0,-1,46,17,-15,-6.125,-6.125,-6.125,67.5,67.5,67.5,2.565208,3.178804,4.144127,6.11979,6.570533,5.04912,-0.1159486,-0.4028866,1.294471,0.3723067,0.1419375,1.211821,0.1190879,0.4249889,1.392248,-0.07386592,-0.3906484,1.28279,0.4025437,0.1447682,1.216438,0.09579393,-0.03844106,1.418046,0.09056927,-0.363499,1.399763,-0.09090529,0.1575287,1.402328,0.002830724,-0.3528702,1.3704,-0.156846,-0.1105289,1.404803,0.3702012,-0.05815814,1.281311,NA,NA,Unknown,NotTracked,
0.8930664,-0.3896484,0.01660156,-0.878418,0.2246094,0.4833984,0,0,-1,7,26,1,3,-1,0,1,1,-8,-8,-17,-28,-5,-10.5625,-10.5625,-10.5625,47.1875,47.1875,47.1875,2.550179,3.172252,4.140107,5.928644,6.580318,4.654538,-0.1149654,-0.4030268,1.29458,0.3329861,0.1753191,1.224428,0.1191612,0.4249982,1.391988,-0.07919329,-0.392149,1.270639,0.3978774,0.1650284,1.2125,0.09594477,-0.03845435,1.417905,0.09104332,-0.3634365,1.39989,-0.09071288,0.1575781,1.402419,0.003293006,-0.3525951,1.369836,-0.1566594,-0.1101902,1.404581,0.3765432,-0.05431618,1.283706,NA,NA,Unknown,NotTracked,
0.9101563,-0.4116211,0.04248047,-0.862793,0.1899414,0.5322266,-1,1,-1,1,2,-1,0,-1,0,3,0,-3,7,27,6,-13,-7.5,-7.5,-7.5,28.9375,28.9375,28.9375,2.537499,3.16969,4.136112,5.85694,6.579609,4.504681,-0.1146015,-0.4042458,1.294188,0.3369995,0.1756458,1.229214,0.1194698,0.4249327,1.391696,-0.07557128,-0.3902166,1.278167,0.3950932,0.1708097,1.212647,0.09627292,-0.03841724,1.417699,0.09189641,-0.3632471,1.399934,-0.09024473,0.1576629,1.402342,0.00415642,-0.3520235,1.368914,-0.1565339,-0.1099459,1.404267,0.3811158,-0.05436541,1.284567,NA,NA,Unknown,NotTracked,
0.8959961,-0.3930664,0.03515625,-0.8608398,0.2050781,0.4995117,-1,-2,-3,-9,-16,-4,-4,-3,-2,5,9,-2,-6,-8,-12,-6,-6.5,-6.5,-6.5,14.5,14.5,14.5,2.531436,3.16581,4.133142,5.833889,6.578317,4.444995,-0.1141927,-0.4039969,1.29404,0.3424309,0.1775854,1.231374,0.1200995,0.424907,1.391388,-0.07567482,-0.3909899,1.277099,0.4219728,0.1744145,1.245,0.09665111,-0.03838927,1.417539,0.09269629,-0.363044,1.400053,-0.08930582,0.1579758,1.402023,0.004741021,-0.3517463,1.368376,-0.1562115,-0.1096522,1.403419,0.3852537,-0.05225246,1.285643,NA,NA,Unknown,NotTracked,
0.9057617,-0.3945313,0.02148438,-0.8530273,0.2192383,0.5009766,-1,3,1,2,0,4,3,3,-3,-4,-1,1,5,-8,-6,-17,-4.25,-4.25,-4.25,1.8125,1.8125,1.8125,2.523588,3.162073,4.132478,5.81721,6.572763,4.416884,-0.1135351,-0.4041875,1.29361,0.3434737,0.1778972,1.231478,0.1208297,0.4249243,1.391115,-0.07133078,-0.3890382,1.286543,0.3997806,0.174225,1.217357,0.09686545,-0.03839162,1.417497,0.09320199,-0.362956,1.400297,-0.0886867,0.158002,1.401584,0.004972184,-0.3516212,1.368224,-0.1560673,-0.1092412,1.40266,0.3864059,-0.05177245,1.287434,NA,NA,Unknown,NotTracked,
0.8999023,-0.3881836,0.02148438,-0.8491211,0.2421875,0.4838867,2,1,-1,1,12,8,2,1,-5,-2,7,-4,1,-6,4,-9,-1.875,-1.875,-1.875,-4.25,-4.25,-4.25,2.520865,3.159802,4.132607,5.794703,6.567529,4.393298,-0.113023,-0.4045355,1.294432,0.3443916,0.1779304,1.233189,0.121716,0.4248121,1.39113,-0.07554723,-0.392404,1.274911,0.4058459,0.1697624,1.219181,0.09772953,-0.03819232,1.417911,0.09394043,-0.3625311,1.400735,-0.0880953,0.1582885,1.401312,0.005473663,-0.3511032,1.368143,-0.1559612,-0.1090577,1.40228,0.386158,-0.0517906,1.287876,NA,NA,Unknown,Unknown,
0.9013672,-0.4033203,0.01953125,-0.8535156,0.2426758,0.4902344,3,0,-1,4,20,6,6,3,2,6,4,-1,-6,20,14,5,-1.0625,-1.0625,-1.0625,-5.1875,-5.1875,-5.1875,2.516922,3.160172,4.134294,5.776559,6.562165,4.382915,-0.1125465,-0.4039094,1.293901,0.3442906,0.1773123,1.231742,0.1224717,0.4246511,1.391109,-0.0749243,-0.3841694,1.279106,0.4063025,0.1714784,1.222547,0.09880126,-0.03804098,1.418439,0.09452012,-0.3622026,1.401031,-0.08755405,0.1584421,1.401012,0.005877165,-0.350705,1.368021,-0.1558,-0.1086478,1.401802,0.3868186,-0.05215428,1.287876,NA,NA,Unknown,Unknown,
0.902832,-0.394043,0.02246094,-0.8574219,0.2626953,0.4731445,-3,-2,-2,-3,-4,-2,-2,-2,-4,-8,-6,-8,-13,18,-3,2,1.4375,1.4375,1.4375,-4.4375,-4.4375,-4.4375,2.519518,3.161264,4.134945,5.776246,6.556834,4.389434,-0.1131973,-0.4047868,1.295093,0.3417113,0.1754907,1.231561,0.1229882,0.4245553,1.391252,-0.0759884,-0.3918635,1.274726,0.3973461,0.1699416,1.211688,0.09937382,-0.03786279,1.419031,0.09483798,-0.3619368,1.401422,-0.08731211,0.1584902,1.400937,0.006113678,-0.3503158,1.368134,-0.155716,-0.1084154,1.401567,0.3872707,-0.05263648,1.287885,NA,NA,Unknown,Unknown,
0.8964844,-0.3901367,0.03466797,-0.8530273,0.2651367,0.4975586,-3,-3,0,2,2,-4,-2,0,7,2,5,1,-2,-32,-13,54,-0.75,-0.75,-0.75,-3.9375,-3.9375,-3.9375,2.520625,3.161351,4.135396,5.786241,6.545421,4.409648,-0.1132603,-0.4043297,1.294841,0.3427632,0.1746324,1.230392,0.123243,0.4245902,1.391403,-0.07446183,-0.3918325,1.277073,0.4035825,0.1702294,1.218089,0.09976666,-0.037745,1.41946,0.09502873,-0.3617525,1.401665,-0.08711939,0.1586184,1.400889,0.006266393,-0.35003,1.368247,-0.1557237,-0.1083348,1.40146,0.3871451,-0.05310011,1.288522,NA,NA,Unknown,Unknown,
0.9033203,-0.4038086,0.02636719,-0.8549805,0.2553711,0.4790039,1,1,1,-4,5,-1,-2,1,-2,0,-4,-4,-1,48,13,-12,0.125,0.125,0.125,-5.8125,-5.8125,-5.8125,2.520817,3.162338,4.136163,5.800522,6.540642,4.436614,-0.112885,-0.4032237,1.295387,0.3416746,0.1742316,1.230164,0.1233391,0.4245602,1.391583,-0.07495584,-0.3933377,1.27585,0.4038051,0.1685562,1.217549,0.09998105,-0.03768613,1.419899,0.09516614,-0.3616817,1.401917,-0.08702086,0.1586451,1.400887,0.006346061,-0.3499136,1.368317,-0.1558683,-0.1079967,1.401478,0.3872049,-0.05395565,1.289431,NA,NA,Unknown,Unknown,
0.8999023,-0.3920898,0.02734375,-0.8432617,0.2587891,0.4799805,-2,-1,-3,0,-1,-3,-1,-2,13,18,4,-2,-3,8,-1,9,-0.5,-0.5,-0.5,-0.6875,-0.6875,-0.6875,2.524882,3.162396,4.132566,5.807361,6.537956,4.449058,-0.1129743,-0.4033765,1.295043,0.3400045,0.1737917,1.228131,0.1233608,0.4245377,1.391794,-0.07408191,-0.3928972,1.278619,0.4032092,0.1702304,1.218603,0.1000145,-0.03764974,1.419967,0.09526077,-0.361618,1.402041,-0.08697505,0.158768,1.400884,0.006423095,-0.349836,1.368325,-0.1558909,-0.1079863,1.401445,0.3876235,-0.05314046,1.289932,NA,NA,Unknown,Unknown,
0.9052734,-0.4047852,0.04541016,-0.8417969,0.2744141,0.4975586,-3,-1,-3,-4,-7,-5,-3,-2,5,-2,-5,-2,-1,-5,1,18,0.75,0.75,0.75,-1.875,-1.875,-1.875,2.527358,3.162632,4.127303,5.813758,6.533043,4.461205,-0.1132165,-0.4030141,1.295991,0.3386891,0.1738348,1.227237,0.1232652,0.4245956,1.392031,-0.07531199,-0.3914747,1.27733,0.4006775,0.1687832,1.215266,0.1000613,-0.03756018,1.420241,0.0953282,-0.3615546,1.402356,-0.08696643,0.1588246,1.400935,0.00647592,-0.3497305,1.3685,-0.1559323,-0.1078834,1.401459,0.3873515,-0.05224033,1.290427,NA,NA,Unknown,Unknown,
0.90625,-0.394043,0.03515625,-0.8442383,0.2988281,0.4755859,0,-2,0,6,6,2,1,0,-8,-10,-4,-5,-10,26,10,-20,0.5625,0.5625,0.5625,0.1875,0.1875,0.1875,2.530904,3.161795,4.126141,5.825864,6.529869,4.479025,-0.1128086,-0.4035701,1.295198,0.3382413,0.173686,1.225972,0.1230497,0.4246228,1.392224,-0.07132214,-0.3937592,1.282231,0.399588,0.1713108,1.216531,0.1000558,-0.0374727,1.420489,0.09538819,-0.3614275,1.402693,-0.08698481,0.1589512,1.401013,0.006525414,-0.3495843,1.368743,-0.1559316,-0.1078952,1.401446,0.3875374,-0.05181729,1.290102,NA,NA,Unknown,Unknown,
0.8999023,-0.3901367,0.02246094,-0.8374023,0.2827148,0.4990234,-2,-1,-3,-13,-25,2,-8,-6,-7,-6,-2,-3,-5,-14,-6,-1,0.0625,0.0625,0.0625,1.8125,1.8125,1.8125,2.535777,3.160404,4.124085,5.828562,6.527656,4.483907,-0.1127749,-0.4040016,1.296366,0.3382701,0.174648,1.226916,0.1227414,0.4246654,1.392453,-0.07367405,-0.3926929,1.277854,0.3987704,0.1704632,1.214608,0.1000166,-0.03744751,1.420651,0.09543531,-0.3613374,1.403032,-0.0870302,0.1590525,1.401099,0.006561589,-0.3494617,1.369059,-0.1560031,-0.1078476,1.40146,0.3867764,-0.05145787,1.290814,NA,NA,Unknown,Unknown,
0.902832,-0.4003906,0.03662109,-0.8310547,0.2763672,0.5,0,-1,-1,-2,-4,0,1,0,1,6,-1,5,20,1,7,2,0.3125,0.3125,0.3125,-1.75,-1.75,-1.75,2.533871,3.159618,4.124738,5.83049,6.52538,4.487672,-0.1130888,-0.4036005,1.296189,0.3362876,0.1745924,1.225239,0.1222573,0.4247112,1.392656,-0.0688334,-0.4047272,1.287,0.3970066,0.1644801,1.206818,0.09983722,-0.03745088,1.420564,0.09546257,-0.361376,1.403235,-0.08707057,0.1591023,1.401086,0.006575249,-0.3495041,1.369201,-0.1559578,-0.107925,1.401453,0.3872011,-0.05104477,1.290606,NA,NA,Unknown,Unknown,
0.9033203,-0.4003906,0.04296875,-0.8383789,0.2797852,0.4829102,1,0,0,3,4,-2,0,-1,0,6,2,-1,12,22,-6,7,-0.1875,-0.1875,-0.1875,-1.125,-1.125,-1.125,2.534253,3.160406,4.124674,5.8348,6.525255,4.496167,-0.1130324,-0.4039033,1.297272,0.3377398,0.1767503,1.227056,0.1219619,0.4247947,1.392969,-0.07523397,-0.390011,1.279224,0.3935499,0.1728657,1.211471,0.09971616,-0.03744789,1.420564,0.09542158,-0.3614239,1.403596,-0.08720128,0.1592671,1.401209,0.006537449,-0.3495467,1.369545,-0.1560044,-0.1079306,1.401579,0.3874007,-0.05054833,1.290565,NA,NA,Unknown,Unknown,
0.8974609,-0.3950195,0.02441406,-0.8330078,0.2880859,0.4941406,-1,-2,0,2,-4,-3,-1,-2,37,45,34,13,30,51,32,20,-0.375,-0.375,-0.375,-0.0625,-0.0625,-0.0625,2.535288,3.160804,4.1236,5.836884,6.521873,4.503437,-0.1128654,-0.4036281,1.297323,0.3366418,0.1765153,1.227709,0.1216235,0.4248579,1.393305,-0.07169525,-0.3931899,1.283684,0.3967236,0.1688092,1.210943,0.09963585,-0.03735131,1.42098,0.09539668,-0.3612992,1.40392,-0.08735583,0.1594656,1.401317,0.006515039,-0.3493541,1.369943,-0.1560597,-0.1078263,1.401609,0.3868967,-0.04999466,1.290193,NA,NA,Unknown,Unknown,
0.9052734,-0.3925781,0.03027344,-0.8105469,0.3046875,0.4765625,-1,1,0,2,4,1,-1,-1,-5,1,0,-3,-1,-23,-5,-13,-0.125,-0.125,-0.125,-1.8125,-1.8125,-1.8125,2.534627,3.161089,4.124393,5.841705,6.520025,4.507581,-0.1129446,-0.4035167,1.296466,0.3365716,0.1757817,1.226981,0.1213482,0.424929,1.393629,-0.07177475,-0.3903122,1.285425,0.3978906,0.1682915,1.212359,0.09948079,-0.0373978,1.42092,0.09535809,-0.3613856,1.404075,-0.08757887,0.1588103,1.397756,0.006450695,-0.3494545,1.370079,-0.156105,-0.1077667,1.401672,0.3870198,-0.05016143,1.290628,NA,NA,Unknown,Unknown,
0.9003906,-0.3950195,0.03759766,-1.171387,0.1704102,0.8085938,-1,-4,-1,-3,-9,-2,-2,-2,-4,-8,-10,-11,-32,-22,-13,1,-2.375,-2.375,-2.375,-5.375,-5.375,-5.375,2.533984,3.160918,4.123996,5.841192,6.537063,4.508542,-0.1132789,-0.4037843,1.296739,0.3367345,0.1766081,1.227523,0.1209463,0.4247957,1.39399,-0.07364485,-0.390436,1.282163,0.3985375,0.1699787,1.214243,0.09927494,-0.03740366,1.420876,0.09529866,-0.361424,1.404251,-0.08795343,0.1591673,1.398637,0.006384602,-0.3495023,1.370254,-0.1562073,-0.1077597,1.401736,0.3869332,-0.05014123,1.29097,NA,NA,Unknown,Unknown,
0.8916016,-0.3876953,0.02441406,-1.477539,0.1958008,0.2983398,-2,-1,-1,-1,-2,-2,-1,-1,-1,6,1,3,19,30,7,5,-0.6875,-0.6875,-0.6875,4.875,4.875,4.875,2.534284,3.159407,4.122777,5.869062,6.540112,4.526931,-0.1134571,-0.4031888,1.297348,0.3356738,0.1763928,1.228693,0.1206114,0.4248278,1.3944,-0.07162111,-0.3906233,1.287796,0.3981716,0.1689565,1.212643,0.09907945,-0.03743053,1.420792,0.09526011,-0.3614495,1.404365,-0.08818577,0.1594248,1.399145,0.006338211,-0.3495368,1.370325,-0.15627,-0.107711,1.401803,0.3866439,-0.05038394,1.291446,NA,NA,Unknown,Unknown,
0.9023438,-0.4072266,0.03515625,-0.8168945,0.3505859,0.09863281,3,0,0,0,6,2,2,3,-8,-5,-2,0,8,6,-18,-15,2.1875,2.1875,2.1875,10,10,10,2.535973,3.159738,4.121151,5.874303,6.513598,4.533103,-0.1137718,-0.4039754,1.298362,0.3361836,0.1763164,1.229327,0.1204336,0.4249336,1.39465,-0.07351762,-0.3912316,1.281862,0.3968798,0.1697513,1.212147,0.09898113,-0.0372534,1.421327,0.09523829,-0.3613103,1.404645,-0.08844569,0.1596892,1.399767,0.006291468,-0.3493906,1.370577,-0.156438,-0.1076635,1.40189,0.3859927,-0.05051982,1.291239,NA,NA,Unknown,Unknown,
0.8964844,-0.4033203,0.03466797,-0.8364258,0.2788086,0.4882813,-2,-2,0,0,0,-2,-1,-2,-6,-8,-3,-2,2,5,-9,-17,0.5625,0.5625,0.5625,-1.25,-1.25,-1.25,2.541174,3.160122,4.120025,5.875044,6.534052,4.535668,-0.1135398,-0.4033111,1.297003,0.3351279,0.1739258,1.227095,0.1201817,0.4249748,1.394908,-0.07461467,-0.3896771,1.280488,0.3954898,0.1702495,1.212709,0.09883303,-0.03719418,1.421593,0.09513541,-0.3612758,1.404853,-0.08868574,0.1597902,1.400189,0.006192036,-0.3493751,1.370768,-0.1565902,-0.1076121,1.401946,0.3858638,-0.05081318,1.291426,NA,NA,Unknown,Unknown,
0.9018555,-0.394043,0.03125,-0.8422852,0.2963867,0.4926758,1,-1,-1,-4,-2,4,1,0,9,14,7,-1,-7,-17,-1,5,1.1875,1.1875,1.1875,-1.75,-1.75,-1.75,2.544108,3.161325,4.119908,5.87378,6.532311,4.538105,-0.1130493,-0.4039958,1.297348,0.3339766,0.1737709,1.227223,0.1198837,0.4249763,1.39514,-0.07892889,-0.3930163,1.273189,0.3909861,0.1721876,1.211416,0.09872542,-0.03722869,1.421529,0.09510636,-0.3613137,1.404982,-0.08885606,0.1597551,1.400416,0.006168685,-0.3494308,1.370922,-0.156629,-0.1075136,1.401989,0.3856947,-0.05067585,1.291934,NA,NA,Unknown,Unknown,
0.9047852,-0.3994141,0.03613281,-0.8393555,0.2978516,0.4936523,-1,-1,1,-2,0,-1,-1,3,1,8,7,2,4,8,-7,-10,0.75,0.75,0.75,-1.5,-1.5,-1.5,2.543011,3.162348,4.123362,5.871495,6.530995,4.537021,-0.1136223,-0.4041777,1.297375,0.3336792,0.173718,1.226752,0.1195919,0.4250852,1.395493,-0.07529022,-0.3906299,1.280002,0.3947987,0.1688777,1.211098,0.09863252,-0.03725614,1.421466,0.09508855,-0.361326,1.405051,-0.08905015,0.1597881,1.400681,0.006156024,-0.3494502,1.370982,-0.15669,-0.1075775,1.402034,0.3855433,-0.05053405,1.2916,NA,NA,Unknown,Unknown,
0.9038086,-0.3974609,0.03857422,-0.8344727,0.2895508,0.4746094,1,0,-1,0,1,-2,1,2,-6,-13,-10,-4,-2,-16,-13,0,0.3125,0.3125,0.3125,-1.5625,-1.5625,-1.5625,2.543067,3.162358,4.126036,5.870288,6.530638,4.539495,-0.1135635,-0.4040609,1.297087,0.3325128,0.1729017,1.225857,0.1193123,0.4250968,1.395705,-0.07487585,-0.3897838,1.279981,0.3925477,0.1657888,1.206425,0.09856223,-0.03723396,1.421803,0.09507585,-0.3613191,1.405175,-0.08933891,0.1597724,1.401024,0.006150295,-0.3494536,1.371122,-0.1567401,-0.1076091,1.402077,0.3850987,-0.05066424,1.292052,NA,NA,Unknown,Unknown,
0.9052734,-0.3999023,0.03222656,-0.8334961,0.2939453,0.4941406,-2,-2,-1,-2,-12,-5,-1,-2,-1,4,4,2,-9,-18,3,-1,2,2,2,-0.875,-0.875,-0.875,2.544194,3.16244,4.129847,5.869509,6.529534,4.543479,-0.1130012,-0.4039153,1.296603,0.3327968,0.1730493,1.225028,0.1192092,0.4250917,1.395773,-0.07048126,-0.3942445,1.286222,0.3902864,0.1620019,1.201636,0.09843016,-0.0373006,1.421709,0.09503493,-0.3613893,1.405278,-0.08943902,0.1597453,1.40125,0.006113641,-0.3495407,1.371225,-0.1567982,-0.10755,1.402156,0.3849791,-0.05089863,1.292839,NA,NA,Unknown,Unknown,
0.8979492,-0.3984375,0.03759766,-0.8369141,0.2910156,0.487793,-3,-2,-2,-8,-20,-10,-3,-2,5,8,4,-2,-6,9,-1,2,1.375,1.375,1.375,-2,-2,-2,2.545677,3.163074,4.132456,5.867795,6.529758,4.543922,-0.113603,-0.4036089,1.29744,0.3324204,0.1727532,1.225072,0.1191022,0.4250184,1.395888,-0.07027619,-0.3701858,1.289556,0.3911408,0.1600712,1.2011,0.09828576,-0.03736829,1.421616,0.09497748,-0.3614457,1.405337,-0.08951283,0.1597324,1.401433,0.006072423,-0.3495909,1.371255,-0.156843,-0.1075915,1.402231,0.3851102,-0.05087383,1.292833,NA,NA,Unknown,Unknown,
0.8994141,-0.4052734,0.03271484,-0.8330078,0.2924805,0.4960938,3,-1,0,-1,2,1,-1,0,2,-4,-2,-3,-5,8,6,10,0,0,0,-1.625,-1.625,-1.625,2.544171,3.163512,4.135303,5.866122,6.527909,4.546661,-0.1138166,-0.4035102,1.29698,0.3327848,0.1734295,1.225064,0.1189639,0.4249231,1.395863,-0.07318166,-0.382171,1.284295,0.3919836,0.1679943,1.208781,0.09821822,-0.03741512,1.421473,0.09497714,-0.3614725,1.40533,-0.08955179,0.159724,1.40156,0.006092634,-0.349675,1.371215,-0.1568328,-0.1076269,1.402281,0.3851095,-0.0507551,1.292658,NA,NA,Unknown,Unknown,
0.8911133,-0.3969727,0.03369141,-0.8359375,0.3066406,0.4916992,0,-1,0,-1,2,2,2,3,-5,-2,3,-1,-3,-23,-10,-17,0.3125,0.3125,0.3125,-2.375,-2.375,-2.375,2.545266,3.16336,4.1355,5.868832,6.524735,4.555493,-0.1136376,-0.4033594,1.297276,0.3324783,0.1722331,1.222898,0.1188954,0.4249163,1.395791,-0.07655873,-0.3903406,1.277577,0.3926276,0.1663346,1.206974,0.09810825,-0.03744452,1.421379,0.09492836,-0.3614975,1.405356,-0.08964318,0.1597638,1.401616,0.006032445,-0.3497083,1.371255,-0.1568641,-0.1076883,1.402302,0.3845425,-0.05132378,1.292952,NA,NA,Unknown,Unknown,
0.9033203,-0.4057617,0.03515625,-0.8354492,0.3066406,0.4838867,2,0,1,3,1,1,5,2,-2,-5,-7,-2,11,22,6,-10,0.25,0.25,0.25,-0.3125,-0.3125,-0.3125,2.545768,3.16241,4.136167,5.872811,6.521265,4.563366,-0.1142366,-0.4037534,1.29711,0.3303063,0.1730943,1.22368,0.1188021,0.4248854,1.395746,-0.07403268,-0.3844777,1.282604,0.3835357,0.1665976,1.19925,0.09803309,-0.03749322,1.421309,0.09487792,-0.3615524,1.405393,-0.08967438,0.1597244,1.401653,0.005975279,-0.3497778,1.371296,-0.1568542,-0.1077545,1.402316,0.3845475,-0.0513511,1.292712,NA,NA,Unknown,Unknown,
