ALX,ALY,ALZ,ARX,ARY,ARZ,EMG0L,EMG1L,EMG2L,EMG3L,EMG4L,EMG5L,EMG6L,EMG7L,EMG0R,EMG1R,EMG2R,EMG3R,EMG4R,EMG5R,EMG6R,EMG7R,GLX,GLY,GLZ,GRX,GRY,GRZ,ORL,OPL,OYL,ORR,OPR,OYR,LHNX,LHNY,LHNZ,RHNX,RHNY,RHNZ,HX,HY,HZ,LTX,LTY,LTZ,RTX,RTY,RTZ,SpineMidX,SpineMidY,SpineMidZ,SpineBaseX,SpineBaseY,SpineBaseZ,ShoulderLeftX,ShoulderLeftY,ShoulderLeftZ,ShoulderRightX,ShoulderRightY,ShoulderRightZ,ElbowLeftX,ElbowLeftY,ElbowLeftZ,ElbowRightX,ElbowRightY,ElbowRightZ,Myo_Pose_left,Myo_Pose_Right,Kinect_pose_left,Kinect_pose_right
-0.1196289,-1.009277,0.2368164,-0.1958008,1.001465,0.1147461,-2,-2,-3,-4,-2,1,-2,-4,0,1,0,0,-2,-2,1,1,-3.875,-3.875,-3.875,1.9375,1.9375,1.9375,2.859888,5.172369,4.702409,7.304388,5.302307,2.428243,-0.04558648,-0.1102409,1.097673,0.2345942,-0.08378323,1.076594,0.1169016,0.4191239,1.375354,-0.00698112,-0.09744479,1.116667,0.1852761,-0.09459217,1.09524,0.1048125,-0.0386356,1.407341,0.1058987,-0.3576515,1.389647,-0.08386348,0.1554998,1.388101,0.01755378,-0.3469909,1.357969,-0.1923474,-0.09527646,1.365543,0.3491067,-0.06841039,1.344767,NA,NA,Unknown,Unknown,
-0.1318359,-0.9780273,0.237793,-0.2216797,0.9477539,0.1025391,-1,-1,-3,-4,-5,-3,-4,1,4,1,0,0,-2,-2,-3,-3,-2.875,-2.875,-2.875,-2.125,-2.125,-2.125,2.860426,5.174069,4.702616,7.306571,5.304174,2.430862,-0.04602961,-0.1103587,1.097945,0.2351325,-0.08390012,1.077693,0.1169613,0.4190907,1.375469,0.000312484,-0.120896,1.0969,0.1859877,-0.09567322,1.094624,0.1048288,-0.03861746,1.407496,0.1059037,-0.357594,1.389845,-0.08380085,0.1555917,1.388178,0.01755785,-0.3469145,1.358186,-0.1927146,-0.09527415,1.36611,0.3488577,-0.06841802,1.345345,NA,NA,Closed,Unknown,
-0.09619141,-1.025391,0.2441406,-0.1889648,0.9833984,0.1176758,-3,-3,-8,0,0,4,-2,-10,-7,-3,-2,0,0,-3,-5,-3,0.8125,0.8125,0.8125,2,2,2,2.858508,5.168454,4.704853,7.307904,5.306339,2.422372,-0.04611398,-0.1108953,1.098137,0.2360983,-0.0847541,1.077357,0.1170746,0.4190995,1.375698,0.002099769,-0.119565,1.107,0.1905289,-0.09381828,1.087,0.104901,-0.03853374,1.407681,0.1059032,-0.3574825,1.390098,-0.08380098,0.1555835,1.388296,0.01756205,-0.3467909,1.358417,-0.1926692,-0.09533791,1.366567,0.3493665,-0.06821358,1.345623,NA,NA,Closed,Unknown,
-0.1049805,-1.012207,0.2324219,-0.1816406,0.984375,0.1020508,-1,-1,-2,-2,-2,-3,-1,5,-1,-6,-4,-2,1,-2,-3,-4,-0.0625,-0.0625,-0.0625,-0.5625,-0.5625,-0.5625,2.858227,5.164052,4.701862,7.303941,5.299805,2.418795,-0.0461296,-0.1108079,1.100077,0.2353521,-0.08521034,1.078935,0.1172019,0.4191384,1.37594,-0.01545914,-0.09091707,1.106429,0.1871694,-0.09430412,1.096704,0.1049178,-0.03842715,1.408247,0.105836,-0.357335,1.390782,-0.08358417,0.1560761,1.389383,0.01751172,-0.3466157,1.359143,-0.1924847,-0.09497416,1.366705,0.3492944,-0.0682647,1.346845,NA,NA,Closed,Unknown,
-0.1010742,-1.011719,0.2275391,-0.2109375,0.9716797,0.1049805,-2,-2,-4,-1,2,1,-2,0,2,-4,1,0,3,2,1,-1,-3.5625,-3.5625,-3.5625,-1.0625,-1.0625,-1.0625,2.852782,5.161315,4.69939,7.30343,5.300391,2.419232,-0.04598773,-0.111569,1.100914,0.2357124,-0.08541891,1.079138,0.1173962,0.4190733,1.376042,0.004558126,-0.1205551,1.1158,0.1878467,-0.09505713,1.1112,0.1049847,-0.03840312,1.408631,0.1057532,-0.3572213,1.391196,-0.08352184,0.1561236,1.389477,0.01742245,-0.3464518,1.359531,-0.1928671,-0.09175306,1.371073,0.3494545,-0.06825054,1.347192,NA,NA,Unknown,Unknown,
-0.09472656,-0.9990234,0.2265625,-0.1948242,0.9863281,0.1025391,1,1,2,-1,-2,-4,-4,-5,-1,-7,-5,1,0,-2,-1,0,-0.5625,-0.5625,-0.5625,-0.9375,-0.9375,-0.9375,2.851303,5.156638,4.696472,7.305047,5.298094,2.417858,-0.04521514,-0.1114108,1.100282,0.2349544,-0.08615203,1.079451,0.1174921,0.4189489,1.376148,-0.006852362,-0.09774609,1.1125,0.1890668,-0.0958291,1.097715,0.1049545,-0.03840226,1.408885,0.1056063,-0.3571464,1.391638,-0.08351301,0.1562265,1.38961,0.01728613,-0.3463596,1.359942,-0.1928533,-0.0917334,1.371265,0.3495474,-0.06823697,1.347961,NA,NA,Closed,Unknown,
-0.1049805,-0.9921875,0.2163086,-0.2021484,0.9741211,0.1040039,-2,-4,-1,0,0,-3,0,-1,-3,-3,0,-2,-1,0,0,-6,0.625,0.625,0.625,-0.5625,-0.5625,-0.5625,2.847266,5.149966,4.692839,7.305348,5.297577,2.417184,-0.04623805,-0.1118432,1.102193,0.2350561,-0.08643234,1.079903,0.117635,0.418779,1.376248,0.0003151305,-0.1192149,1.1034,0.1889797,-0.09568939,1.098896,0.1048719,-0.03838262,1.409257,0.1053475,-0.3570767,1.392307,-0.08345423,0.156407,1.389826,0.01706176,-0.3462224,1.360462,-0.1929552,-0.0922481,1.371012,0.3499452,-0.06811689,1.348976,NA,NA,Closed,Unknown,
-0.08886719,-0.9921875,0.222168,-0.1958008,0.9956055,0.1113281,0,0,-1,-6,-4,0,0,-1,-3,-5,-2,-1,-1,-2,-2,-1,-6.1875,-6.1875,-6.1875,2.3125,2.3125,2.3125,2.840067,5.141402,4.692109,7.311492,5.29544,2.417089,-0.04668972,-0.1130362,1.102443,0.2360016,-0.08686823,1.080778,0.117808,0.4186805,1.376415,-0.000297034,-0.1244379,1.1069,0.1875896,-0.09681963,1.099378,0.1048821,-0.03837223,1.409773,0.1051212,-0.3569787,1.393154,-0.08343679,0.1566583,1.39014,0.01685772,-0.3460912,1.361162,-0.1933435,-0.09174567,1.371657,0.3505422,-0.06789085,1.349462,NA,NA,Closed,Unknown,
-0.1118164,-0.8984375,0.2172852,-0.1943359,0.9663086,0.1103516,0,1,0,-2,-1,0,-1,-3,-3,-12,-2,-3,-2,-3,-4,-2,1.5,1.5,1.5,0.125,0.125,0.125,2.84074,5.125698,4.69537,7.313919,5.292461,2.416919,-0.04797053,-0.114905,1.102648,0.2363837,-0.08675745,1.080151,0.1179161,0.4185711,1.376439,-0.01540123,-0.09328409,1.1204,0.1900044,-0.09600274,1.096001,0.1047875,-0.03836729,1.410265,0.1048578,-0.3569238,1.393986,-0.08328822,0.1570442,1.390815,0.01662062,-0.3459652,1.361924,-0.1937994,-0.09076433,1.371986,0.3505975,-0.06784102,1.350112,NA,NA,Closed,Unknown,
-0.1455078,-0.6982422,0.1362305,-0.2045898,0.862793,0.112793,3,2,2,3,-3,-11,0,-4,-9,0,-2,-3,-2,-5,-12,-38,6,6,6,-1,-1,-1,2.856595,5.02121,4.725819,7.312784,5.28197,2.416756,-0.05038463,-0.1257568,1.100157,0.2351118,-0.09317522,1.078843,0.1179712,0.4184819,1.376619,-0.004697091,-0.1233641,1.113375,0.1905546,-0.1026856,1.087467,0.1047194,-0.03838373,1.410797,0.104638,-0.3569021,1.394856,-0.08340329,0.157291,1.391129,0.01635387,-0.3459325,1.362919,-0.1938273,-0.0904863,1.371849,0.3507321,-0.06775543,1.350726,NA,NA,Unknown,Unknown,
0.02832031,-0.7280273,0.168457,-0.1748047,0.5380859,0.1386719,11,2,-4,2,10,-10,-3,-2,7,-16,-7,0,-1,0,-2,-1,-13.375,-13.375,-13.375,15.625,15.625,15.625,2.842642,4.839204,4.766883,7.315521,5.170717,2.429683,-0.05595108,-0.1582938,1.093616,0.2354359,-0.1182975,1.073286,0.1179997,0.4183654,1.376887,-0.01487299,-0.1490621,1.103778,0.1892622,-0.1261625,1.100625,0.1046365,-0.03845197,1.411458,0.1045849,-0.357002,1.395303,-0.0834794,0.157347,1.391322,0.01629472,-0.3460516,1.36327,-0.1920202,-0.08815026,1.37265,0.3776313,-0.07580254,1.354027,NA,NA,Closed,Unknown,
0.4770508,-0.9174805,0.2451172,-0.04003906,0.6948242,-0.006347656,6,2,-1,-7,-4,-4,-2,8,14,11,-4,0,-4,-1,3,2,-24.3125,-24.3125,-24.3125,18.3125,18.3125,18.3125,2.809383,4.611835,4.782639,7.352024,4.927953,2.450406,-0.06478125,-0.2064147,1.105178,0.2365085,-0.171524,1.067775,0.1181133,0.4181523,1.377854,-0.01591496,-0.2067031,1.1033,0.193338,-0.1770329,1.081706,0.1046248,-0.03863745,1.412133,0.1046196,-0.3572709,1.395378,-0.0835954,0.1572937,1.391634,0.01645199,-0.3464841,1.363291,-0.1868323,-0.08549441,1.371059,0.3739418,-0.08059375,1.351505,NA,NA,Unknown,Closed,
0.4169922,-1.061523,0.2373047,0.472168,0.956543,0.01074219,0,2,-1,-10,-9,-4,6,5,-5,2,-1,-6,-3,-3,2,-10,-7.3125,-7.3125,-7.3125,18.5625,18.5625,18.5625,2.769627,4.375885,4.779852,7.416153,4.536527,2.437378,-0.0659343,-0.2525952,1.113816,0.2378869,-0.2390927,1.071028,0.117966,0.4183578,1.380327,-0.02067009,-0.2497379,1.107389,0.1986255,-0.2380962,1.092125,0.1045924,-0.03885363,1.412572,0.1044797,-0.3580186,1.395051,-0.08366819,0.1571787,1.391755,0.0165095,-0.3477007,1.36283,-0.1559783,-0.07784718,1.373859,0.3613916,-0.10571,1.331581,NA,NA,Unknown,Unknown,
0.6972656,-0.8393555,0.1274414,0.5849609,0.9301758,-0.002929688,0,-5,0,10,0,-3,-1,-2,-6,-12,-8,-4,-1,1,2,-2,-31.5625,-31.5625,-31.5625,0.875,0.875,0.875,2.735816,4.065567,4.789853,7.419379,4.224406,2.420221,-0.06674778,-0.2960014,1.127806,0.242715,-0.2977532,1.090516,0.1175145,0.4188049,1.38358,-0.0248199,-0.2908506,1.106762,0.2003449,-0.3011745,1.096238,0.1045562,-0.0390714,1.413218,0.1044749,-0.3587904,1.39491,-0.08372644,0.1571404,1.391813,0.01640507,-0.3486989,1.362539,-0.1505636,-0.08149974,1.369998,0.338486,-0.1003113,1.341573,NA,NA,Closed,Closed,
0.6787109,-0.7592773,0.1313477,0.8076172,0.9023438,-0.02246094,69,17,-8,-7,-10,5,0,0,0,3,-2,-2,3,-1,-23,7,-27.9375,-27.9375,-27.9375,7.75,7.75,7.75,2.694984,3.860843,4.781951,7.455119,3.938022,2.377448,-0.06916139,-0.3247758,1.149902,0.249385,-0.3441176,1.120052,0.1169735,0.4194607,1.386281,-0.02659645,-0.327046,1.114636,0.2037024,-0.3559439,1.115813,0.1046513,-0.03931743,1.413973,0.1046006,-0.3594906,1.394901,-0.08387225,0.1570947,1.391919,0.01631204,-0.3494811,1.362588,-0.1464599,-0.08445136,1.365334,0.3314644,-0.1046608,1.338191,NA,NA,Closed,Unknown,
0.8183594,-0.6860352,0.07714844,0.90625,0.6938477,0.02197266,-22,-16,-4,-15,-4,-2,2,3,-3,-1,0,-1,-1,0,-18,2,-15.8125,-15.8125,-15.8125,21.5,21.5,21.5,2.638179,3.634659,4.810217,7.503374,3.69438,2.338135,-0.07252984,-0.3516722,1.174905,0.2522639,-0.3847959,1.147016,0.1166,0.4197657,1.387812,-0.0217436,-0.3542795,1.166286,0.230468,-0.3722774,1.211,0.1047463,-0.03943958,1.414716,0.1048329,-0.3600035,1.395023,-0.08390766,0.1570647,1.391907,0.01635829,-0.3501295,1.362745,-0.1422113,-0.09000508,1.358179,0.3275805,-0.1072526,1.334771,NA,NA,Closed,Unknown,
0.8525391,-0.5361328,0.02392578,0.8735352,0.6435547,-0.08691406,27,20,2,23,1,2,-4,-5,-2,1,-2,-1,-4,-1,3,-1,-64.6875,-64.6875,-64.6875,66.625,66.625,66.625,2.496479,3.374051,4.885177,7.641088,3.453587,2.338064,-0.07570887,-0.3786628,1.200435,0.2589608,-0.4009736,1.178519,0.1162986,0.4198189,1.388366,-0.02413285,-0.3844938,1.189182,0.2151504,-0.4085157,1.179588,0.1048075,-0.03952907,1.415004,0.1050424,-0.3603263,1.395045,-0.08382309,0.1569478,1.391671,0.01641469,-0.3504576,1.362784,-0.1374338,-0.09719337,1.350595,0.3251711,-0.1107775,1.332545,NA,NA,Closed,Unknown,
1.006836,-0.5976563,-0.03515625,0.9360352,0.5,0.007324219,0,-2,-6,-7,-5,5,-1,-2,-1,0,-1,6,3,0,-3,-3,-72.375,-72.375,-72.375,42.875,42.875,42.875,2.339595,3.242097,4.936066,7.704267,3.324875,2.353581,-0.08039439,-0.3952309,1.227583,0.2620853,-0.4104646,1.206949,0.1160392,0.4198888,1.388647,-0.03511075,-0.3988491,1.219769,0.2169811,-0.4207311,1.203154,0.104931,-0.03953171,1.415279,0.1050661,-0.3604471,1.395105,-0.08358707,0.1567707,1.391035,0.01635513,-0.3505633,1.362895,-0.1351116,-0.1006924,1.347142,0.3243236,-0.113923,1.33188,NA,NA,Closed,Closed,
0.8901367,-0.5322266,-0.08007813,0.9116211,0.6005859,-0.1098633,5,2,5,0,8,4,2,9,-3,-2,-1,-3,3,0,1,-3,-6.1875,-6.1875,-6.1875,60.875,60.875,60.875,2.280431,3.183774,4.941428,7.765678,3.255701,2.390714,-0.08182344,-0.402885,1.242262,0.2629052,-0.4154703,1.223576,0.1158596,0.4199567,1.388674,-0.0393448,-0.3966796,1.245137,0.2227201,-0.4204582,1.211421,0.1049426,-0.03950189,1.415424,0.1050396,-0.3605051,1.39518,-0.08357536,0.1560973,1.389273,0.01625391,-0.3505628,1.363035,-0.1331618,-0.1033394,1.3448,0.3239352,-0.1163015,1.332473,NA,NA,Closed,Closed,
0.8823242,-0.5087891,-0.07275391,0.8242188,0.4770508,-0.1264648,-4,-1,-2,3,0,-4,2,-3,-2,-2,1,3,2,0,0,1,-3.625,-3.625,-3.625,-12.6875,-12.6875,-12.6875,2.288442,3.191034,4.925625,7.757012,3.234955,2.436023,-0.08150585,-0.4029969,1.247144,0.2605931,-0.4148351,1.233854,0.1156339,0.4199323,1.388435,-0.03137005,-0.4095352,1.238828,0.2161134,-0.4205562,1.226146,0.1049839,-0.03948157,1.415481,0.1050183,-0.3605386,1.395219,-0.0836992,0.1557526,1.387034,0.01616739,-0.3505563,1.363064,-0.1323754,-0.1060099,1.343479,0.3234918,-0.1177756,1.333566,NA,NA,Closed,Closed,
0.9458008,-0.3803711,-0.04492188,0.8706055,0.5820313,-0.1621094,-5,-1,-4,2,-2,0,-1,-1,-1,-1,-1,-1,-1,-2,0,-1,-18.625,-18.625,-18.625,11.625,11.625,11.625,2.299297,3.200878,4.893404,7.747758,3.240123,2.441531,-0.08075849,-0.4029145,1.24645,0.2592002,-0.4136668,1.239587,0.1154321,0.4199937,1.388072,-0.03359695,-0.4038055,1.241436,0.2135915,-0.4221704,1.230945,0.1050018,-0.03949609,1.41551,0.1049657,-0.3606256,1.39535,-0.08382507,0.1554392,1.386007,0.01602002,-0.3505689,1.363205,-0.1321462,-0.1070342,1.342898,0.3232599,-0.1188189,1.335603,NA,NA,Closed,Closed,
0.871582,-0.3979492,-0.001464844,0.9277344,0.4677734,-0.1171875,-2,-1,-6,-5,-3,-1,-4,-3,-2,0,0,0,0,-2,0,-1,-13.4375,-13.4375,-13.4375,-20.5,-20.5,-20.5,2.31179,3.20929,4.841403,7.759519,3.249592,2.412641,-0.07939961,-0.4000942,1.244684,0.2588159,-0.4118472,1.239728,0.1152795,0.4199347,1.38766,-0.03352754,-0.4066908,1.224656,0.2151709,-0.4201163,1.227924,0.1050089,-0.03952074,1.41556,0.1049417,-0.3607312,1.395462,-0.08390182,0.1555386,1.384934,0.01590432,-0.3506466,1.363302,-0.1321256,-0.107335,1.342628,0.3231294,-0.119963,1.337593,NA,NA,Closed,Unknown,
0.8745117,-0.3774414,-0.01513672,0.8588867,0.4213867,-0.09179688,-2,-4,-1,4,1,-1,-1,-6,1,1,0,-1,0,0,1,0,5.6875,5.6875,5.6875,10.25,10.25,10.25,2.3469,3.204556,4.809439,7.740801,3.246639,2.405723,-0.07838743,-0.399241,1.245427,0.2603664,-0.4111012,1.239185,0.1151894,0.4199625,1.387432,-0.03078996,-0.40517,1.23107,0.2145227,-0.4186498,1.233724,0.1050155,-0.03950726,1.415562,0.1049993,-0.3607538,1.395501,-0.08404873,0.1557451,1.383814,0.01589878,-0.3506573,1.363307,-0.1322376,-0.1073427,1.342444,0.3235562,-0.1201669,1.338831,NA,NA,Closed,Closed,
0.9233398,-0.3984375,-0.02050781,0.8740234,0.456543,-0.06152344,2,-1,-7,-6,-3,-2,-2,-5,-2,-4,-1,-1,-2,-3,-1,-1,10.125,10.125,10.125,5.875,5.875,5.875,2.371639,3.200054,4.796954,7.761982,3.259063,2.402228,-0.07758262,-0.399228,1.246461,0.2617234,-0.4094296,1.236148,0.1151769,0.4200737,1.387404,-0.03126098,-0.4041381,1.232307,0.2155506,-0.4142713,1.239521,0.1050986,-0.03944186,1.415493,0.1050745,-0.3608024,1.395474,-0.0841139,0.1560465,1.382742,0.01592147,-0.3507009,1.363241,-0.1323496,-0.1075269,1.342253,0.3241462,-0.1200204,1.339229,NA,NA,Closed,Unknown,
0.8886719,-0.4091797,-0.03076172,0.8896484,0.4155273,-0.05419922,6,4,9,2,1,1,-2,6,0,-1,-1,-1,0,-3,-2,0,-0.625,-0.625,-0.625,-15.0625,-15.0625,-15.0625,2.39537,3.193878,4.777685,7.759661,3.265791,2.385092,-0.07584269,-0.3979776,1.247879,0.2632433,-0.408184,1.234285,0.1151901,0.4201133,1.387401,-0.02884032,-0.4032326,1.234573,0.2183527,-0.4106783,1.23629,0.1052317,-0.03936975,1.415429,0.105288,-0.360895,1.395372,-0.084195,0.1562264,1.382381,0.01603753,-0.3508089,1.363063,-0.1323368,-0.1076495,1.342207,0.3247771,-0.120073,1.339514,NA,NA,Closed,Closed,
0.9116211,-0.3847656,-0.04638672,0.8725586,0.4106445,-0.04150391,0,-2,-4,-1,0,2,-3,-2,-2,-1,0,-2,-1,0,-1,-2,3.875,3.875,3.875,-3.125,-3.125,-3.125,2.408199,3.181562,4.77739,7.756985,3.267121,2.365839,-0.07570915,-0.3980318,1.251413,0.2642643,-0.4087299,1.232677,0.1152133,0.4201587,1.387387,-0.02840884,-0.4024844,1.23692,0.2178677,-0.4139348,1.234426,0.1054006,-0.03927964,1.415307,0.1055965,-0.3609207,1.395235,-0.08414019,0.1564957,1.381978,0.01628287,-0.3508208,1.362861,-0.132409,-0.1078111,1.342252,0.3254821,-0.120081,1.33972,NA,NA,Closed,Unknown,
0.8896484,-0.484375,-0.01318359,0.8740234,0.4404297,-0.04931641,2,1,1,3,-3,2,-11,9,0,-1,1,0,-3,-1,-2,0,-1.1875,-1.1875,-1.1875,10.1875,10.1875,10.1875,2.366445,3.168366,4.807466,7.770813,3.260435,2.359442,-0.07626898,-0.3977773,1.254795,0.2659376,-0.4090466,1.232477,0.1152194,0.4202366,1.3874,-0.02799668,-0.400824,1.241577,0.2182408,-0.4159878,1.232645,0.1054088,-0.03917608,1.415206,0.1057887,-0.3609276,1.395074,-0.0843363,0.1566487,1.381807,0.0164156,-0.3507929,1.362613,-0.1326214,-0.1080704,1.342388,0.3259255,-0.1202098,1.339671,NA,NA,Unknown,Closed,
0.8950195,-0.387207,-0.03710938,0.8994141,0.4350586,-0.08349609,1,3,26,3,0,2,3,1,-3,0,0,0,-2,-1,-2,-1,-0.375,-0.375,-0.375,14.375,14.375,14.375,2.361852,3.164528,4.82652,7.801325,3.249137,2.350883,-0.07774986,-0.3966919,1.256463,0.2669072,-0.4092575,1.231733,0.1151752,0.4202678,1.387362,-0.02885683,-0.3965342,1.245513,0.2191007,-0.4210859,1.230146,0.1053923,-0.03906346,1.41508,0.1058682,-0.36091,1.394961,-0.0845432,0.1569605,1.381384,0.01645868,-0.3507425,1.362396,-0.13271,-0.1081818,1.342503,0.3261923,-0.1202841,1.339514,NA,NA,Unknown,Unknown,
0.875,-0.3789063,-0.006835938,0.8969727,0.4462891,-0.08105469,-4,-3,-3,1,-1,-1,-3,-2,1,0,-1,-1,1,-1,1,-3,1.375,1.375,1.375,-5.9375,-5.9375,-5.9375,2.357587,3.173137,4.826703,7.807699,3.2471,2.353822,-0.07984816,-0.3965046,1.255272,0.2661844,-0.410467,1.230597,0.1150289,0.4202129,1.387155,-0.03003871,-0.3993096,1.241414,0.2182361,-0.416887,1.233038,0.105335,-0.03900911,1.414925,0.1058891,-0.3609453,1.394845,-0.08473645,0.1572482,1.3812,0.01643864,-0.3507706,1.362225,-0.1328589,-0.1085111,1.342574,0.326382,-0.1202867,1.339197,NA,NA,Unknown,Unknown,
0.9116211,-0.3916016,0.0009765625,0.8847656,0.4042969,-0.06640625,-2,-3,1,-8,7,6,1,-4,-2,-1,-2,-4,-2,-2,-2,-2,2.3125,2.3125,2.3125,-5.5625,-5.5625,-5.5625,2.363274,3.174404,4.824636,7.788921,3.246511,2.358449,-0.08054271,-0.3967195,1.254866,0.2658668,-0.4101837,1.229334,0.1148313,0.4202255,1.386947,-0.02993016,-0.4009772,1.239939,0.2176745,-0.4184792,1.229065,0.1052743,-0.03899975,1.414719,0.1058962,-0.3610106,1.394721,-0.08492534,0.1573062,1.381065,0.01641701,-0.3508404,1.362116,-0.132971,-0.1085821,1.342613,0.326532,-0.1202463,1.339069,NA,NA,Unknown,Unknown,
0.9160156,-0.3745117,-0.004394531,0.8930664,0.4365234,-0.06787109,-4,1,16,7,-1,-1,-4,-9,-3,-1,-3,-1,-2,-1,-2,1,8.1875,8.1875,8.1875,1.75,1.75,1.75,2.379013,3.170347,4.82002,7.786631,3.244282,2.363681,-0.08050828,-0.3985459,1.254085,0.2649707,-0.410163,1.229564,0.1144949,0.4201702,1.386495,-0.03107753,-0.3986062,1.24298,0.2170548,-0.4194316,1.227934,0.1051443,-0.03902236,1.414441,0.1058052,-0.361092,1.394418,-0.08509675,0.1572798,1.380836,0.01628994,-0.3508726,1.361881,-0.1332126,-0.1087354,1.342679,0.3265932,-0.1203017,1.338937,NA,NA,Unknown,Unknown,
0.9033203,-0.3833008,-0.03076172,0.9150391,0.4179688,-0.0859375,0,-3,-3,-4,-2,3,-1,0,0,-2,0,-1,0,0,-2,-2,9.75,9.75,9.75,-4.6875,-4.6875,-4.6875,2.403703,3.161186,4.814867,7.776489,3.2378,2.366406,-0.08019278,-0.3993365,1.256412,0.2642599,-0.4100349,1.231001,0.11413,0.4201127,1.386037,-0.03316664,-0.3985184,1.245447,0.2171524,-0.4190835,1.228207,0.1049669,-0.03900624,1.414231,0.1057704,-0.3611285,1.394272,-0.08540472,0.1571757,1.380724,0.0162236,-0.3509094,1.361739,-0.1336258,-0.1090621,1.343059,0.3266734,-0.1202761,1.338812,NA,NA,Unknown,Unknown,
0.9067383,-0.3989258,-0.02148438,0.8842773,0.4189453,-0.09960938,-3,-1,-9,-6,3,6,0,-3,0,-2,1,-1,0,-2,-2,-3,0.5,0.5,0.5,-5.375,-5.375,-5.375,2.414836,3.155667,4.806923,7.771079,3.235513,2.365574,-0.0796671,-0.4001965,1.258729,0.2643472,-0.4100054,1.231858,0.1139421,0.4201708,1.385801,-0.03854929,-0.382177,1.261597,0.2173658,-0.4186057,1.228445,0.1049246,-0.0390157,1.414136,0.1057413,-0.3611648,1.394175,-0.0856697,0.1571242,1.380731,0.01618635,-0.3509228,1.361701,-0.1339791,-0.1092494,1.343865,0.3267666,-0.1202906,1.338819,NA,NA,Unknown,Unknown,
0.9082031,-0.3920898,-0.02880859,0.8691406,0.421875,-0.08007813,4,3,-5,-3,0,0,1,-1,-1,-1,1,-1,-2,-2,-1,-2,-3.125,-3.125,-3.125,-0.625,-0.625,-0.625,2.411813,3.148658,4.80605,7.769859,3.23306,2.362677,-0.07985128,-0.4001351,1.261035,0.2652766,-0.409751,1.233347,0.1137556,0.4203358,1.385361,-0.03247038,-0.3979664,1.248488,0.2208029,-0.416639,1.222199,0.1048511,-0.03893917,1.413885,0.1057454,-0.3611873,1.39399,-0.08583551,0.1571321,1.380745,0.01616761,-0.3509295,1.361577,-0.13423,-0.1096644,1.344111,0.3270144,-0.1201228,1.33883,NA,NA,Unknown,Closed,
0.8916016,-0.4067383,-0.02929688,0.8867188,0.4301758,-0.07226563,-3,-5,-8,-5,-3,-1,0,-7,0,0,-2,-2,-2,-2,1,-4,-6.9375,-6.9375,-6.9375,3.125,3.125,3.125,2.384687,3.143256,4.818718,7.790531,3.225201,2.34786,-0.08000481,-0.3984637,1.263643,0.2670271,-0.4103672,1.234383,0.113702,0.4202815,1.384996,-0.03426722,-0.3927054,1.253083,0.2185926,-0.4185745,1.229852,0.1048582,-0.03893813,1.413653,0.1057416,-0.3611917,1.393844,-0.08605687,0.157111,1.380715,0.01615674,-0.3509085,1.361432,-0.1343554,-0.1097859,1.34451,0.327243,-0.1200861,1.339015,NA,NA,Unknown,Unknown,
0.8994141,-0.3823242,-0.02099609,0.8842773,0.4204102,-0.07080078,-2,0,-1,0,1,-4,1,-2,0,0,-4,2,4,0,-2,5,6.4375,6.4375,6.4375,-5.9375,-5.9375,-5.9375,2.377481,3.144891,4.832028,7.797185,3.222241,2.335666,-0.08169262,-0.3985755,1.264576,0.2680803,-0.4108009,1.236039,0.113647,0.4201156,1.384539,-0.03306803,-0.4015423,1.247545,0.219976,-0.418874,1.231476,0.1047857,-0.03895271,1.413421,0.1057359,-0.3612017,1.393735,-0.08613522,0.1571863,1.380727,0.01613808,-0.3508767,1.36134,-0.1348901,-0.110841,1.345533,0.3275295,-0.1201575,1.339391,NA,NA,Unknown,Closed,
0.9165039,-0.4106445,-0.001464844,0.894043,0.4267578,-0.05957031,0,0,11,14,2,-1,1,4,-1,0,1,-2,0,-1,1,-1,-0.875,-0.875,-0.875,-8.1875,-8.1875,-8.1875,2.371646,3.144058,4.840441,7.784268,3.221724,2.33306,-0.08387835,-0.3973074,1.265197,0.268907,-0.4107564,1.237788,0.1137187,0.4199701,1.384069,-0.03691357,-0.3909173,1.2574,0.2264683,-0.4053865,1.24584,0.1047791,-0.03896032,1.413301,0.1057419,-0.3612044,1.393718,-0.0862783,0.1572206,1.380728,0.01612982,-0.3508588,1.361298,-0.1350776,-0.110803,1.34591,0.3280244,-0.1205811,1.34,NA,NA,Unknown,Closed,
0.9042969,-0.3774414,-0.01757813,0.8964844,0.4169922,-0.05810547,2,0,-3,-2,-1,6,1,10,-2,-2,1,1,2,-1,-1,0,2.9375,2.9375,2.9375,0.6875,0.6875,0.6875,2.374051,3.144261,4.843629,7.779041,3.211945,2.329324,-0.0838652,-0.3975597,1.264328,0.2693816,-0.4106503,1.239634,0.1139254,0.4197703,1.383579,-0.03448487,-0.3976938,1.250501,0.2211722,-0.4211187,1.234652,0.1047783,-0.03897015,1.413091,0.1057307,-0.3611796,1.393669,-0.08630729,0.1572746,1.380742,0.01609731,-0.350778,1.361223,-0.1352205,-0.1108254,1.346113,0.3284082,-0.1208505,1.340752,NA,NA,Unknown,Closed,
0.8974609,-0.3857422,-0.015625,0.902832,0.4458008,-0.0703125,-1,-1,-8,-3,3,-2,-4,-6,1,-1,0,0,-2,0,-1,-1,1.4375,1.4375,1.4375,-0.875,-0.875,-0.875,2.380382,3.146413,4.837593,7.775681,3.208844,2.334347,-0.08372857,-0.398004,1.263646,0.2696058,-0.4108064,1.239788,0.1141922,0.4196427,1.38301,-0.03495933,-0.3965666,1.250719,0.2219089,-0.4173357,1.235985,0.104783,-0.03900179,1.412999,0.105727,-0.3612017,1.393664,-0.08629009,0.1573252,1.380685,0.01609289,-0.3507877,1.361208,-0.1354561,-0.1106941,1.346273,0.3286875,-0.1210351,1.341173,NA,NA,Unknown,Unknown,
0.9077148,-0.3740234,-0.02880859,0.8979492,0.4296875,-0.06542969,-4,-4,-3,-4,0,-1,1,-6,1,-4,-2,-3,0,-3,-3,-2,5.1875,5.1875,5.1875,-2.5,-2.5,-2.5,2.388176,3.145583,4.836714,7.765301,3.210048,2.341494,-0.08437742,-0.3970172,1.263366,0.2684497,-0.4107912,1.240382,0.1144904,0.4194438,1.382398,-0.03514358,-0.3979108,1.249644,0.2195819,-0.4215206,1.234847,0.1047947,-0.03896884,1.412847,0.1057362,-0.3611812,1.393631,-0.08623651,0.1574143,1.380626,0.01609381,-0.3506963,1.361115,-0.1355756,-0.1105699,1.346436,0.3288369,-0.121044,1.341673,NA,NA,Unknown,Closed,
0.9077148,-0.3793945,-0.02832031,0.894043,0.4272461,-0.07373047,-2,2,8,0,-1,3,-1,-7,-1,-1,-1,0,-1,-2,-1,-2,-2.0625,-2.0625,-2.0625,-4.4375,-4.4375,-4.4375,2.389802,3.143178,4.835474,7.754751,3.214616,2.345031,-0.08424037,-0.3983214,1.263341,0.2678059,-0.4103049,1.239406,0.1149497,0.4191435,1.381561,-0.03429309,-0.4056685,1.243533,0.2212804,-0.4170356,1.23675,0.1047795,-0.03903836,1.412722,0.1057148,-0.3612281,1.393569,-0.08618453,0.15739,1.380576,0.01606759,-0.3507079,1.361035,-0.1357104,-0.1107493,1.346591,0.3288842,-0.1212234,1.341967,NA,NA,Unknown,Closed,
0.8955078,-0.3901367,-0.02783203,0.890625,0.4272461,-0.07421875,-4,-2,-4,-6,-7,-1,-1,-3,0,-1,-1,-2,-3,-2,-2,-3,-0.25,-0.25,-0.25,0.0625,0.0625,0.0625,2.389192,3.14259,4.836932,7.755737,3.217353,2.342513,-0.0847475,-0.3966634,1.263054,0.2667758,-0.4099596,1.238963,0.1152594,0.4188069,1.38105,-0.03587057,-0.3964797,1.250119,0.2211249,-0.416438,1.236332,0.104747,-0.03913448,1.412383,0.1057134,-0.3612465,1.393494,-0.08618436,0.1574045,1.38052,0.01605844,-0.3506759,1.3609,-0.1357854,-0.1107946,1.34662,0.328907,-0.1212125,1.342034,NA,NA,Unknown,Closed,
0.9038086,-0.3686523,-0.02294922,0.8789063,0.4179688,-0.078125,0,-4,1,-10,-4,5,0,-1,-5,-2,-3,-3,-3,-1,-2,-1,6.4375,6.4375,6.4375,2.0625,2.0625,2.0625,2.390643,3.143412,4.842279,7.762002,3.219648,2.337674,-0.08496514,-0.3978359,1.263819,0.2678241,-0.4099423,1.238658,0.1157046,0.4183554,1.380354,-0.0352807,-0.3979563,1.249577,0.2208152,-0.418352,1.233912,0.1048311,-0.03935675,1.412048,0.105697,-0.3613201,1.393385,-0.08620837,0.1573977,1.380432,0.01602363,-0.3507287,1.36075,-0.1359089,-0.110848,1.346769,0.328962,-0.1211873,1.342106,NA,NA,Unknown,Unknown,
0.9111328,-0.3720703,-0.02148438,0.8935547,0.4204102,-0.06689453,4,4,3,-1,1,2,2,1,-2,-4,-1,-1,0,-1,0,0,2.1875,2.1875,2.1875,-2.4375,-2.4375,-2.4375,2.399213,3.138235,4.843288,7.763759,3.222912,2.33453,-0.08501371,-0.3971183,1.262961,0.2673279,-0.4089005,1.237635,0.1161607,0.418047,1.379409,-0.03529591,-0.3985916,1.248797,0.2202196,-0.4180697,1.233296,0.1048415,-0.03943559,1.411681,0.1056218,-0.3613177,1.393188,-0.08614845,0.1574389,1.380225,0.01591436,-0.3506669,1.36049,-0.1361573,-0.1108208,1.346925,0.3290179,-0.1212349,1.34215,NA,NA,Unknown,Closed,
0.902832,-0.3833008,-0.01611328,0.8920898,0.4125977,-0.0703125,-10,-5,16,5,1,-5,-3,-4,-1,-1,-2,2,3,1,-1,-3,-1.875,-1.875,-1.875,-0.1875,-0.1875,-0.1875,2.396227,3.13224,4.844339,7.766217,3.22137,2.329382,-0.08698965,-0.3978478,1.264625,0.2682289,-0.4095798,1.238294,0.1165523,0.4178851,1.378814,-0.03795337,-0.4063415,1.244611,0.2213122,-0.4169431,1.235803,0.1048242,-0.03950157,1.411303,0.1055769,-0.3613424,1.393012,-0.08617045,0.1574584,1.38001,0.01587833,-0.3506417,1.360188,-0.136256,-0.1110936,1.346971,0.3292172,-0.1214692,1.342234,NA,NA,Unknown,Unknown,
