ALX,ALY,ALZ,ARX,ARY,ARZ,EMG0L,EMG1L,EMG2L,EMG3L,EMG4L,EMG5L,EMG6L,EMG7L,EMG0R,EMG1R,EMG2R,EMG3R,EMG4R,EMG5R,EMG6R,EMG7R,GLX,GLY,GLZ,GRX,GRY,GRZ,ORL,OPL,OYL,ORR,OPR,OYR,LHNX,LHNY,LHNZ,RHNX,RHNY,RHNZ,HX,HY,HZ,LTX,LTY,LTZ,RTX,RTY,RTZ,SpineMidX,SpineMidY,SpineMidZ,SpineBaseX,SpineBaseY,SpineBaseZ,ShoulderLeftX,ShoulderLeftY,ShoulderLeftZ,ShoulderRightX,ShoulderRightY,ShoulderRightZ,ElbowLeftX,ElbowLeftY,ElbowLeftZ,ElbowRightX,ElbowRightY,ElbowRightZ,Myo_Pose_left,Myo_Pose_Right,Kinect_pose_left,Kinect_pose_right
0.8867188,-0.394043,0.06152344,-0.8662109,0.284668,-0.3896484,-1,0,-1,-1,2,2,0,1,12,4,0,-1,-3,-2,3,7,-1.875,-1.875,-1.875,1.875,1.875,1.875,2.740051,3.199213,2.341715,8.934014,6.705445,4.898708,-0.1925795,-0.4033717,0.979018,0.2322877,0.3164924,0.9413401,0.09566773,0.4162511,1.044233,-0.2244562,-0.3969014,0.964715,0.2254267,0.2875205,0.9947114,0.07140844,-0.02222067,1.093603,0.06710236,-0.3396541,1.079391,-0.1082726,0.1603427,1.064362,-0.02971175,-0.3250701,1.040032,-0.2002156,-0.09914361,1.104786,0.4213868,0.08652668,0.9387977,NA,NA,NotTracked,Unknown,
0.8876953,-0.3984375,0.05419922,-0.8637695,0.3066406,-0.3725586,-2,-3,-1,1,0,7,1,-2,1,-1,-2,0,0,-1,-3,1,-3.75,-3.75,-3.75,-0.0625,-0.0625,-0.0625,2.740241,3.200423,2.339879,8.93312,6.705898,4.896306,-0.1924573,-0.4027968,0.9771454,0.2327912,0.3158738,0.940971,0.09565493,0.4162103,1.044245,-0.2250041,-0.4008935,0.9502501,0.2215426,0.2880421,0.9936104,0.07132252,-0.02223419,1.093627,0.06698529,-0.3396236,1.079482,-0.1083547,0.1603514,1.064326,-0.02988596,-0.3250261,1.040151,-0.2002309,-0.0991318,1.104681,0.421399,0.08639725,0.9389548,NA,NA,NotTracked,Unknown,
0.8935547,-0.4003906,0.05322266,-0.8735352,0.2993164,-0.3862305,-1,-1,-2,0,-1,0,2,-1,0,2,-4,-6,-2,-1,3,3,-1.875,-1.875,-1.875,-0.8125,-0.8125,-0.8125,2.741084,3.200527,2.333929,8.933033,6.706305,4.896562,-0.1918054,-0.400355,0.9778437,0.2336857,0.3152321,0.9423342,0.09563855,0.4161676,1.044284,-0.2251467,-0.4097933,0.9566466,0.2201335,0.2892474,0.9943053,0.07126667,-0.02226564,1.093675,0.06690785,-0.3396314,1.079547,-0.108403,0.1603536,1.064316,-0.02996136,-0.3250719,1.040243,-0.2002491,-0.09908054,1.104674,0.4214126,0.08643383,0.9391031,NA,NA,NotTracked,Unknown,
0.8984375,-0.4008789,0.05273438,-0.8691406,0.2836914,-0.3847656,-3,-1,-1,0,-1,-5,-4,-4,3,3,-3,-6,-4,0,-2,9,-3.6875,-3.6875,-3.6875,1.5,1.5,1.5,2.738455,3.198504,2.332756,8.935463,6.708095,4.898077,-0.1904933,-0.4010166,0.9762036,0.2342506,0.3148282,0.9422283,0.09562436,0.4161443,1.044315,-0.2206719,-0.3865687,0.9781766,0.2212862,0.2884127,0.9936911,0.07119025,-0.02230461,1.093706,0.06678905,-0.3396234,1.079626,-0.108502,0.1603453,1.064279,-0.03007386,-0.3251159,1.040332,-0.2002507,-0.09902312,1.104629,0.4213968,0.08627736,0.9392908,NA,NA,NotTracked,Unknown,
0.8935547,-0.4077148,0.04833984,-0.8637695,0.2856445,-0.3833008,0,0,0,-2,-2,-11,-7,1,-14,-13,-5,-3,0,0,-4,-4,-4.8125,-4.8125,-4.8125,0.4375,0.4375,0.4375,2.733466,3.195984,2.332133,8.935164,6.708602,4.89581,-0.1915736,-0.4032844,0.9765739,0.2343857,0.3152283,0.9434249,0.09563397,0.416106,1.044501,-0.2240784,-0.4151351,0.9541333,0.2246815,0.2870744,0.9944057,0.07112622,-0.02233017,1.093765,0.0666936,-0.3396328,1.07976,-0.1085276,0.1603513,1.064283,-0.03014147,-0.325128,1.040463,-0.2002291,-0.09904847,1.104625,0.4214749,0.08624755,0.9394854,NA,NA,NotTracked,Unknown,
0.9008789,-0.409668,0.05322266,-0.862793,0.2871094,-0.3710938,0,-2,-2,1,0,5,2,2,1,-9,-3,-1,-2,-4,-6,-11,-4.0625,-4.0625,-4.0625,1.1875,1.1875,1.1875,2.7269,3.1933,2.333667,8.934908,6.709052,4.894509,-0.1895669,-0.4000796,0.9775872,0.2372556,0.3126304,0.943623,0.09568523,0.4159591,1.044828,-0.2281229,-0.3944294,0.978125,0.2240902,0.2865278,0.9948877,0.07110019,-0.02232864,1.093861,0.06666518,-0.3396484,1.079865,-0.1086043,0.1603359,1.064268,-0.03014757,-0.3251978,1.040569,-0.2001207,-0.09895962,1.104564,0.421708,0.08599854,0.9401236,NA,NA,NotTracked,Unknown,
0.8930664,-0.4140625,0.06640625,-0.8735352,0.2749023,-0.4125977,-1,-1,-1,-1,-2,-5,-4,2,-16,-9,0,1,0,0,1,7,-2.125,-2.125,-2.125,-1.125,-1.125,-1.125,2.726583,3.191677,2.332097,8.93658,6.707744,4.895561,-0.1891498,-0.4015915,0.9770665,0.2374393,0.3125288,0.9441636,0.09573035,0.4159048,1.045019,-0.2224949,-0.3906377,0.9668667,0.2202303,0.2879581,0.9974808,0.07105315,-0.02233128,1.093918,0.06655923,-0.3396578,1.079982,-0.1086239,0.1603375,1.064272,-0.03022877,-0.3252197,1.040651,-0.200113,-0.098952,1.104539,0.4218465,0.08591112,0.9404681,NA,NA,NotTracked,Unknown,
0.8818359,-0.4199219,0.05126953,-0.8798828,0.2646484,-0.3769531,0,-1,-1,-1,-3,1,5,0,1,-1,0,-2,0,2,4,23,-3.0625,-3.0625,-3.0625,4.375,4.375,4.375,2.723759,3.190777,2.332756,8.94294,6.709662,4.898224,-0.1900564,-0.4028914,0.9769396,0.2359842,0.314441,0.9446815,0.09579344,0.4158379,1.045252,-0.2140534,-0.406099,0.935091,0.2256531,0.2861839,0.9958026,0.07103426,-0.02235398,1.093989,0.06654494,-0.3396957,1.080091,-0.1086834,0.1603425,1.064262,-0.03024649,-0.3252998,1.040743,-0.2000858,-0.09884291,1.104536,0.4221036,0.08580544,0.9410346,NA,NA,NotTracked,Unknown,
0.8881836,-0.4106445,0.06445313,-0.875,0.293457,-0.3735352,-1,-1,-1,-2,1,4,-5,-3,3,-3,-3,-1,-3,1,2,13,-3.125,-3.125,-3.125,4.9375,4.9375,4.9375,2.723623,3.18981,2.329534,8.945339,6.70988,4.897924,-0.1892665,-0.4015575,0.9783531,0.2364909,0.3141568,0.9450999,0.09584924,0.4158064,1.04545,-0.2145912,-0.4056813,0.9423106,0.2301841,0.2829124,0.9957285,0.07097085,-0.02238182,1.094032,0.0663394,-0.3397861,1.080177,-0.108727,0.1603297,1.064254,-0.03040079,-0.3254061,1.040818,-0.2000779,-0.09893579,1.104489,0.4222026,0.08596464,0.9412004,NA,NA,NotTracked,Unknown,
0.8916016,-0.4243164,0.0703125,-0.8793945,0.2714844,-0.390625,-1,-3,-2,-2,-2,-2,1,-1,1,4,-1,-4,-2,-2,-5,-6,-4,-4,-4,-2.625,-2.625,-2.625,2.721056,3.190316,2.32736,8.945331,6.709483,4.899023,-0.1891106,-0.4020941,0.9784682,0.2492532,0.3043315,0.943078,0.09595515,0.4157439,1.045768,-0.2182652,-0.408008,0.9741874,0.2384104,0.2816492,0.9947391,0.07093535,-0.02241258,1.094114,0.06631052,-0.3398333,1.080265,-0.1087661,0.1603304,1.06426,-0.0304169,-0.3254583,1.04086,-0.20007,-0.09891942,1.104488,0.4112879,0.06486673,0.9420078,NA,NA,NotTracked,Unknown,
0.8925781,-0.4243164,0.06298828,-0.8803711,0.2612305,-0.3857422,0,0,-2,0,-3,-6,-5,0,3,-3,-1,0,1,0,1,3,0.125,0.125,0.125,-0.875,-0.875,-0.875,2.721788,3.19138,2.325955,8.945594,6.709425,4.899223,-0.1890799,-0.400967,0.9796062,0.2504091,0.3028819,0.9427524,0.09602015,0.4157731,1.046142,-0.221039,-0.397308,0.9641853,0.2305212,0.2842082,0.9955304,0.07093167,-0.02242266,1.094176,0.06630594,-0.3398605,1.08033,-0.1087873,0.1603348,1.064264,-0.0304149,-0.3254908,1.040909,-0.2000571,-0.09889299,1.104488,0.4258434,0.08652905,0.9463252,NA,NA,NotTracked,Unknown,
0.8969727,-0.4091797,0.06640625,-0.8623047,0.2978516,-0.371582,-1,0,-1,0,-2,-1,0,-1,-3,-6,-2,0,-2,-1,3,12,0.1875,0.1875,0.1875,0.0625,0.0625,0.0625,2.721779,3.19107,2.325312,8.95043,6.711034,4.900587,-0.1884429,-0.4008944,0.9801219,0.2514268,0.302615,0.9416646,0.09605613,0.4158035,1.046348,-0.219245,-0.4029369,0.959559,0.2347404,0.2842764,0.9959221,0.07088068,-0.02246952,1.094232,0.0662901,-0.339909,1.080345,-0.1088049,0.1603352,1.064268,-0.03041678,-0.3255255,1.040906,-0.2000216,-0.09895142,1.104525,0.4257836,0.08648039,0.9464608,NA,NA,NotTracked,Unknown,
0.894043,-0.4155273,0.06640625,-0.8759766,0.2641602,-0.3852539,-1,-1,-1,-1,0,2,-1,0,5,6,3,0,1,-1,1,17,-0.6875,-0.6875,-0.6875,-3.3125,-3.3125,-3.3125,2.724087,3.192206,2.323039,8.949913,6.710759,4.902261,-0.18997,-0.4016318,0.9780568,0.2461237,0.3077405,0.9437894,0.09612868,0.415825,1.046668,-0.2287744,-0.3999828,0.9762858,0.2176108,0.2898922,0.9946364,0.07086059,-0.02247424,1.094276,0.06621357,-0.3399194,1.080423,-0.1081062,0.1603884,1.065328,-0.03048754,-0.3255134,1.040989,-0.2000358,-0.09896177,1.104524,0.4257582,0.08650083,0.9464607,NA,NA,NotTracked,Unknown,
0.894043,-0.4155273,0.06640625,-0.8759766,0.2641602,-0.3852539,-1,-1,-1,-1,0,2,-1,0,5,6,3,0,1,-1,1,17,-0.6875,-0.6875,-0.6875,-3.3125,-3.3125,-3.3125,2.724087,3.192206,2.323039,8.949913,6.710759,4.902261,-0.1880542,-0.4019686,0.9780707,0.2454841,0.3075674,0.9437032,0.0961378,0.4158178,1.046837,-0.2234923,-0.4046368,0.968521,0.2346602,0.2834834,0.9982796,0.0707789,-0.02248584,1.094339,0.06594583,-0.3399527,1.080515,-0.1081978,0.1603838,1.065236,-0.0307807,-0.3255456,1.041104,-0.2000393,-0.09893748,1.104496,0.4257097,0.08646513,0.9464244,NA,NA,NotTracked,Unknown,
0.8935547,-0.4067383,0.06005859,-0.8793945,0.2548828,-0.3847656,-1,-1,1,0,-1,-5,-1,-3,2,-5,-7,-8,-2,-6,-9,-14,-1.75,-1.75,-1.75,-2.625,-2.625,-2.625,2.726122,3.193544,2.319406,8.94998,6.711103,4.903106,-0.1897649,-0.4021878,0.9778912,0.2443159,0.3085,0.9438604,0.09618425,0.4158692,1.047157,-0.2224023,-0.4072142,0.971748,0.2286307,0.2860134,0.9971871,0.07076823,-0.02250247,1.094366,0.06593124,-0.3399926,1.080546,-0.1082556,0.1603976,1.065188,-0.03079864,-0.3255759,1.041116,-0.2000253,-0.09891695,1.104495,0.4256845,0.08648268,0.9463904,NA,NA,NotTracked,Unknown,
0.8950195,-0.4160156,0.06445313,-0.8706055,0.2983398,-0.3857422,-1,-1,-1,0,3,5,-4,-4,-5,-7,-1,0,-2,-4,-7,-3,-0.75,-0.75,-0.75,-1.5625,-1.5625,-1.5625,2.728322,3.195485,2.315658,8.948559,6.710225,4.902373,-0.1883774,-0.4027031,0.9776115,0.2425351,0.309463,0.9447337,0.0962612,0.4158675,1.047268,-0.2148577,-0.4049612,0.9433334,0.2232115,0.2869951,1.001271,0.07076249,-0.02249331,1.094406,0.06596065,-0.3399794,1.080613,-0.1083129,0.1603839,1.065142,-0.03077594,-0.325579,1.041152,-0.2000064,-0.09888542,1.104524,0.4256279,0.08640367,0.9464089,NA,NA,NotTracked,Unknown,
0.8916016,-0.4135742,0.06298828,-0.8691406,0.2753906,-0.3896484,-1,-2,-1,-2,-2,-7,-4,0,-3,-2,-1,-3,-2,-1,-5,-7,-0.5,-0.5,-0.5,-3.875,-3.875,-3.875,2.729846,3.196301,2.313278,8.946794,6.711147,4.903789,-0.1892562,-0.4004863,0.9773306,0.2417147,0.3101347,0.9449197,0.09623715,0.4158809,1.047518,-0.2264478,-0.3937432,0.9717778,0.2139924,0.2914836,0.9983638,0.07074814,-0.02250409,1.094476,0.06590358,-0.3400225,1.080721,-0.108351,0.1603775,1.065123,-0.03083696,-0.3256353,1.041266,-0.1999654,-0.09890441,1.10449,0.4256043,0.08637495,0.946442,NA,NA,NotTracked,Unknown,
0.8979492,-0.4145508,0.05908203,-0.8725586,0.2817383,-0.3852539,-1,1,-2,-1,-3,-6,-4,-2,-8,1,1,3,3,-2,-2,-9,-0.4375,-0.4375,-0.4375,-2.25,-2.25,-2.25,2.731107,3.197629,2.311522,8.945764,6.711375,4.90386,-0.1875926,-0.4006015,0.977826,0.2422013,0.3101381,0.9444323,0.09630896,0.415903,1.047811,-0.2065149,-0.4152496,0.971579,0.2279319,0.2859662,0.9931695,0.07071485,-0.0225025,1.094577,0.06589156,-0.3400317,1.080892,-0.1084141,0.1603971,1.065135,-0.03082072,-0.3256746,1.041475,-0.1999449,-0.09889907,1.104514,0.4255481,0.08637188,0.9465351,NA,NA,NotTracked,Unknown,
0.8876953,-0.4106445,0.05322266,-0.862793,0.2880859,-0.3876953,2,0,1,2,1,1,0,0,-6,-1,1,2,1,1,2,8,0.25,0.25,0.25,-0.375,-0.375,-0.375,2.733677,3.198679,2.309501,8.946145,6.711424,4.904769,-0.1892876,-0.4025859,0.9767082,0.2409157,0.3105432,0.944364,0.09632832,0.4159283,1.047992,-0.224615,-0.4022372,0.9710909,0.2337976,0.2850754,0.9985294,0.07072541,-0.02250213,1.09465,0.06590217,-0.3400403,1.080961,-0.1077304,0.1604,1.06599,-0.03080225,-0.3256866,1.041565,-0.1999095,-0.09869336,1.104575,0.425525,0.08635781,0.946532,NA,NA,NotTracked,Unknown,
0.9179688,-0.4174805,0.06445313,-0.8686523,0.2866211,-0.3881836,-1,-1,-1,-2,-2,1,0,1,-8,-3,-2,-2,-4,-7,4,-8,-1.5,-1.5,-1.5,0.4375,0.4375,0.4375,2.737321,3.200753,2.303628,8.946918,6.711341,4.905487,-0.187692,-0.4019274,0.9772234,0.2411366,0.3106131,0.9455375,0.09633016,0.4159179,1.04821,-0.2121454,-0.4071517,0.9398499,0.2276794,0.286649,0.9983488,0.07070342,-0.02252391,1.094796,0.06592444,-0.3400958,1.081095,-0.1072255,0.1605572,1.067053,-0.03078458,-0.3257585,1.0417,-0.1999121,-0.09870862,1.104594,0.4254924,0.08640973,0.9465367,NA,NA,NotTracked,Unknown,
0.9101563,-0.4257813,0.07519531,-0.847168,0.2460938,-0.3681641,0,1,0,1,-2,-8,-5,0,4,-1,-2,-3,-2,4,-1,7,-1.625,-1.625,-1.625,-1.125,-1.125,-1.125,2.752449,3.20735,2.285084,8.941923,6.713845,4.900141,-0.1875318,-0.4011812,0.976346,0.2407777,0.310972,0.9453727,0.09635062,0.4158862,1.048325,-0.2199393,-0.3994592,0.9601364,0.2323274,0.2837639,0.9974959,0.0706495,-0.02254222,1.094892,0.06589429,-0.3400781,1.081215,-0.1073947,0.1605387,1.066875,-0.0308066,-0.3257358,1.041812,-0.1999014,-0.09863059,1.104629,0.4254501,0.08641521,0.9465284,NA,NA,NotTracked,Unknown,
0.9174805,-0.4404297,0.09179688,-0.8056641,0.2666016,-0.3540039,0,2,-1,-4,1,20,9,0,-1,-3,-3,-3,-3,-3,3,2,-5.1875,-5.1875,-5.1875,-3.25,-3.25,-3.25,2.763077,3.214214,2.2707,8.922991,6.71372,4.880158,-0.1870235,-0.3991538,0.9769721,0.2404198,0.3111183,0.9446299,0.0963584,0.4159096,1.048476,-0.2217517,-0.3862774,0.9677501,0.226037,0.2864475,0.997112,0.07064339,-0.02254825,1.094953,0.06594378,-0.3401161,1.081333,-0.1075599,0.160522,1.066714,-0.03074946,-0.3258105,1.041956,-0.1998713,-0.09848819,1.104736,0.4253683,0.08621587,0.9465594,NA,NA,NotTracked,Unknown,
1.012207,-0.5112305,0.1352539,-0.753418,0.2441406,-0.3115234,-2,-1,-3,-12,-18,8,-5,-1,-2,1,-2,-2,-7,-12,-2,11,-6.25,-6.25,-6.25,-7.9375,-7.9375,-7.9375,2.810141,3.243685,2.211847,8.879035,6.707314,4.839093,-0.1866955,-0.398867,0.9766641,0.2398938,0.3094245,0.9439776,0.09636558,0.4159049,1.048563,-0.2274828,-0.3792852,0.9960001,0.2227396,0.2868723,1.000417,0.07067405,-0.02254299,1.095038,0.06601504,-0.3401515,1.081464,-0.1077315,0.1605279,1.066566,-0.0306673,-0.3258895,1.042197,-0.2000083,-0.09834085,1.104849,0.4252559,0.08609451,0.9464979,NA,NA,NotTracked,Unknown,
1.061523,-0.5371094,0.1904297,-0.6782227,0.2353516,-0.2871094,-1,-1,-1,5,20,2,-5,-4,-1,3,-2,-3,-5,0,7,15,-12.6875,-12.6875,-12.6875,-10.625,-10.625,-10.625,2.906518,3.311155,2.089844,8.838988,6.703537,4.799787,-0.1797986,-0.3926691,0.9694114,0.2371053,0.3050011,0.9365347,0.09621605,0.415947,1.048782,-0.22058,-0.396997,0.9651429,0.227944,0.2820753,0.9954475,0.07063386,-0.02134306,1.097282,0.06602695,-0.339824,1.081925,-0.1069688,0.1606675,1.068344,-0.03065171,-0.3254942,1.042896,-0.2008132,-0.09573469,1.106896,0.4251781,0.08405799,0.9441831,NA,NA,NotTracked,Unknown,
0.9501953,-0.8217773,0.4150391,-0.4438477,0.2558594,-0.2021484,-2,1,2,3,20,-8,-12,-6,1,-3,-5,2,18,30,8,-4,-28.625,-28.625,-28.625,-48,-48,-48,3.033137,3.515554,1.882876,8.569196,6.652877,4.5429,-0.1761777,-0.3814932,0.9599469,0.2348963,0.2963006,0.926488,0.09575438,0.4160751,1.048904,-0.2027969,-0.3802627,0.91725,0.2231253,0.2731806,0.9945834,0.07062384,-0.02134733,1.097273,0.06613613,-0.3397059,1.082124,-0.1074332,0.1606078,1.068045,-0.03061275,-0.3253738,1.043117,-0.201425,-0.09393179,1.109491,0.4236949,0.08120677,0.9448549,NA,NA,NotTracked,Unknown,
0.9536133,-0.8608398,0.4355469,-0.3818359,0.418457,-0.05371094,-4,0,-4,1,10,11,0,0,-5,-1,-1,-7,-5,-11,-10,-10,-0.5,-0.5,-0.5,-101.3125,-101.3125,-101.3125,3.080078,3.598512,1.823635,8.252069,6.539587,4.285902,-0.1685049,-0.362384,0.9518961,0.2318958,0.2802684,0.9111846,0.0948067,0.4164484,1.048857,-0.1382813,-0.3354505,0.9163077,0.2279021,0.2902659,0.9684287,0.07102311,-0.02092131,1.097611,0.06679108,-0.3390528,1.082069,-0.1080082,0.160677,1.069365,-0.0301656,-0.324874,1.043131,-0.2021214,-0.09150537,1.112828,0.4200196,0.07272436,0.9460183,NA,NA,NotTracked,Unknown,
0.6796875,-0.7133789,0.3974609,-0.4448242,0.4384766,0.06591797,-1,-1,-3,-8,-11,-22,-7,-1,1,2,-3,-4,-1,-6,-7,-8,12.4375,12.4375,12.4375,-111.3125,-111.3125,-111.3125,3.211016,3.882251,1.686986,7.831946,6.241924,3.994497,-0.1502257,-0.318606,0.9289871,0.2286565,0.217446,0.8656505,0.09028257,0.417952,1.048924,-0.120959,-0.2812196,0.9085237,0.2120751,0.2052822,0.9137059,0.07182032,-0.02040559,1.098145,0.06974293,-0.338545,1.081453,-0.1111551,0.1603998,1.070812,-0.02768282,-0.3253609,1.043507,-0.2017126,-0.08627086,1.119429,0.4245823,-0.0160527,1.006581,NA,NA,NotTracked,Unknown,
0.5273438,-0.7856445,0.4189453,-0.5014648,0.7973633,0.02294922,-1,-4,-1,0,8,4,0,0,-1,0,-11,-10,2,-7,-4,-5,21.8125,21.8125,21.8125,-118.625,-118.625,-118.625,3.276701,4.18737,1.611199,7.630455,5.975915,3.879878,-0.1414941,-0.292298,0.9151797,0.2203817,0.1780852,0.8451841,0.08716062,0.4188813,1.048889,-0.1324007,-0.276027,0.8633448,0.191046,0.1772776,0.9074,0.0714839,-0.02202971,1.098248,0.07246881,-0.3428271,1.07977,-0.1127932,0.1602355,1.070547,-0.02491509,-0.331492,1.043185,-0.200949,-0.08518652,1.121544,0.422577,-0.01916437,1.007067,NA,NA,NotTracked,Unknown,
0.3911133,-0.7026367,0.3330078,-0.4868164,0.9619141,0.06591797,1,-3,-1,-3,-3,-12,-5,0,9,8,0,-1,-2,-2,1,-2,31.75,31.75,31.75,-118.125,-118.125,-118.125,3.302498,4.280133,1.59277,7.541132,5.837843,3.837116,-0.1112618,-0.2752493,0.907842,0.2144262,0.1265122,0.8368787,0.08472514,0.419169,1.048565,-0.1271971,-0.2319501,0.8735002,0.1708688,0.1231947,0.8847778,0.07060066,-0.02525132,1.097503,0.07503636,-0.3500978,1.077052,-0.1140469,0.1600066,1.070432,-0.02233164,-0.340643,1.041966,-0.2003391,-0.08390023,1.122783,0.4176195,-0.03142581,1.006554,NA,NA,NotTracked,Unknown,
0.3706055,-0.644043,0.3139648,-0.3994141,0.9882813,0.1835938,-3,-2,-3,1,1,-12,-10,-5,14,8,-2,-4,-6,6,1,3,6.5,6.5,6.5,-102.375,-102.375,-102.375,3.329793,4.444255,1.561645,7.399904,5.580614,3.773807,-0.09147619,-0.2166491,0.8687961,0.2039817,0.02314181,0.8281009,0.081868,0.4199451,1.047997,-0.1046541,-0.1854192,0.8276511,0.1707018,0.0123062,0.875,0.07031853,-0.02610883,1.096955,0.07681838,-0.3506502,1.075726,-0.1153382,0.1599564,1.070247,-0.01989495,-0.3419116,1.040994,-0.198948,-0.07623109,1.125257,0.3612438,-0.02024032,1.015386,NA,NA,Unknown,Unknown,
0.3227539,-0.7055664,0.2866211,-0.2485352,1.440918,0.08447266,0,-1,-1,-9,-15,-4,1,-4,-32,14,0,-9,-6,-10,-25,-41,-6,-6,-6,-70.375,-70.375,-70.375,3.323415,4.566224,1.538611,7.252918,5.246728,3.733615,-0.08133302,-0.1922378,0.8614319,0.2042493,-0.01934109,0.8329448,0.08105449,0.4202212,1.047814,-0.1046421,-0.1655724,0.8275834,0.1466555,-0.03638991,0.8648,0.06978332,-0.02656602,1.096721,0.07621072,-0.3509815,1.075308,-0.1186434,0.1604967,1.07466,-0.02007231,-0.3420203,1.040895,-0.1983414,-0.07167359,1.125209,0.3624256,-0.02202841,1.019399,NA,NA,Unknown,Unknown,
0.3027344,-0.7363281,0.3452148,-0.2285156,1.361328,0.1850586,-2,0,-2,1,3,-5,-6,-2,-2,-4,-5,-3,0,-4,1,15,-12.1875,-12.1875,-12.1875,-57.0625,-57.0625,-57.0625,3.310531,4.650319,1.514057,7.220356,5.16733,3.723255,-0.07555567,-0.1747619,0.8539491,0.1971483,-0.04816378,0.8339793,0.08073219,0.4203476,1.047669,-0.05037849,-0.1258188,0.8608333,0.1482819,-0.07302205,0.89725,0.06965744,-0.02673706,1.096633,0.07606267,-0.3509739,1.075181,-0.1191991,0.1609351,1.075564,-0.02009724,-0.3418782,1.040666,-0.1972484,-0.06740648,1.124015,0.3660536,-0.02895718,1.044289,NA,NA,Unknown,Unknown,
0.2519531,-0.7416992,0.3369141,-0.02490234,1.370117,0.05078125,-2,-1,-2,-3,-1,5,-2,-3,-8,3,3,5,6,-1,-2,-6,-11.375,-11.375,-11.375,-48.4375,-48.4375,-48.4375,3.300561,4.697423,1.48513,7.159767,4.98285,3.696941,-0.06990624,-0.1589624,0.8483876,0.1949583,-0.07053117,0.8368384,0.08065724,0.4204233,1.047588,-0.02995056,-0.1496198,0.9090001,0.1482156,-0.08302348,0.91,0.06993517,-0.0270897,1.09574,0.07599882,-0.3508575,1.075074,-0.1196451,0.1611974,1.076049,-0.01998157,-0.3414546,1.040144,-0.1969948,-0.06410766,1.121872,0.3646109,-0.03526281,1.059989,NA,NA,Unknown,Unknown,
0.2036133,-0.8496094,0.4311523,-0.005859375,1.174805,0.1547852,-1,0,-1,-1,-1,-3,-4,-2,0,4,-1,-1,-4,-9,-8,-11,-23.0625,-23.0625,-23.0625,-26.3125,-26.3125,-26.3125,3.271111,4.726025,1.437258,7.132359,4.910249,3.688583,-0.06567838,-0.1491094,0.841002,0.1969957,-0.1015019,0.8427255,0.08103774,0.4207404,1.047519,-0.01068063,-0.1507902,0.89825,0.1500863,-0.1275053,0.8821,0.07002425,-0.02715161,1.095713,0.07594974,-0.3508122,1.074994,-0.1193081,0.1617155,1.074336,-0.0197703,-0.3410096,1.039034,-0.196801,-0.05849466,1.115159,0.3566609,-0.04171158,1.081414,NA,NA,Unknown,Unknown,
0.1425781,-0.8291016,0.4897461,0.03515625,1.174316,0.2070313,-1,0,1,-1,-3,-6,-3,-4,17,-4,-3,-3,-3,1,4,18,-22.5625,-22.5625,-22.5625,-1.4375,-1.4375,-1.4375,3.253853,4.736823,1.406695,7.134372,4.886534,3.683635,-0.06289339,-0.1447403,0.8405352,0.1952271,-0.1104515,0.8466674,0.08179225,0.4210284,1.047598,-0.007437938,-0.1466098,0.8904286,0.1515946,-0.126409,0.9189334,0.07008634,-0.02717819,1.095674,0.07596368,-0.3507983,1.074964,-0.1191964,0.1620473,1.074293,-0.0196468,-0.3408292,1.038632,-0.1976996,-0.05692672,1.112081,0.3553289,-0.04295807,1.08676,NA,NA,Unknown,Unknown,
0.1533203,-0.8701172,0.4921875,0.08056641,1.176758,0.2231445,-1,0,-1,1,9,-18,5,1,-7,-13,-3,0,-3,-3,-6,-20,-24.875,-24.875,-24.875,-10.625,-10.625,-10.625,3.237285,4.741014,1.376376,7.146563,4.839292,3.665303,-0.06188514,-0.1406846,0.8401398,0.2006164,-0.1158754,0.8450378,0.08307777,0.4215519,1.047562,-0.007965427,-0.1459282,0.8791667,0.1861605,-0.07022461,0.8765239,0.07021283,-0.02717502,1.095653,0.07598927,-0.3507196,1.074966,-0.1189103,0.1623859,1.074157,-0.01948202,-0.3405013,1.038299,-0.1989937,-0.05612216,1.108246,0.3546763,-0.04333784,1.091029,NA,NA,Unknown,Unknown,
0.1552734,-0.8754883,0.5107422,0.1152344,1.007324,0.2568359,-3,-2,-3,-2,-6,-18,-10,-2,1,-1,2,1,0,1,-1,1,-15.3125,-15.3125,-15.3125,-20.875,-20.875,-20.875,3.225652,4.74639,1.355669,7.125172,4.81402,3.655763,-0.05878984,-0.1392265,0.8405027,0.1997361,-0.1191745,0.8465599,0.08467597,0.4219099,1.047658,-0.008946703,-0.1448605,0.8731251,0.1763851,-0.07822134,0.8913572,0.0705017,-0.0271976,1.095621,0.07601822,-0.3507034,1.074965,-0.1183737,0.1626823,1.073772,-0.01930019,-0.3403266,1.037945,-0.1999115,-0.05465186,1.105219,0.3545412,-0.0436146,1.093949,NA,NA,Unknown,Unknown,
0.152832,-0.8828125,0.4921875,0.1279297,0.9511719,0.2641602,4,3,0,1,-3,-12,5,2,11,4,-2,-2,2,2,11,20,-2.6875,-2.6875,-2.6875,-11.6875,-11.6875,-11.6875,3.226304,4.753265,1.34221,7.118177,4.804283,3.650587,-0.07194845,-0.1438418,0.8439474,0.2036751,-0.1222785,0.8454993,0.08624178,0.4222038,1.04765,-0.05394917,-0.1781645,0.8257272,0.1526166,-0.1408564,0.8862858,0.0706919,-0.02719368,1.095546,0.07603189,-0.350664,1.074945,-0.1179663,0.163205,1.073121,-0.01916701,-0.3400775,1.037573,-0.2008647,-0.05355603,1.103077,0.3544865,-0.04391506,1.095661,NA,NA,Unknown,Unknown,
0.152832,-0.8828125,0.4921875,0.1279297,0.9511719,0.2641602,4,3,0,1,-3,-12,5,2,11,4,-2,-2,2,2,11,20,-2.6875,-2.6875,-2.6875,-11.6875,-11.6875,-11.6875,3.226304,4.753265,1.34221,7.118177,4.804283,3.650587,-0.06036704,-0.1373069,0.8416103,0.2009045,-0.1230325,0.8465464,0.08794656,0.4225717,1.047813,-0.01085881,-0.1273333,0.8921111,0.1538853,-0.1429122,0.9121429,0.0709058,-0.02715695,1.095533,0.07609183,-0.3506018,1.074956,-0.117347,0.1636639,1.072551,-0.01897893,-0.3398613,1.037363,-0.2019132,-0.05249961,1.100985,0.4136009,-0.07108389,1.05843,NA,NA,Unknown,Unknown,
0.1777344,-0.8642578,0.4794922,0.1347656,1.001465,0.2626953,-2,-1,-2,1,-5,-14,-18,-2,9,1,3,1,-2,1,-2,-1,7.4375,7.4375,7.4375,-0.75,-0.75,-0.75,3.236235,4.757512,1.33719,7.116554,4.788169,3.635764,-0.05766329,-0.136096,0.8399202,0.2008377,-0.1242742,0.8453635,0.08942562,0.4230128,1.047891,-0.01264229,-0.1311481,0.8972953,0.1562997,-0.1331825,0.9115555,0.07128355,-0.02702373,1.095384,0.0763004,-0.3504141,1.074903,-0.1167366,0.1639929,1.071749,-0.01850077,-0.3393925,1.03697,-0.2019596,-0.05235696,1.098933,0.4136025,-0.07110633,1.058448,NA,NA,Unknown,Unknown,
0.1953125,-0.8764648,0.4785156,0.1269531,0.9750977,0.2602539,-2,0,-1,2,1,6,-1,-3,-13,-3,-4,-5,0,22,1,-7,6.9375,6.9375,6.9375,-4.875,-4.875,-4.875,3.247652,4.75811,1.333613,7.112508,4.785183,3.622871,-0.05844342,-0.1368126,0.8388547,0.2036468,-0.1255903,0.8477979,0.09091122,0.4234438,1.04825,-0.009939006,-0.1231264,0.8809091,0.1577229,-0.1450945,0.9153334,0.07155054,-0.02691694,1.095371,0.07649174,-0.3502314,1.074909,-0.115948,0.164381,1.07085,-0.01809131,-0.3389513,1.036648,-0.2022544,-0.05197456,1.097237,0.4134678,-0.07083843,1.059004,NA,NA,Unknown,Unknown,
0.2143555,-0.9082031,0.4755859,0.1484375,1.005371,0.2553711,-1,-2,-1,-2,-5,-14,-5,-2,0,-1,-3,-1,-1,-2,0,2,5.25,5.25,5.25,-9.5625,-9.5625,-9.5625,3.253927,4.75808,1.330026,7.105253,4.782802,3.610738,-0.05750913,-0.135862,0.8374959,0.2037527,-0.1251532,0.8475204,0.0919451,0.4236863,1.048286,-0.01751926,-0.1085602,0.8765294,0.1605781,-0.1470611,0.9141111,0.07176931,-0.02679764,1.095282,0.07668317,-0.3500707,1.074824,-0.1154628,0.1645951,1.070242,-0.01772649,-0.3385835,1.036181,-0.2021519,-0.05170962,1.095825,0.4132884,-0.07045336,1.059823,NA,NA,Unknown,Unknown,
0.1806641,-0.8891602,0.472168,0.1435547,0.9799805,0.2636719,-1,-1,0,-3,-7,-20,-6,0,-4,1,-2,-4,0,0,-2,6,5,5,5,-8.125,-8.125,-8.125,3.261285,4.758039,1.324211,7.100986,4.783518,3.604866,-0.05679148,-0.1366175,0.8373845,0.2047285,-0.1253866,0.845231,0.09293222,0.4237993,1.048286,-0.005441528,-0.1399193,0.8596667,0.1578474,-0.1390405,0.9067864,0.07210614,-0.02666745,1.095127,0.0771417,-0.3497196,1.074684,-0.1150035,0.1646796,1.069381,-0.01699486,-0.3380001,1.035571,-0.2020871,-0.05161602,1.095321,0.4129069,-0.07041185,1.060863,NA,NA,Unknown,Unknown,
0.1777344,-0.8920898,0.4716797,0.1279297,0.9775391,0.2641602,-1,0,-3,1,-4,-3,3,-3,2,-10,-3,-2,-2,-1,4,25,3.625,3.625,3.625,-3.375,-3.375,-3.375,3.26793,4.754979,1.316185,7.095505,4.791046,3.590497,-0.05568956,-0.1360061,0.838617,0.2058233,-0.1228042,0.8457948,0.09432643,0.4241676,1.048492,-0.01611914,-0.1135371,0.901125,0.1909519,-0.07796761,0.87475,0.0726347,-0.02642436,1.095016,0.0776552,-0.349267,1.074617,-0.1142703,0.1649698,1.068451,-0.01626312,-0.3372964,1.03501,-0.2020914,-0.05164732,1.094377,0.4121428,-0.07085453,1.061591,NA,NA,Unknown,Unknown,
0.1777344,-0.9091797,0.4765625,0.121582,0.9555664,0.2485352,1,-1,-2,-1,1,4,0,-1,-1,-1,-2,0,1,3,-4,-8,-1.875,-1.875,-1.875,-6.1875,-6.1875,-6.1875,3.267569,4.749374,1.308457,7.089451,4.794478,3.58617,-0.05588471,-0.137305,0.8397228,0.2051249,-0.12265,0.8468962,0.09477689,0.4241649,1.048452,-0.01247655,-0.1205086,0.8938128,0.1922586,-0.07672008,0.8865715,0.07281224,-0.026379,1.094895,0.07775767,-0.3491901,1.074513,-0.1141176,0.1650903,1.068029,-0.01612259,-0.3371723,1.034713,-0.2019326,-0.05147447,1.093518,0.4120046,-0.07105851,1.061483,NA,NA,Unknown,Unknown,
0.1708984,-0.9248047,0.4814453,0.121582,0.9555664,0.2485352,0,0,0,0,-2,-6,-4,-3,-21,-20,-3,0,-4,0,-6,-16,0.5,0.5,0.5,-6.1875,-6.1875,-6.1875,3.267949,4.746531,1.305616,7.089451,4.794478,3.58617,-0.05536937,-0.1386153,0.8391852,0.2042634,-0.1218589,0.8456203,0.09510426,0.4241636,1.048402,-0.01268655,-0.1239951,0.8960204,0.1913672,-0.07748466,0.8874837,0.07302611,-0.02628095,1.094725,0.0780647,-0.3489729,1.074252,-0.113701,0.1651352,1.067439,-0.01574372,-0.3368738,1.034261,-0.201708,-0.05155309,1.092629,0.4116501,-0.07161251,1.060961,NA,NA,Unknown,Unknown,
0.1728516,-0.9047852,0.4775391,0.121582,0.9555664,0.2485352,0,-1,0,-1,0,2,-2,2,-2,3,1,-1,2,5,0,3,0.1875,0.1875,0.1875,-6.1875,-6.1875,-6.1875,3.268736,4.74423,1.306559,7.089451,4.794478,3.58617,-0.05353859,-0.1389045,0.8401532,0.2042727,-0.1218709,0.8443676,0.09564857,0.4241533,1.048286,-0.01064172,-0.1205679,0.8892716,0.1609577,-0.1393366,0.8869092,0.07326387,-0.0262293,1.094449,0.07832669,-0.3488508,1.073866,-0.1133643,0.1651679,1.066803,-0.0154892,-0.3367441,1.033597,-0.2015334,-0.05151843,1.09181,0.4114417,-0.07178994,1.061235,NA,NA,Unknown,Unknown,
0.1645508,-0.9052734,0.4741211,0.1347656,0.965332,0.2719727,-2,-1,-2,-1,-1,8,3,-3,8,2,0,0,0,-1,-2,-7,-0.1875,-0.1875,-0.1875,-2.625,-2.625,-2.625,3.268105,4.743896,1.308577,7.081603,4.797394,3.58353,-0.05415616,-0.1403556,0.8400714,0.2034449,-0.1224312,0.8462168,0.09580515,0.4242036,1.048272,-0.01746323,-0.1233963,0.8924959,0.1576625,-0.1455878,0.917,0.0733099,-0.02620227,1.094406,0.07839558,-0.348794,1.073774,-0.1133349,0.1651839,1.066734,-0.01542556,-0.3366826,1.033437,-0.2014599,-0.05158101,1.091709,0.4111623,-0.0718163,1.061422,NA,NA,Unknown,Unknown,
0.1738281,-0.8979492,0.484375,0.1547852,0.9555664,0.2358398,-2,-3,-1,-1,1,-4,-1,-3,-8,-25,-9,-3,-4,-2,-2,-3,0.1875,0.1875,0.1875,-4.6875,-4.6875,-4.6875,3.267694,4.742021,1.318591,7.075269,4.794696,3.586183,-0.05431592,-0.1404592,0.8416952,0.2023796,-0.12203,0.8451073,0.09595431,0.4242088,1.04822,-0.00963444,-0.1273192,0.8887671,0.1660838,-0.1280309,0.9186924,0.07343277,-0.02613732,1.094282,0.07852068,-0.3486432,1.073584,-0.1132185,0.1651758,1.066448,-0.01529331,-0.3365032,1.033163,-0.2014516,-0.05161266,1.091713,0.4109011,-0.07179637,1.061556,NA,NA,Unknown,Unknown,
0.1674805,-0.9038086,0.4853516,0.1542969,0.9663086,0.2558594,-2,0,-1,0,0,20,13,0,-2,5,-2,-3,-2,-2,1,-5,0.6875,0.6875,0.6875,-2.0625,-2.0625,-2.0625,3.267555,4.741351,1.32743,7.074588,4.795031,3.586739,-0.05499108,-0.1405902,0.8404405,0.2023419,-0.1214309,0.8447708,0.09601133,0.4242262,1.048187,-0.01324516,-0.1259079,0.8947959,0.1926303,-0.07488845,0.8765295,0.07350163,-0.02609265,1.094174,0.0785769,-0.3485782,1.073415,-0.1132349,0.1651802,1.066406,-0.01524442,-0.3364395,1.032918,-0.2014408,-0.05166944,1.091717,0.4102431,-0.07172521,1.061479,NA,NA,Unknown,Unknown,
0.1723633,-0.890625,0.4887695,0.1542969,0.9663086,0.2558594,-1,-2,-2,-3,-2,-2,-2,-2,-6,-9,-2,-4,1,-1,-2,-1,1.375,1.375,1.375,-2.0625,-2.0625,-2.0625,3.268331,4.740644,1.332014,7.074588,4.795031,3.586739,-0.05575937,-0.1410142,0.8416569,0.2016906,-0.1214877,0.8451699,0.09604059,0.4242431,1.048163,-0.009485812,-0.1278094,0.892646,0.1521916,-0.1421187,0.903125,0.07361971,-0.02605305,1.094056,0.07869981,-0.34845,1.073223,-0.1132407,0.1651734,1.066367,-0.01511756,-0.3362999,1.032667,-0.201378,-0.05167532,1.091686,0.4100229,-0.07195815,1.061147,NA,NA,Unknown,Unknown,
0.1606445,-0.8979492,0.4985352,0.1381836,0.9331055,0.2641602,-1,-2,-2,-4,1,7,2,-2,8,-1,0,-5,-2,-2,-2,-9,-0.125,-0.125,-0.125,-0.3125,-0.3125,-0.3125,3.269608,4.739306,1.344262,7.07041,4.78815,3.599535,-0.05717318,-0.1429299,0.8402871,0.2002746,-0.1226093,0.8465669,0.0960872,0.4242181,1.048037,-0.01265511,-0.1263357,0.8811765,0.1586087,-0.1434056,0.9150833,0.07377504,-0.02605632,1.093786,0.07878458,-0.3483944,1.072935,-0.1132931,0.165082,1.066261,-0.01507369,-0.3362745,1.032439,-0.2009016,-0.05214095,1.091506,0.4099555,-0.07196387,1.060999,NA,NA,Unknown,Unknown,
0.1621094,-0.8959961,0.4936523,0.1303711,0.9692383,0.2939453,-1,-1,0,2,0,-7,-12,-2,-3,-8,2,3,0,0,-1,1,0.6875,0.6875,0.6875,-1.5,-1.5,-1.5,3.271029,4.737966,1.350853,7.068661,4.782454,3.606932,-0.04673026,-0.1364509,0.840004,0.1999744,-0.1228699,0.8467087,0.09609152,0.4242337,1.047992,-0.003358566,-0.1297113,0.8935333,0.1566264,-0.1427168,0.9108113,0.07379279,-0.02607282,1.093687,0.07878211,-0.3484029,1.072826,-0.1133113,0.1650527,1.066282,-0.01508459,-0.336297,1.032299,-0.2009257,-0.05219475,1.092278,0.4098285,-0.07194705,1.060961,NA,NA,Unknown,Unknown,
0.1669922,-0.9067383,0.5068359,0.1279297,0.9575195,0.2724609,-2,0,1,-1,4,12,-4,-1,-7,2,-7,-6,-1,-1,1,6,0.625,0.625,0.625,-4.9375,-4.9375,-4.9375,3.272385,4.736861,1.3552,7.065684,4.781219,3.608,-0.0470303,-0.137776,0.8399484,0.1995773,-0.122064,0.8445628,0.09608886,0.4242344,1.047854,-0.002364088,-0.130931,0.8904067,0.157977,-0.1335943,0.911,0.07384402,-0.02605037,1.093494,0.07875936,-0.3482767,1.072604,-0.1133623,0.1650064,1.066357,-0.01511978,-0.3361645,1.032078,-0.2008666,-0.05222211,1.092528,0.4096073,-0.07169355,1.061188,NA,NA,Unknown,Unknown,
0.1586914,-0.9057617,0.4975586,0.1401367,0.9516602,0.2915039,2,1,-1,0,-2,0,4,1,3,0,3,4,0,-2,-2,-4,3.3125,3.3125,3.3125,-6.5625,-6.5625,-6.5625,3.27615,4.73657,1.358723,7.06109,4.780339,3.608705,-0.04823634,-0.1384629,0.8400558,0.1986047,-0.1221572,0.8447292,0.09605148,0.4242214,1.047725,-0.001615949,-0.1364405,0.8844286,0.1511554,-0.1361058,0.9019936,0.07386217,-0.02603083,1.09344,0.07876468,-0.3481938,1.07255,-0.1134344,0.1649907,1.06643,-0.01510736,-0.3360926,1.032039,-0.2007132,-0.05233591,1.093093,0.4093985,-0.07139097,1.061413,NA,NA,Unknown,Unknown,
0.1591797,-0.9067383,0.4912109,0.1508789,0.9458008,0.2714844,-1,-2,-1,-1,-2,-9,-13,-1,-1,1,4,4,2,1,2,6,2.375,2.375,2.375,-4.375,-4.375,-4.375,3.279731,4.736622,1.361834,7.052923,4.780333,3.608119,-0.04808937,-0.1388452,0.8428473,0.1978757,-0.1217173,0.8451571,0.09593471,0.4241768,1.047341,0.006857419,-0.1512954,0.8922,0.1547502,-0.1354391,0.9117578,0.07386103,-0.02602073,1.093329,0.07872169,-0.3481694,1.072407,-0.1135183,0.1649037,1.066585,-0.01515877,-0.336099,1.031937,-0.2005849,-0.05268533,1.094113,0.4095095,-0.07152928,1.061717,NA,NA,Unknown,Unknown,
0.1591797,-0.8984375,0.4799805,0.1508789,0.9458008,0.2714844,-3,-2,0,1,1,4,3,-4,-6,3,-2,-5,-1,1,4,9,2.9375,2.9375,2.9375,-4.375,-4.375,-4.375,3.282606,4.736322,1.362938,7.052923,4.780333,3.608119,-0.04972334,-0.1394698,0.8405501,0.1973847,-0.1219688,0.8455066,0.09587287,0.4241284,1.047092,-0.00113948,-0.1440597,0.8891038,0.1614676,-0.1313632,0.9218462,0.07382419,-0.02605645,1.093226,0.07864173,-0.3481957,1.07233,-0.1136965,0.1646528,1.066171,-0.0152578,-0.3361432,1.031845,-0.200501,-0.05274457,1.094972,0.4091752,-0.07178237,1.061107,NA,NA,Unknown,Unknown,
0.15625,-0.8969727,0.4790039,0.1469727,0.9633789,0.2739258,0,2,-2,-3,-4,-19,-14,-3,10,-2,2,2,-1,0,-1,-2,0.125,0.125,0.125,-1.8125,-1.8125,-1.8125,3.2838,4.735635,1.363522,7.048986,4.78089,3.608062,-0.04982581,-0.1397326,0.8410497,0.1970781,-0.1218411,0.845017,0.09578737,0.4241516,1.046841,0.0003935584,-0.1444665,0.8878321,0.1585431,-0.1345778,0.9154469,0.0738151,-0.02604616,1.093189,0.07860968,-0.348144,1.072291,-0.1137969,0.1646608,1.066347,-0.01527874,-0.3361045,1.031835,-0.2003281,-0.05274337,1.095286,0.4091535,-0.07175586,1.061129,NA,NA,Unknown,Unknown,
0.1733398,-0.8955078,0.4868164,0.1381836,0.9545898,0.2573242,-1,0,-1,1,0,-8,-2,-1,-1,-3,-4,-2,1,0,0,-6,-2.75,-2.75,-2.75,-0.5,-0.5,-0.5,3.281654,4.733849,1.36283,7.050347,4.778709,3.610024,-0.04937445,-0.1398037,0.8414819,0.1964481,-0.122209,0.8461367,0.09573307,0.424175,1.046685,-0.003809536,-0.1240246,0.8922001,0.1564682,-0.137263,0.9134022,0.07379756,-0.02603707,1.093153,0.07859293,-0.3481396,1.072267,-0.1138686,0.1646976,1.066498,-0.01529869,-0.3361055,1.031821,-0.2002374,-0.0527675,1.095533,0.4090252,-0.07176584,1.06103,NA,NA,Unknown,Unknown,
0.1689453,-0.9038086,0.5097656,0.1435547,0.9555664,0.2734375,-2,-2,-1,-3,-3,-2,-8,0,-23,-8,-4,-4,-2,-2,-5,-6,-1.9375,-1.9375,-1.9375,1.125,1.125,1.125,3.280569,4.732704,1.362307,7.050848,4.775136,3.612586,-0.04863872,-0.1403783,0.8429647,0.19632,-0.1218281,0.844314,0.09566398,0.4241341,1.046514,0.0073076,-0.1501933,0.8795001,0.1478921,-0.1422221,0.9069999,0.07378001,-0.02604764,1.09309,0.07853429,-0.3481577,1.07223,-0.1140034,0.1644465,1.066028,-0.01536317,-0.3361385,1.031795,-0.2000709,-0.05285118,1.096084,0.4090329,-0.07174253,1.061073,NA,NA,Unknown,Unknown,
0.1831055,-0.9052734,0.5083008,0.1508789,0.9580078,0.2836914,0,-1,-2,-1,-3,-16,-25,-2,1,3,0,1,2,0,0,1,-0.625,-0.625,-0.625,1.375,1.375,1.375,3.281912,4.731721,1.362031,7.051411,4.773373,3.613374,-0.04917795,-0.1407501,0.8423999,0.1960177,-0.122283,0.8461218,0.0955262,0.4240825,1.046099,-0.005428825,-0.1323146,0.889,0.1508805,-0.1464611,0.9103686,0.07374923,-0.02605796,1.092955,0.07850615,-0.3481349,1.072152,-0.11411,0.1644468,1.066285,-0.01538281,-0.3361294,1.031751,-0.1998647,-0.05289818,1.096211,0.4093625,-0.07129359,1.062036,NA,NA,Unknown,Unknown,
0.1655273,-0.8984375,0.4985352,0.140625,0.9594727,0.2915039,1,-1,0,1,3,3,5,0,-4,-2,-3,-4,0,-1,-2,2,0.4375,0.4375,0.4375,-3.25,-3.25,-3.25,3.283292,4.732303,1.3622,7.049136,4.768968,3.615399,-0.04927595,-0.1408876,0.8407601,0.1958667,-0.1219606,0.84749,0.09543247,0.4239829,1.045768,-0.000351863,-0.1402248,0.8943374,0.1597052,-0.1463579,0.9162182,0.07373276,-0.02606898,1.092911,0.07848579,-0.3481604,1.072092,-0.1141794,0.1642605,1.066015,-0.0154048,-0.3361613,1.031716,-0.1998,-0.05299926,1.096366,0.4093627,-0.07129299,1.062036,NA,NA,Unknown,Unknown,
0.1728516,-0.8828125,0.4975586,0.1337891,0.9277344,0.2749023,-4,-1,-3,-3,-4,-13,-7,-1,-1,-6,-4,-2,0,1,2,12,0.25,0.25,0.25,-4.6875,-4.6875,-4.6875,3.284822,4.732493,1.362314,7.041933,4.765667,3.615324,-0.04983971,-0.1408324,0.8414129,0.19509,-0.1230752,0.8487769,0.09537643,0.4239914,1.045684,-0.0003610518,-0.1403588,0.8952618,0.1560847,-0.1421226,0.9184321,0.07372322,-0.02607422,1.092878,0.07847302,-0.3481376,1.072084,-0.1142111,0.1642299,1.066192,-0.01541165,-0.3361467,1.031716,-0.1996645,-0.05294298,1.096756,0.4093292,-0.07135817,1.062117,NA,NA,Unknown,Unknown,
0.1713867,-0.8876953,0.4985352,0.1474609,0.9306641,0.2700195,-1,-1,-1,1,-2,4,3,-1,8,23,5,1,-1,-2,-3,-12,-1.4375,-1.4375,-1.4375,-0.1875,-0.1875,-0.1875,3.285059,4.732666,1.361902,7.039518,4.762374,3.615108,-0.0494904,-0.1413863,0.8413418,0.1943806,-0.1230166,0.8486892,0.09532255,0.4239511,1.045544,-0.0008027547,-0.1378911,0.8927785,0.1549068,-0.1419844,0.9127917,0.07375482,-0.02606842,1.092811,0.07846586,-0.3480844,1.072032,-0.1142705,0.1642018,1.066355,-0.01541565,-0.3361056,1.031683,-0.1996841,-0.05306863,1.096956,0.4092779,-0.0711127,1.062323,NA,NA,Unknown,Unknown,
0.1884766,-0.9038086,0.5053711,0.1450195,0.9799805,0.2856445,0,-1,0,-1,0,1,1,-3,-1,-6,-4,-5,-2,-1,0,8,-1.75,-1.75,-1.75,-0.4375,-0.4375,-0.4375,3.285011,4.732252,1.36165,7.041422,4.761349,3.614313,-0.04940514,-0.1417838,0.8419081,0.1944487,-0.1237034,0.8482978,0.09523892,0.4238994,1.04524,-0.002632007,-0.1353529,0.8995555,0.1491683,-0.1471464,0.9111062,0.07374592,-0.02610863,1.092731,0.07843983,-0.3481129,1.071979,-0.1143778,0.1639843,1.066154,-0.01545015,-0.3361526,1.031643,-0.1996127,-0.0530933,1.097288,0.4091226,-0.07123215,1.062255,NA,NA,Unknown,Unknown,
0.1806641,-0.8994141,0.5029297,0.1425781,0.9760742,0.2915039,-3,-2,1,0,0,4,-4,-6,-6,-10,-4,-2,-1,-2,-3,-15,-0.4375,-0.4375,-0.4375,-2.375,-2.375,-2.375,3.285655,4.73188,1.360528,7.039214,4.762398,3.612638,-0.04882428,-0.1418405,0.841252,0.1943946,-0.122721,0.8491215,0.09521229,0.4238587,1.045099,2.403176E-05,-0.1398928,0.8918955,0.1537473,-0.1425292,0.9123564,0.07374954,-0.02610292,1.092694,0.07843531,-0.3480819,1.071958,-0.1144174,0.1639933,1.06618,-0.01545278,-0.336131,1.031634,-0.1996652,-0.05308407,1.097343,0.4092963,-0.07090014,1.063275,NA,NA,Unknown,Unknown,
0.1650391,-0.8920898,0.4765625,0.1362305,0.9487305,0.2607422,2,0,0,0,-1,8,6,2,-1,3,3,2,-1,1,-2,7,0.375,0.375,0.375,-3.375,-3.375,-3.375,3.28716,4.7321,1.358012,7.037044,4.764222,3.611244,-0.04855943,-0.1420818,0.8414742,0.193772,-0.1232643,0.8495127,0.09517173,0.4237103,1.044919,0.0002686344,-0.1394281,0.8924949,0.1529944,-0.1420794,0.9116839,0.07373518,-0.02609279,1.092636,0.07844191,-0.3480326,1.071901,-0.1144359,0.1639882,1.066198,-0.01544698,-0.3361023,1.031616,-0.199616,-0.05315158,1.097358,0.4089808,-0.07080989,1.063585,NA,NA,Unknown,Unknown,
0.175293,-0.8852539,0.496582,0.1313477,0.9521484,0.2836914,0,-1,-1,1,8,1,-1,-1,-5,-10,-1,1,-1,-2,-1,-3,-3.375,-3.375,-3.375,1.1875,1.1875,1.1875,3.285825,4.731074,1.35613,7.037445,4.765998,3.609309,-0.04906095,-0.142075,0.8424584,0.1941663,-0.1234443,0.8501065,0.09515836,0.4236358,1.044821,-0.002010261,-0.1421593,0.8946767,0.1580983,-0.1451757,0.9168789,0.0737237,-0.02610444,1.09263,0.07842851,-0.3480469,1.071882,-0.114426,0.1639415,1.066272,-0.01546644,-0.3361297,1.031583,-0.199528,-0.05329977,1.097515,0.4089865,-0.07076126,1.063753,NA,NA,Unknown,Unknown,
0.1713867,-0.9042969,0.4995117,0.1455078,0.9570313,0.2929688,1,-1,-3,-2,-2,-4,-1,-1,4,0,3,0,1,2,0,1,0.5625,0.5625,0.5625,-0.3125,-0.3125,-0.3125,3.28581,4.730412,1.353197,7.038482,4.76628,3.608322,-0.04880017,-0.1417872,0.8424201,0.1946278,-0.1226992,0.8498812,0.09512125,0.4235668,1.044676,-0.006496818,-0.1416788,0.899793,0.1574065,-0.1442003,0.9165056,0.07370104,-0.02611359,1.092606,0.07841545,-0.3480383,1.071864,-0.114469,0.1639446,1.066359,-0.01548108,-0.3361182,1.031562,-0.1994868,-0.05339705,1.097759,0.4086696,-0.07070615,1.063986,NA,NA,Unknown,Unknown,
0.1689453,-0.8930664,0.5009766,0.1420898,0.9594727,0.2807617,-2,-1,-2,-3,-3,-1,2,-1,-2,-2,1,0,-1,-3,-3,2,-1.5625,-1.5625,-1.5625,-0.5625,-0.5625,-0.5625,3.285708,4.731093,1.352944,7.038453,4.76634,3.60836,-0.0487558,-0.1416099,0.8431748,0.1940443,-0.1226325,0.8498458,0.0951291,0.423477,1.044508,-0.00163783,-0.1394884,0.8948209,0.1595779,-0.1459732,0.9171733,0.07370117,-0.02611287,1.092584,0.07841382,-0.348019,1.071859,-0.1144713,0.163948,1.066493,-0.01547772,-0.3361025,1.031558,-0.199481,-0.05339049,1.097778,0.4085979,-0.07072527,1.06402,NA,NA,Unknown,Unknown,
0.1796875,-0.9047852,0.4902344,0.1362305,0.940918,0.277832,-2,0,-3,-3,-4,-9,-12,-5,-13,1,0,0,-2,0,-1,7,0.1875,0.1875,0.1875,-0.5,-0.5,-0.5,3.285893,4.730977,1.352842,7.038706,4.7665,3.608138,-0.04854579,-0.1412417,0.842014,0.1935864,-0.1231435,0.8514743,0.09513441,0.4234239,1.044481,0.001085176,-0.1426449,0.8844286,0.1492801,-0.1417461,0.909764,0.07370584,-0.02612481,1.092565,0.07840813,-0.348025,1.071858,-0.1144745,0.1639463,1.066537,-0.01548947,-0.3361107,1.031552,-0.1994866,-0.05348545,1.097962,0.4085753,-0.07091023,1.063876,NA,NA,Unknown,Unknown,
0.1728516,-0.887207,0.4848633,0.1308594,0.9472656,0.2788086,2,0,-1,-3,-1,5,-3,4,-2,2,1,-2,0,-1,-4,-4,0.5,0.5,0.5,0.6875,0.6875,0.6875,3.286119,4.730916,1.352935,7.038798,4.766865,3.60811,-0.04872622,-0.1412716,0.8426048,0.194046,-0.1220661,0.8496624,0.0951345,0.4234138,1.04448,-3.742857E-05,-0.1426051,0.8882572,0.1542178,-0.1428593,0.9134135,0.0736875,-0.02610996,1.092573,0.07839818,-0.3480226,1.071865,-0.1144827,0.1639749,1.066656,-0.01550204,-0.3361081,1.031554,-0.1994613,-0.05350574,1.098028,0.4085672,-0.07090925,1.063927,NA,NA,Unknown,Unknown,
0.1679688,-0.8964844,0.4960938,0.1381836,0.9594727,0.2773438,0,-1,1,-1,1,6,8,2,-7,-10,-2,-1,-2,-1,-2,4,-0.8125,-0.8125,-0.8125,0.25,0.25,0.25,3.286429,4.730956,1.352776,7.039723,4.767282,3.608555,-0.04890008,-0.1406168,0.8418568,0.1930061,-0.1220687,0.8502595,0.09511974,0.4233546,1.044416,-0.001551992,-0.1398855,0.8909103,0.1510026,-0.1346836,0.9137738,0.07367653,-0.02611437,1.092582,0.07839637,-0.348003,1.071864,-0.1145618,0.1640219,1.066813,-0.01549914,-0.3361003,1.031557,-0.1994343,-0.05355498,1.098082,0.4084516,-0.07099019,1.063965,NA,NA,Unknown,Unknown,
0.1821289,-0.8857422,0.5009766,0.1455078,0.9604492,0.2890625,1,-1,-2,-2,4,6,0,0,-18,-11,-2,-3,-3,-2,0,6,-1.75,-1.75,-1.75,1.375,1.375,1.375,3.286106,4.729851,1.352841,7.041017,4.766635,3.609371,-0.04861307,-0.1410931,0.8426657,0.1931229,-0.1217168,0.8505713,0.09510064,0.4233505,1.044439,-0.006653926,-0.1313001,0.8947273,0.1524651,-0.1415779,0.9130234,0.07366075,-0.02613308,1.092602,0.07839195,-0.3480317,1.071911,-0.1146185,0.1639375,1.06657,-0.01550146,-0.3361489,1.03161,-0.1994075,-0.0535226,1.098337,0.4083868,-0.07082935,1.064267,NA,NA,Unknown,Unknown,
0.1831055,-0.894043,0.5146484,0.1362305,0.9658203,0.2783203,0,-1,-2,-1,-3,9,4,-2,0,-3,2,4,-1,-2,-4,-5,-0.8125,-0.8125,-0.8125,-1.0625,-1.0625,-1.0625,3.286953,4.728948,1.352821,7.040765,4.766766,3.609831,-0.04884579,-0.1410107,0.8430973,0.1921591,-0.121873,0.8510324,0.09508822,0.4233176,1.044418,-0.001318201,-0.1406691,0.8914438,0.1538279,-0.1416484,0.9135688,0.07365643,-0.02615469,1.092609,0.07837785,-0.3480389,1.071919,-0.1146293,0.1639799,1.06669,-0.01551798,-0.3361599,1.031618,-0.1994193,-0.05352864,1.098375,0.4083819,-0.07082779,1.064232,NA,NA,Unknown,Unknown,
0.1743164,-0.8969727,0.5058594,0.1455078,0.9501953,0.2797852,-4,-2,0,-2,-1,-3,-4,-2,-5,-8,-5,-3,-2,-2,-3,0,0.875,0.875,0.875,-0.6875,-0.6875,-0.6875,3.28854,4.72804,1.352286,7.040393,4.766881,3.610594,-0.04886976,-0.1410713,0.8432076,0.1925942,-0.1213207,0.8506881,0.09506588,0.4232858,1.044404,-0.002006215,-0.1382499,0.8919768,0.154524,-0.1420724,0.9156044,0.07365359,-0.0261554,1.092611,0.07839207,-0.3480182,1.071926,-0.1147185,0.1639814,1.066914,-0.01550523,-0.3361445,1.031615,-0.1994776,-0.0535922,1.098433,0.4083663,-0.07081461,1.064205,NA,NA,Unknown,Unknown,
