ALX,ALY,ALZ,ARX,ARY,ARZ,EMG0L,EMG1L,EMG2L,EMG3L,EMG4L,EMG5L,EMG6L,EMG7L,EMG0R,EMG1R,EMG2R,EMG3R,EMG4R,EMG5R,EMG6R,EMG7R,GLX,GLY,GLZ,GRX,GRY,GRZ,ORL,OPL,OYL,ORR,OPR,OYR,LHNX,LHNY,LHNZ,RHNX,RHNY,RHNZ,HX,HY,HZ,LTX,LTY,LTZ,RTX,RTY,RTZ,SpineMidX,SpineMidY,SpineMidZ,SpineBaseX,SpineBaseY,SpineBaseZ,ShoulderLeftX,ShoulderLeftY,ShoulderLeftZ,ShoulderRightX,ShoulderRightY,ShoulderRightZ,ElbowLeftX,ElbowLeftY,ElbowLeftZ,ElbowRightX,ElbowRightY,ElbowRightZ,Myo_Pose_left,Myo_Pose_Right,Kinect_pose_left,Kinect_pose_right
0.9726563,-0.1855469,0.1269531,0.9238281,0.2802734,0.09521484,-1,-2,1,1,-3,1,-2,-1,-7,1,-1,-1,-1,-3,0,-2,-1.3125,-1.3125,-1.3125,-0.625,-0.625,-0.625,3.422227,2.84407,5.484449,7.103294,2.979704,9.121025,-0.1369871,-0.4298801,1.433785,0.29552,-0.4205293,1.420786,0.06900307,0.4116379,1.493791,-0.1770794,-0.430979,1.429126,0.3349841,-0.4325563,1.405333,0.07414567,-0.04259504,1.517212,0.07647708,-0.3606807,1.495827,-0.109438,0.1266086,1.499146,0.0008349217,-0.3527336,1.466525,-0.1568018,-0.1312789,1.502528,0.298979,-0.1205767,1.494367,NA,NA,NotTracked,NotTracked,
0.9726563,-0.1855469,0.1269531,0.9335938,0.2807617,0.08886719,-1,-2,1,1,-3,1,-2,-1,4,-3,-3,-3,-3,-2,-4,-1,-1.3125,-1.3125,-1.3125,0.875,0.875,0.875,3.422227,2.84407,5.484449,7.104408,2.977888,9.120348,-0.1363043,-0.4300984,1.434321,0.2951801,-0.4189915,1.421056,0.06897716,0.4116666,1.493765,-0.1788841,-0.4237407,1.439131,0.3329989,-0.4262015,1.405647,0.07414019,-0.04257619,1.51721,0.07648811,-0.3606632,1.495828,-0.1090226,0.1264413,1.499106,0.0008561035,-0.3527177,1.466528,-0.1567995,-0.1312878,1.502556,0.298838,-0.1197665,1.494084,NA,NA,NotTracked,NotTracked,
0.9726563,-0.1855469,0.1269531,0.9262695,0.2788086,0.1010742,-1,-2,1,1,-3,1,-2,-1,-4,-1,0,-1,1,0,-3,-2,-1.3125,-1.3125,-1.3125,-0.1875,-0.1875,-0.1875,3.422227,2.84407,5.484449,7.108725,2.975984,9.114795,-0.1365632,-0.4300403,1.43448,0.2947149,-0.4191625,1.42101,0.06894511,0.4117282,1.493659,-0.1785425,-0.4262271,1.437889,0.3351099,-0.414248,1.414471,0.07414424,-0.04255718,1.517125,0.07649562,-0.3606652,1.495771,-0.1086276,0.1261052,1.499069,0.0008641856,-0.3527231,1.466456,-0.1568415,-0.131335,1.502525,0.2987636,-0.1200996,1.493946,NA,NA,NotTracked,NotTracked,
0.9726563,-0.1855469,0.1269531,0.9331055,0.2856445,0.09619141,-1,-2,1,1,-3,1,-2,-1,-1,-2,-1,1,0,-3,0,-1,-1.3125,-1.3125,-1.3125,1.9375,1.9375,1.9375,3.422227,2.84407,5.484449,7.115624,2.975266,9.108957,-0.1365862,-0.4306782,1.434356,0.2951055,-0.4192374,1.421289,0.06890282,0.4117205,1.493639,-0.1776921,-0.4289274,1.434562,0.3304594,-0.4318592,1.397857,0.07409773,-0.04256687,1.517086,0.07642296,-0.3606724,1.495713,-0.1082898,0.1258609,1.498971,0.0008001262,-0.3527288,1.466367,-0.1568876,-0.1313774,1.502724,0.298611,-0.1199611,1.493758,NA,NA,NotTracked,NotTracked,
0.9726563,-0.1855469,0.1269531,0.9350586,0.2807617,0.08886719,-1,-2,1,1,-3,1,-2,-1,-1,-1,-2,-2,-2,-2,1,-3,-1.3125,-1.3125,-1.3125,0.8125,0.8125,0.8125,3.422227,2.84407,5.484449,7.121871,2.975636,9.103528,-0.1363325,-0.430786,1.436311,0.2953921,-0.4202784,1.42262,0.06883188,0.4116154,1.493575,-0.1788791,-0.4233989,1.442867,0.3317857,-0.420531,1.407108,0.07404028,-0.04261436,1.51709,0.07629956,-0.3607347,1.495699,-0.108002,0.1256193,1.499377,0.0006575417,-0.3527993,1.466484,-0.1568884,-0.1315238,1.502855,0.2986093,-0.1202572,1.493756,NA,NA,NotTracked,NotTracked,
0.9726563,-0.1855469,0.1269531,0.9384766,0.2797852,0.09863281,-1,-2,1,1,-3,1,-2,-1,2,2,-3,1,2,1,-2,-2,-1.3125,-1.3125,-1.3125,0.3125,0.3125,0.3125,3.422227,2.84407,5.484449,7.12025,2.975279,9.104353,-0.136679,-0.4285659,1.439073,0.2950085,-0.4189385,1.423186,0.06874835,0.4115385,1.493618,-0.1795653,-0.4185848,1.447,0.33463,-0.412466,1.414619,0.07400609,-0.04263192,1.517119,0.07627827,-0.360729,1.49571,-0.1078373,0.1255558,1.499641,0.0006330077,-0.3528001,1.466503,-0.1569638,-0.1314451,1.503207,0.2984819,-0.1197991,1.493623,NA,NA,NotTracked,NotTracked,
0.9726563,-0.1855469,0.1269531,0.9604492,0.2905273,0.1088867,-1,-2,1,1,-3,1,-2,-1,-5,-3,0,0,2,-3,-4,-2,-1.3125,-1.3125,-1.3125,-0.1875,-0.1875,-0.1875,3.422227,2.84407,5.484449,7.115198,2.976424,9.109177,-0.1365935,-0.428848,1.439172,0.293869,-0.4177778,1.422726,0.06859832,0.4115083,1.493564,-0.1776623,-0.4254544,1.439539,0.3330885,-0.417527,1.411063,0.0738667,-0.04263248,1.517107,0.07610032,-0.3607245,1.495703,-0.1076946,0.1255135,1.499752,0.000450598,-0.3527929,1.466522,-0.1569316,-0.1315391,1.503581,0.2986128,-0.1199287,1.49357,NA,NA,NotTracked,NotTracked,
0.9726563,-0.1855469,0.1269531,1.077148,0.2441406,0.05908203,-1,-2,1,1,-3,1,-2,-1,1,-4,-6,-2,-3,0,-1,2,-1.3125,-1.3125,-1.3125,14.375,14.375,14.375,3.422227,2.84407,5.484449,7.004271,3.012064,9.233472,-0.1365067,-0.4288792,1.438303,0.2892455,-0.4151007,1.412442,0.06837592,0.4115317,1.49351,-0.1808588,-0.4417241,1.444125,0.3300813,-0.4156592,1.40254,0.07357683,-0.04258583,1.517092,0.07567684,-0.3606901,1.495681,-0.1076274,0.125367,1.499841,8.822827E-07,-0.3527692,1.466557,-0.1569633,-0.1321741,1.50402,0.2990188,-0.1198619,1.494202,NA,NA,NotTracked,NotTracked,
0.9726563,-0.1855469,0.1269531,1.158691,0.3974609,0.3911133,-1,-2,1,1,-3,1,-2,-1,-6,-12,5,-16,-11,-3,-3,-3,-1.3125,-1.3125,-1.3125,135.5625,135.5625,135.5625,3.422227,2.84407,5.484449,6.666075,3.239545,9.791021,-0.1367006,-0.4275217,1.437649,0.273776,-0.3897748,1.376261,0.06805073,0.4116035,1.493572,-0.1808906,-0.4351027,1.441389,0.3090209,-0.4080618,1.3596,0.07330289,-0.04254184,1.516965,0.07503154,-0.3606007,1.49545,-0.1077307,0.125014,1.500367,-0.0006397093,-0.3526104,1.466365,-0.1569457,-0.1326112,1.504494,0.301734,-0.118472,1.497689,NA,NA,NotTracked,NotTracked,
0.9726563,-0.1855469,0.1269531,0.9790039,0.8344727,0.4516602,-1,-2,1,1,-3,1,-2,-1,-8,-26,-86,-53,-7,-5,-7,-5,-1.3125,-1.3125,-1.3125,167.1875,167.1875,167.1875,3.422227,2.84407,5.484449,6.596982,3.548639,0.1851432,-0.1377166,-0.428143,1.437751,0.2205864,-0.3227768,1.349305,0.06761757,0.4117009,1.493574,-0.1807425,-0.4368739,1.434083,0.2684197,-0.3007789,1.294133,0.07205803,-0.04243165,1.516535,0.07123511,-0.3602756,1.494601,-0.107704,0.1249912,1.500383,-0.004634922,-0.3517024,1.465914,-0.1570945,-0.1326126,1.505042,0.3105768,-0.1075272,1.506567,NA,NA,NotTracked,Unknown,
0.9726563,-0.1855469,0.1269531,0.6132813,0.9418945,0.53125,-1,-2,1,1,-3,1,-2,-1,-1,-11,7,-6,-1,-1,-1,-2,-1.3125,-1.3125,-1.3125,80.3125,80.3125,80.3125,3.422227,2.84407,5.484449,6.567778,3.819011,0.3902057,-0.1379405,-0.4287911,1.439306,0.1726494,-0.2310333,1.309956,0.06724355,0.4117604,1.493557,-0.1750478,-0.446638,1.425897,0.1555124,-0.1976288,1.284388,0.07079062,-0.04210609,1.516214,0.06847607,-0.3596517,1.493929,-0.1077266,0.1250415,1.500643,-0.007024582,-0.3508639,1.465543,-0.1570243,-0.1323917,1.505493,0.3173215,-0.07201762,1.504924,NA,NA,NotTracked,Closed,
0.9726563,-0.1855469,0.1269531,0.09033203,0.6259766,0.5917969,-1,-2,1,1,-3,1,-2,-1,36,10,20,1,-3,4,9,18,-1.3125,-1.3125,-1.3125,-26.6875,-26.6875,-26.6875,3.422227,2.84407,5.484449,6.36178,4.527241,0.7691618,-0.1380256,-0.4289251,1.440447,0.1190862,-0.1263664,1.297184,0.06673578,0.4119599,1.493531,-0.1789433,-0.4266259,1.438909,0.07282671,-0.185243,1.323556,0.07054633,-0.04175519,1.516214,0.06850325,-0.3591756,1.494015,-0.107816,0.1250353,1.500979,-0.006911789,-0.3506122,1.465644,-0.1572066,-0.1313422,1.50667,0.3203577,-0.05841124,1.481904,NA,NA,NotTracked,Closed,
0.9726563,-0.1855469,0.1269531,-0.28125,0.5981445,0.5888672,-1,-2,1,1,-3,1,-2,-1,-20,-21,-12,-14,20,2,-1,-2,-1.3125,-1.3125,-1.3125,-10.125,-10.125,-10.125,3.422227,2.84407,5.484449,6.29554,4.928072,0.9683148,-0.1375982,-0.4292966,1.44144,0.07036529,-0.03096855,1.308894,0.06589466,0.4131055,1.493332,-0.1772367,-0.4234294,1.439322,0.04724504,-0.08512542,1.352718,0.06990296,-0.04102854,1.516072,0.06814566,-0.3580182,1.494651,-0.1078216,0.1248605,1.501223,-0.006938073,-0.3496126,1.466549,-0.1572576,-0.1311865,1.507236,0.319109,-0.05427289,1.455756,NA,NA,NotTracked,Unknown,
0.9726563,-0.1855469,0.1269531,-0.3242188,0.6357422,0.6313477,-1,-2,1,1,-3,1,-2,-1,-23,-33,0,16,17,0,3,11,-1.3125,-1.3125,-1.3125,-9,-9,-9,3.422227,2.84407,5.484449,6.296415,5.207801,1.204766,-0.137471,-0.4258695,1.442561,0.04524771,0.03629573,1.322795,0.06513533,0.4130497,1.493882,-0.175862,-0.4307482,1.436834,0.02155896,-0.01386143,1.370522,0.06935778,-0.0405884,1.516477,0.06748861,-0.3570198,1.495017,-0.1097848,0.1251126,1.501207,-0.007451133,-0.3486735,1.467949,-0.1572208,-0.1314218,1.508201,0.2938854,-0.04596597,1.410855,NA,NA,NotTracked,Open,
0.9726563,-0.1855469,0.1269531,-0.3125,0.4882813,0.7358398,-1,-2,1,1,-3,1,-2,-1,31,16,8,4,-24,-5,3,10,-1.3125,-1.3125,-1.3125,15.1875,15.1875,15.1875,3.422227,2.84407,5.484449,6.32687,5.322168,1.359198,-0.1370918,-0.425876,1.442535,0.06163839,0.05017252,1.322216,0.06439839,0.412971,1.494609,-0.1747336,-0.4252546,1.446095,0.04381736,0.003189669,1.364949,0.06898187,-0.04037423,1.51684,0.06735226,-0.3566733,1.495175,-0.1110176,0.1254177,1.500002,-0.007527745,-0.348427,1.468368,-0.1569286,-0.1312356,1.508954,0.2808033,-0.03725805,1.386109,NA,NA,NotTracked,Unknown,
0.9726563,-0.1855469,0.1269531,-0.3125,0.4882813,0.7358398,-1,-2,1,1,-3,1,-2,-1,-61,15,11,-12,-32,-6,2,-17,-1.3125,-1.3125,-1.3125,15.1875,15.1875,15.1875,3.422227,2.84407,5.484449,6.32687,5.322168,1.359198,-0.1367578,-0.4229282,1.443741,0.0421141,0.05434262,1.321837,0.06362533,0.4129367,1.495479,-0.1716049,-0.4330853,1.435137,0.04211963,0.009479285,1.372778,0.06857599,-0.04008674,1.517438,0.06749224,-0.3562007,1.495654,-0.112206,0.1257061,1.496935,-0.00740975,-0.3482124,1.468665,-0.1560755,-0.1316186,1.509974,0.2655103,-0.0273452,1.366627,NA,NA,NotTracked,Unknown,
0.9726563,-0.1855469,0.1269531,-0.09179688,0.6000977,0.6679688,-1,-2,1,1,-3,1,-2,-1,49,14,0,8,60,4,-5,-9,-1.3125,-1.3125,-1.3125,20.375,20.375,20.375,3.422227,2.84407,5.484449,6.549362,5.362026,1.907657,-0.1353907,-0.4214505,1.443694,0.01080659,0.05685196,1.317922,0.06258171,0.4129573,1.495745,-0.1720087,-0.4145178,1.439862,0.01902163,0.008738372,1.371091,0.06803548,-0.03981504,1.517845,0.06762704,-0.3558794,1.496008,-0.1141983,0.1255796,1.494414,-0.007228328,-0.348063,1.469205,-0.1559132,-0.1321205,1.510559,0.2515933,-0.01547894,1.353022,NA,NA,NotTracked,Unknown,
0.9726563,-0.1855469,0.1269531,-0.125,0.7407227,0.5883789,-1,-2,1,1,-3,1,-2,-1,4,1,-3,-10,-28,-3,1,34,-1.3125,-1.3125,-1.3125,32.375,32.375,32.375,3.422227,2.84407,5.484449,6.599451,5.315428,1.995682,-0.1355516,-0.4196556,1.446976,-0.003675585,0.04803554,1.314396,0.06076165,0.4126955,1.495753,-0.171148,-0.4334398,1.448133,0.01380357,-0.003292992,1.365074,0.06742875,-0.03952646,1.518255,0.06754952,-0.3552338,1.496612,-0.1172074,0.1262788,1.493303,-0.007185585,-0.3476395,1.470385,-0.1554374,-0.1318623,1.511872,0.2316348,-0.01065146,1.341603,NA,NA,NotTracked,Unknown,
0.9726563,-0.1855469,0.1269531,0.01025391,0.8256836,0.5810547,-1,-2,1,1,-3,1,-2,-1,7,-4,-3,0,4,11,4,7,-1.3125,-1.3125,-1.3125,-12.25,-12.25,-12.25,3.422227,2.84407,5.484449,6.604456,5.25098,2.047687,-0.1357107,-0.4206997,1.448845,-0.05228085,0.05752436,1.326665,0.05846645,0.412346,1.495781,-0.1718243,-0.434787,1.454417,-0.004695348,0.08211977,1.38145,0.06612636,-0.03929669,1.518659,0.06698932,-0.3545645,1.497335,-0.1195682,0.1277351,1.49311,-0.007711218,-0.3471566,1.471905,-0.1552537,-0.1306618,1.512669,0.2129882,-0.01279787,1.336842,NA,NA,NotTracked,Unknown,
0.9726563,-0.1855469,0.1269531,0.07177734,0.9453125,0.5371094,-1,-2,1,1,-3,1,-2,-1,16,-8,-1,15,-21,7,5,-9,-1.3125,-1.3125,-1.3125,-7.1875,-7.1875,-7.1875,3.422227,2.84407,5.484449,6.601337,5.205724,2.07435,-0.1357916,-0.4206848,1.45148,-0.07226644,0.06014182,1.331683,0.05630205,0.4119021,1.495643,-0.1717864,-0.4272237,1.457154,-0.01752057,0.08221911,1.386889,0.06498934,-0.03901874,1.519012,0.06630101,-0.3537164,1.49801,-0.1209871,0.1282446,1.493198,-0.00834768,-0.346504,1.47352,-0.1552165,-0.1301683,1.514086,0.2087294,-0.01204178,1.335739,NA,NA,NotTracked,Unknown,
0.9726563,-0.1855469,0.1269531,-0.03271484,0.9072266,0.5361328,-1,-2,1,1,-3,1,-2,-1,-27,8,-2,19,60,12,4,3,-1.3125,-1.3125,-1.3125,-1.4375,-1.4375,-1.4375,3.422227,2.84407,5.484449,6.601789,5.167655,2.096701,-0.136056,-0.4208122,1.450225,-0.07414865,0.05863747,1.332668,0.05370834,0.4117597,1.495344,-0.1709875,-0.4338003,1.443317,-0.02297015,0.08320783,1.386539,0.06386857,-0.0386936,1.51903,0.06571602,-0.3530685,1.498266,-0.1221228,0.1288811,1.493302,-0.008788101,-0.3461054,1.474226,-0.1553831,-0.1295575,1.514963,0.2020929,-0.01435682,1.335257,NA,NA,NotTracked,Lasso,
0.9726563,-0.1855469,0.1269531,-0.1186523,0.8496094,0.5283203,-1,-2,1,1,-3,1,-2,-1,70,-1,2,-8,3,-3,-5,-5,-1.3125,-1.3125,-1.3125,1.5,1.5,1.5,3.422227,2.84407,5.484449,6.607368,5.160332,2.102489,-0.1374193,-0.4248647,1.448994,-0.06446127,0.05407301,1.32519,0.05192016,0.4115889,1.494956,-0.1742511,-0.4219668,1.449135,-0.01739892,0.08172974,1.381972,0.06265451,-0.03851447,1.519097,0.0649673,-0.3527494,1.498468,-0.1230261,0.1291483,1.493139,-0.00954117,-0.3459646,1.474882,-0.1557018,-0.1292945,1.515283,0.1994642,-0.01454677,1.334915,NA,NA,NotTracked,Unknown,
0.9726563,-0.1855469,0.1269531,-0.1674805,0.8300781,0.5307617,-1,-2,1,1,-3,1,-2,-1,-33,-11,2,8,-94,-14,-4,-15,-1.3125,-1.3125,-1.3125,0.75,0.75,0.75,3.422227,2.84407,5.484449,6.608459,5.162477,2.098537,-0.1383904,-0.4246884,1.450091,-0.05692701,0.05003054,1.318365,0.05034615,0.4114247,1.494626,-0.1803806,-0.3969179,1.465,-0.009078693,0.0739764,1.375375,0.0614403,-0.03836707,1.519151,0.06416635,-0.3523957,1.49874,-0.1237912,0.1295117,1.493342,-0.01033955,-0.3457883,1.475717,-0.1560228,-0.1290001,1.515435,0.1984579,-0.01461481,1.334771,NA,NA,NotTracked,Unknown,
0.9726563,-0.1855469,0.1269531,-0.1967773,0.8608398,0.5478516,-1,-2,1,1,-3,1,-2,-1,-35,-6,-9,1,50,7,-5,-4,-1.3125,-1.3125,-1.3125,-4.25,-4.25,-4.25,3.422227,2.84407,5.484449,6.600195,5.165257,2.08491,-0.1389288,-0.4250526,1.449839,-0.05782002,0.04632857,1.319125,0.04905049,0.411043,1.494358,-0.1762452,-0.4335597,1.452,-0.02358094,-0.01120075,1.369231,0.06037454,-0.03842448,1.519211,0.06302444,-0.3521767,1.499035,-0.1245539,0.1297571,1.493774,-0.01142624,-0.3456475,1.47651,-0.1566945,-0.1288678,1.515225,0.1979846,-0.01359537,1.333388,NA,NA,NotTracked,Unknown,
0.9726563,-0.1855469,0.1269531,-0.1147461,0.824707,0.5786133,-1,-2,1,1,-3,1,-2,-1,9,-18,-2,1,-3,-7,-10,-2,-1.3125,-1.3125,-1.3125,3.375,3.375,3.375,3.422227,2.84407,5.484449,6.592586,5.163529,2.078364,-0.1387138,-0.4244602,1.449767,-0.07441244,0.05663688,1.326321,0.04816402,0.4107643,1.49403,-0.17983,-0.4003572,1.46255,-0.02578042,0.08149841,1.382433,0.05971149,-0.0384984,1.519208,0.06253044,-0.3521538,1.499178,-0.1248823,0.1299833,1.49379,-0.01184471,-0.3456763,1.476801,-0.1575345,-0.1286143,1.514996,0.1965255,-0.01373609,1.332883,NA,NA,NotTracked,Lasso,
0.9726563,-0.1855469,0.1269531,-0.1499023,0.8696289,0.5541992,-1,-2,1,1,-3,1,-2,-1,-19,8,-1,-1,-2,-4,3,-4,-1.3125,-1.3125,-1.3125,-6.375,-6.375,-6.375,3.422227,2.84407,5.484449,6.590353,5.167651,2.073631,-0.1390155,-0.4247928,1.449354,-0.05492588,0.04550148,1.318562,0.04719174,0.4105371,1.493324,-0.1745748,-0.4386281,1.444868,-0.02700585,-0.005796961,1.368965,0.05921149,-0.03845021,1.519053,0.06229667,-0.3520426,1.49919,-0.1253227,0.1301776,1.493757,-0.01202008,-0.3456005,1.476943,-0.1577666,-0.1284617,1.514883,0.1968007,-0.01374004,1.333048,NA,NA,NotTracked,Unknown,
0.9726563,-0.1855469,0.1269531,-0.1411133,0.8540039,0.5429688,-1,-2,1,1,-3,1,-2,-1,-23,-25,0,10,4,0,-11,-12,-1.3125,-1.3125,-1.3125,4.5,4.5,4.5,3.422227,2.84407,5.484449,6.589081,5.170697,2.071306,-0.1389493,-0.4239071,1.448948,-0.05609796,0.04582758,1.319184,0.0465638,0.4106613,1.492662,-0.1787931,-0.4019779,1.462527,-0.004298814,0.06980955,1.373857,0.05854093,-0.0382452,1.51883,0.06187389,-0.3517909,1.499234,-0.125566,0.130385,1.493716,-0.01235656,-0.3454064,1.47706,-0.1579013,-0.1282356,1.515069,0.196019,-0.01465106,1.332969,NA,NA,NotTracked,Unknown,
0.9726563,-0.1855469,0.1269531,-0.07177734,0.8950195,0.5283203,-1,-2,1,1,-3,1,-2,-1,-35,-22,1,-10,-11,-3,-23,7,-1.3125,-1.3125,-1.3125,4.6875,4.6875,4.6875,3.422227,2.84407,5.484449,6.599728,5.16537,2.06894,-0.1394023,-0.4237712,1.448375,-0.05526983,0.04853752,1.318568,0.04611225,0.4103546,1.492234,-0.1738666,-0.4379306,1.443955,-0.004745438,0.07151766,1.372322,0.05825121,-0.03832303,1.518675,0.06182832,-0.351781,1.4992,-0.1257351,0.1304072,1.493592,-0.01237942,-0.3454191,1.476985,-0.1582811,-0.1282243,1.514699,0.1964937,-0.01433658,1.3327,NA,NA,NotTracked,Unknown,
0.9726563,-0.1855469,0.1269531,0.1855469,0.9047852,0.4570313,-1,-2,1,1,-3,1,-2,-1,-5,1,4,2,-6,9,8,23,-1.3125,-1.3125,-1.3125,25.8125,25.8125,25.8125,3.422227,2.84407,5.484449,6.639688,5.143664,2.034911,-0.1388948,-0.4234965,1.448375,-0.04267073,0.04898131,1.315624,0.04583185,0.4101832,1.492053,-0.1754041,-0.430252,1.451377,-0.03963872,0.09942237,1.334,0.05811065,-0.03837236,1.51862,0.06178,-0.3517947,1.499185,-0.1260003,0.1303771,1.493682,-0.01237711,-0.3454655,1.476954,-0.1584557,-0.1282866,1.514651,0.1981756,-0.01438009,1.332124,NA,NA,NotTracked,Unknown,
0.9726563,-0.1855469,0.1269531,0.3925781,0.8964844,0.512207,-1,-2,1,1,-3,1,-2,-1,8,5,7,8,-30,-3,-9,-14,-1.3125,-1.3125,-1.3125,1.375,1.375,1.375,3.422227,2.84407,5.484449,6.657289,5.107382,1.953529,-0.1388332,-0.4218766,1.446313,-0.02601375,0.05993317,1.311286,0.04550098,0.4100454,1.491818,-0.1766621,-0.4207883,1.455428,-0.006715134,0.0006245171,1.36836,0.05784163,-0.03849525,1.518372,0.06168466,-0.3518867,1.498954,-0.1263945,0.130375,1.494109,-0.01247754,-0.3455856,1.476475,-0.1587537,-0.1283886,1.514491,0.2220405,-0.01075341,1.331327,NA,NA,NotTracked,Unknown,
0.9726563,-0.1855469,0.1269531,0.08105469,0.793457,0.6455078,-1,-2,1,1,-3,1,-2,-1,-18,-14,5,11,-7,2,-1,-1,-1.3125,-1.3125,-1.3125,3,3,3,3.422227,2.84407,5.484449,6.630463,5.106106,1.730585,-0.1391058,-0.421419,1.445089,0.01862835,0.06733196,1.297516,0.04530863,0.4100425,1.491675,-0.175683,-0.4266408,1.447296,0.05322095,0.1091578,1.3278,0.057527,-0.03878024,1.51801,0.06159609,-0.3526537,1.49815,-0.1216564,0.1252847,1.490715,-0.01265546,-0.3463683,1.47566,-0.1600758,-0.1319443,1.515005,0.2580792,-0.01318667,1.337366,NA,NA,NotTracked,Unknown,
0.9726563,-0.1855469,0.1269531,-0.1469727,0.7695313,0.7753906,-1,-2,1,1,-3,1,-2,-1,19,5,-2,-12,-22,1,4,10,-1.3125,-1.3125,-1.3125,5.9375,5.9375,5.9375,3.422227,2.84407,5.484449,6.616117,5.101388,1.472005,-0.1409497,-0.4225194,1.444652,0.04997677,0.06646338,1.311413,0.0451154,0.4100068,1.491542,-0.1772515,-0.4278126,1.45081,0.04897295,0.02753562,1.36962,0.0572114,-0.03905134,1.517685,0.06127698,-0.353386,1.497432,-0.123209,0.1253764,1.49464,-0.01309904,-0.3471186,1.47478,-0.1607355,-0.1325608,1.515271,0.3073151,-0.0211354,1.35683,NA,NA,NotTracked,Unknown,
0.9726563,-0.1855469,0.1269531,-0.2802734,0.8066406,0.8554688,-1,-2,1,1,-3,1,-2,-1,-29,-34,-6,0,-45,0,8,-13,-1.3125,-1.3125,-1.3125,27.625,27.625,27.625,3.422227,2.84407,5.484449,6.626349,5.092317,1.154559,-0.1421604,-0.4234753,1.443331,0.105396,0.06797211,1.32358,0.04492122,0.4097987,1.491174,-0.1801199,-0.4512499,1.444667,0.1209637,0.1212515,1.369572,0.05683736,-0.03966497,1.516957,0.0606401,-0.3546229,1.496139,-0.1245547,0.1258361,1.497704,-0.01397324,-0.3484744,1.473394,-0.1616203,-0.1326509,1.514989,0.329415,-0.01759034,1.371265,NA,NA,NotTracked,Unknown,
0.9726563,-0.1855469,0.1269531,-0.4980469,0.734375,0.765625,-1,-2,1,1,-3,1,-2,-1,23,26,18,38,46,-7,-5,-1,-1.3125,-1.3125,-1.3125,49.8125,49.8125,49.8125,3.422227,2.84407,5.484449,6.666368,5.07817,0.8586215,-0.1434559,-0.4235439,1.4437,0.1856838,0.07131708,1.30389,0.04545497,0.4095165,1.49037,-0.1812629,-0.434195,1.445087,0.1726085,0.0296909,1.376231,0.05684652,-0.04010991,1.516286,0.06039466,-0.3555395,1.495165,-0.1239398,0.1250677,1.498704,-0.01451519,-0.3495438,1.472127,-0.1622801,-0.1328213,1.51458,0.3553811,-0.01216634,1.390455,NA,NA,NotTracked,Unknown,
0.9726563,-0.1855469,0.1269531,-0.4980469,0.734375,0.765625,-1,-2,1,1,-3,1,-2,-1,22,-25,-22,-6,8,7,7,-13,-1.3125,-1.3125,-1.3125,49.8125,49.8125,49.8125,3.422227,2.84407,5.484449,6.666368,5.07817,0.8586215,-0.1445998,-0.4239727,1.444115,0.1843092,0.07701311,1.31453,0.0474473,0.4092308,1.488965,-0.1812973,-0.4393555,1.441281,0.1500554,0.04331561,1.364336,0.05746507,-0.04050278,1.515712,0.06036904,-0.3561123,1.494779,-0.1224501,0.1243702,1.498536,-0.01472858,-0.35017,1.471038,-0.1626209,-0.132669,1.513828,0.3686095,-0.009616419,1.4009,NA,NA,NotTracked,Unknown,
0.9726563,-0.1855469,0.1269531,-0.3989258,0.7617188,0.4794922,-1,-2,1,1,-3,1,-2,-1,-36,-20,-9,-31,-87,-14,-2,-21,-1.3125,-1.3125,-1.3125,19.25,19.25,19.25,3.422227,2.84407,5.484449,6.773087,5.098349,0.5542019,-0.1431186,-0.4214154,1.441709,0.1919492,0.07784287,1.31427,0.05070741,0.408566,1.486616,-0.1833634,-0.4126949,1.449083,0.1584391,0.04381727,1.370552,0.05847538,-0.04084936,1.514874,0.06066128,-0.3565128,1.494377,-0.1204888,0.1240192,1.497672,-0.01449669,-0.3505462,1.469923,-0.1624067,-0.1315528,1.510191,0.3734945,-0.005213547,1.404597,NA,NA,NotTracked,Unknown,
0.9726563,-0.1855469,0.1269531,-0.2871094,0.8198242,0.5161133,-1,-2,1,1,-3,1,-2,-1,-7,5,-2,-3,-16,-9,0,2,-1.3125,-1.3125,-1.3125,6.625,6.625,6.625,3.422227,2.84407,5.484449,6.775604,5.112351,0.5332712,-0.1422067,-0.420159,1.438772,0.2457284,0.06565417,1.313991,0.05392662,0.4080634,1.485501,-0.1793422,-0.4294814,1.447038,0.1838975,0.02986046,1.3845,0.05989098,-0.04112226,1.514416,0.06168485,-0.3569238,1.493941,-0.1179956,0.1239746,1.496863,-0.01359945,-0.3508368,1.468906,-0.1613454,-0.1301111,1.50731,0.3803115,-0.005381322,1.410735,NA,NA,NotTracked,Unknown,
0.9726563,-0.1855469,0.1269531,-0.1660156,0.9189453,0.4736328,-1,-2,1,1,-3,1,-2,-1,8,12,2,-22,-81,-9,4,7,-1.3125,-1.3125,-1.3125,-2,-2,-2,3.422227,2.84407,5.484449,6.779807,5.144035,0.518881,-0.1381859,-0.4212329,1.431708,0.2285047,0.06959714,1.316174,0.05708499,0.4075621,1.485167,-0.1714669,-0.4337293,1.421121,0.1875162,0.03197004,1.386955,0.06194027,-0.04162882,1.514091,0.06328617,-0.3575867,1.493447,-0.1156911,0.1235703,1.495555,-0.01226536,-0.3512778,1.467901,-0.1601583,-0.1298027,1.504639,0.3821516,-0.005499238,1.412362,NA,NA,NotTracked,Unknown,
0.9726563,-0.1855469,0.1269531,-0.1523438,0.8837891,0.4863281,-1,-2,1,1,-3,1,-2,-1,2,-10,-1,-28,-52,-4,10,3,-1.3125,-1.3125,-1.3125,3.75,3.75,3.75,3.422227,2.84407,5.484449,6.775621,5.156108,0.5183834,-0.1358322,-0.4204212,1.428926,0.2281105,0.07041192,1.314853,0.05921577,0.4073996,1.485195,-0.1686569,-0.441393,1.416242,0.1787324,0.03498454,1.37888,0.06351521,-0.04206707,1.513897,0.06517872,-0.3582951,1.493065,-0.1137929,0.1234939,1.495,-0.01058639,-0.3518285,1.467172,-0.159072,-0.1293186,1.5025,0.3832191,-0.00574627,1.413338,NA,NA,NotTracked,Unknown,
0.9726563,-0.1855469,0.1269531,-0.1459961,0.8613281,0.496582,-1,-2,1,1,-3,1,-2,-1,0,-1,4,4,-9,0,6,-10,-1.3125,-1.3125,-1.3125,-3.125,-3.125,-3.125,3.422227,2.84407,5.484449,6.762993,5.161497,0.5226246,-0.1352258,-0.4216666,1.428835,0.234815,0.07132358,1.313312,0.06076464,0.4075449,1.485141,-0.1735351,-0.4254352,1.440333,0.1873769,0.03481537,1.383895,0.06501167,-0.04210663,1.513646,0.06680228,-0.3584765,1.492709,-0.1125781,0.1235525,1.494687,-0.009046739,-0.351963,1.466514,-0.1578589,-0.1287368,1.500624,0.3841908,-0.00557627,1.414318,NA,NA,NotTracked,Unknown,
0.9726563,-0.1855469,0.1269531,-0.1303711,0.862793,0.4912109,-1,-2,1,1,-3,1,-2,-1,-13,-7,-6,14,35,3,11,4,-1.3125,-1.3125,-1.3125,-7.375,-7.375,-7.375,3.422227,2.84407,5.484449,6.748737,5.175758,0.5283556,-0.1333882,-0.4252298,1.429198,0.2324434,0.07276,1.315248,0.06173946,0.4076031,1.485077,-0.1714038,-0.4340097,1.427179,0.1914123,0.03422996,1.389684,0.06610007,-0.04220361,1.513344,0.06799112,-0.3586522,1.492288,-0.1116295,0.1235009,1.494354,-0.007992307,-0.352053,1.465922,-0.1572636,-0.128662,1.500049,0.3848943,-0.005840726,1.41511,NA,NA,NotTracked,Unknown,
0.9726563,-0.1855469,0.1269531,-0.1196289,0.8442383,0.4814453,-1,-2,1,1,-3,1,-2,-1,12,9,5,9,4,2,-4,6,-1.3125,-1.3125,-1.3125,-2.625,-2.625,-2.625,3.422227,2.84407,5.484449,6.738228,5.186861,0.5234523,-0.1323138,-0.4264053,1.431161,0.227132,0.07300832,1.31706,0.06287825,0.4076346,1.485154,-0.1685511,-0.4371969,1.426904,0.1899249,0.03443335,1.386174,0.06719474,-0.04232271,1.513227,0.0691603,-0.3588333,1.492129,-0.1103466,0.1236582,1.494068,-0.006976686,-0.3521627,1.465706,-0.1564923,-0.1285753,1.499919,0.3861196,-0.00688759,1.417687,NA,NA,NotTracked,Unknown,
0.9726563,-0.1855469,0.1269531,-0.1000977,0.7280273,0.5268555,-1,-2,1,1,-3,1,-2,-1,5,12,-2,-8,3,0,1,-8,-1.3125,-1.3125,-1.3125,-25,-25,-25,3.422227,2.84407,5.484449,6.689949,5.176092,0.5022119,-0.1314419,-0.4236785,1.432585,0.190039,0.06918555,1.331576,0.06379944,0.4077119,1.485387,-0.1669002,-0.443407,1.42345,0.173206,0.112682,1.386167,0.06779491,-0.04249153,1.513157,0.07010637,-0.3591324,1.491922,-0.1095942,0.1232036,1.494109,-0.006073788,-0.3524841,1.465444,-0.1559822,-0.1287706,1.499898,0.384823,-0.007981029,1.418134,NA,NA,NotTracked,Unknown,
0.9726563,-0.1855469,0.1269531,-0.06884766,0.6357422,0.5927734,-1,-2,1,1,-3,1,-2,-1,-2,1,1,6,6,-4,-3,1,-1.3125,-1.3125,-1.3125,-17.75,-17.75,-17.75,3.422227,2.84407,5.484449,6.62954,5.137693,0.444987,-0.1314013,-0.4234323,1.433122,0.1817638,0.05198424,1.332705,0.0646661,0.407786,1.485729,-0.1694325,-0.4337195,1.435222,0.1632017,0.09001186,1.388902,0.06814472,-0.04262564,1.513173,0.07056388,-0.3592978,1.491879,-0.1092054,0.1231197,1.494276,-0.005621074,-0.3526097,1.465433,-0.1555457,-0.1287182,1.499945,0.3752734,-0.01216982,1.415152,NA,NA,NotTracked,Unknown,
0.9726563,-0.1855469,0.1269531,-0.04101563,0.6547852,0.5087891,-1,-2,1,1,-3,1,-2,-1,1,0,-1,6,6,-1,-1,2,-1.3125,-1.3125,-1.3125,-35.125,-35.125,-35.125,3.422227,2.84407,5.484449,6.563647,4.987702,0.3058688,-0.1312383,-0.4232152,1.43239,0.183622,-0.002221942,1.314587,0.06530043,0.40813,1.486142,-0.1679817,-0.4170862,1.428633,0.1534121,0.03104121,1.370885,0.06860512,-0.04251057,1.513191,0.07089153,-0.3591444,1.491912,-0.108721,0.1231236,1.494595,-0.005153909,-0.3523839,1.465564,-0.1547444,-0.128893,1.500083,0.3660801,-0.02356337,1.421172,NA,NA,NotTracked,Unknown,
