ALX,ALY,ALZ,ARX,ARY,ARZ,EMG0L,EMG1L,EMG2L,EMG3L,EMG4L,EMG5L,EMG6L,EMG7L,EMG0R,EMG1R,EMG2R,EMG3R,EMG4R,EMG5R,EMG6R,EMG7R,GLX,GLY,GLZ,GRX,GRY,GRZ,ORL,OPL,OYL,ORR,OPR,OYR,LHNX,LHNY,LHNZ,RHNX,RHNY,RHNZ,HX,HY,HZ,LTX,LTY,LTZ,RTX,RTY,RTZ,SpineMidX,SpineMidY,SpineMidZ,SpineBaseX,SpineBaseY,SpineBaseZ,ShoulderLeftX,ShoulderLeftY,ShoulderLeftZ,ShoulderRightX,ShoulderRightY,ShoulderRightZ,ElbowLeftX,ElbowLeftY,ElbowLeftZ,ElbowRightX,ElbowRightY,ElbowRightZ,Myo_Pose_left,Myo_Pose_Right,Kinect_pose_left,Kinect_pose_right
0.9580078,-0.3442383,0.2021484,0.934082,0.2548828,0.1098633,0,0,0,-7,-5,-2,0,0,0,-1,0,-1,-2,-1,-1,-1,-22.25,-22.25,-22.25,-3.375,-3.375,-3.375,3.364276,3.169209,7.218278,6.863908,2.948037,3.119303,-0.2355874,-0.4205742,1.580103,0.1625474,-0.4146377,1.687195,-0.05481562,0.4215049,1.751277,-0.2041823,-0.4084862,1.614336,0.1985838,-0.4141203,1.682381,-0.05370612,-0.03741708,1.761387,-0.04781976,-0.3527159,1.737391,-0.2240904,0.1248832,1.716792,-0.1240278,-0.3481661,1.703168,-0.2766038,-0.1145781,1.705657,0.1647496,-0.127699,1.754779,NA,NA,NotTracked,NotTracked,
0.996582,-0.4370117,0.2983398,0.9492188,0.2558594,0.1103516,-2,1,-3,-1,2,-2,-2,-1,0,0,-2,-1,0,-1,-2,1,-34.125,-34.125,-34.125,-2.625,-2.625,-2.625,3.409027,3.319319,7.107039,6.87179,2.945808,3.106289,-0.2248163,-0.4091386,1.553507,0.1639236,-0.4151445,1.68867,-0.05459592,0.4217586,1.751842,-0.1915013,-0.3894283,1.52739,0.2056108,-0.4422979,1.69425,-0.05346072,-0.03730954,1.761389,-0.04695649,-0.3525701,1.737013,-0.2239475,0.1254771,1.71571,-0.1230043,-0.3481046,1.702143,-0.2744693,-0.1092033,1.698984,0.1645071,-0.1275518,1.755534,NA,NA,Unknown,NotTracked,
0.8935547,-0.5126953,0.378418,0.9418945,0.2456055,0.105957,-1,1,0,4,5,1,-2,-1,0,0,0,0,-2,-1,-1,-3,-75.25,-75.25,-75.25,-5.125,-5.125,-5.125,3.416651,3.511149,6.977987,6.871751,2.943433,3.09773,-0.2046414,-0.3856318,1.523053,0.1634138,-0.4150144,1.689718,-0.05445115,0.4221079,1.75255,-0.1725067,-0.3639851,1.498827,0.2003214,-0.4258966,1.683331,-0.05278046,-0.03716073,1.761264,-0.04446442,-0.3523918,1.736071,-0.2236947,0.125939,1.715182,-0.120594,-0.3484336,1.700441,-0.2741908,-0.1007558,1.692105,0.1642986,-0.1276811,1.756493,NA,NA,Unknown,NotTracked,
0.7246094,-0.7446289,0.4594727,0.934082,0.2587891,0.1191406,-3,-3,-5,-11,-16,-3,-3,-1,-2,-2,-1,0,-2,0,1,-1,-75.4375,-75.4375,-75.4375,5.375,5.375,5.375,3.35135,3.88097,6.820575,6.874049,2.942714,3.101537,-0.1752032,-0.3315102,1.489753,0.1641448,-0.415676,1.690362,-0.05458346,0.4223514,1.753156,-0.1323512,-0.3498801,1.538333,0.2020066,-0.4138152,1.697125,-0.05022292,-0.03674573,1.760603,-0.03713101,-0.3516673,1.733005,-0.2234178,0.1265165,1.714916,-0.11403,-0.3493538,1.696557,-0.2771234,-0.09123667,1.684166,0.1642663,-0.1276156,1.757331,NA,NA,Unknown,NotTracked,
0.5786133,-0.8339844,0.4516602,0.9301758,0.2670898,0.1269531,1,4,6,15,77,15,3,4,-2,1,-1,-1,-1,0,-2,-1,-24.4375,-24.4375,-24.4375,8.0625,8.0625,8.0625,3.336322,4.215988,6.722752,6.887856,2.941616,3.09952,-0.1395382,-0.265124,1.449382,0.164145,-0.4148069,1.690207,-0.05481205,0.4224647,1.753658,-0.08337791,-0.2539296,1.403,0.1990085,-0.4406659,1.677333,-0.04906295,-0.03645596,1.760766,-0.03465264,-0.3511219,1.733162,-0.2230034,0.1274963,1.714869,-0.1114133,-0.3493782,1.696296,-0.2795613,-0.08143486,1.673292,0.1642696,-0.127487,1.75757,NA,NA,Unknown,NotTracked,
0.4086914,-0.8115234,0.590332,0.9487305,0.2563477,0.105957,1,-19,5,1,7,12,-5,6,0,0,-1,-2,0,0,-1,-1,59.375,59.375,59.375,4.0625,4.0625,4.0625,3.414311,4.552493,6.630382,6.908974,2.941594,3.08742,-0.07889982,-0.1918425,1.41922,0.1648482,-0.4153018,1.690149,-0.05522321,0.4226314,1.754035,-0.0603156,-0.1561425,1.449,0.2042806,-0.4189442,1.699,-0.0497143,-0.03610948,1.761767,-0.03853558,-0.350409,1.736597,-0.2209563,0.1293361,1.715266,-0.113816,-0.3476949,1.699561,-0.2825069,-0.07645719,1.662711,0.1642473,-0.127016,1.757776,NA,NA,Unknown,NotTracked,
0.1606445,-0.5454102,0.6054688,0.9589844,0.2509766,0.09765625,-15,-7,-12,-1,-1,-36,-42,12,0,-1,-1,1,0,0,-2,-2,29.625,29.625,29.625,0.3125,0.3125,0.3125,3.518721,4.878528,6.516113,6.896324,2.952387,3.104925,-0.05292933,-0.0824065,1.433168,0.1647335,-0.4146728,1.686148,-0.05553426,0.4226523,1.754255,-0.06901133,-0.01357007,1.3971,0.1987348,-0.420631,1.677767,-0.05023302,-0.03556594,1.76222,-0.04048457,-0.3491639,1.737179,-0.2173502,0.1321075,1.713881,-0.1158345,-0.3455437,1.700108,-0.2840302,-0.07057697,1.654006,0.1643238,-0.1270252,1.757607,NA,NA,Unknown,NotTracked,
-0.1674805,-0.7680664,0.4624023,0.9365234,0.2612305,0.121582,-7,-1,-3,-5,-11,1,-6,16,-1,0,1,-1,-2,-1,-1,0,-14.6875,-14.6875,-14.6875,1.25,1.25,1.25,3.488214,5.2665,6.401947,6.84272,2.974714,3.161726,-0.03793475,-0.001292767,1.450238,0.1634581,-0.4131787,1.67966,-0.05608933,0.4226571,1.754439,-0.08652897,0.04892501,1.433621,0.1954702,-0.4208906,1.667654,-0.05093093,-0.03473165,1.762599,-0.04208363,-0.3466086,1.737908,-0.2224117,0.1325637,1.712915,-0.1166707,-0.3424509,1.700463,-0.2799982,-0.06748106,1.633012,0.1642154,-0.1266951,1.757345,NA,NA,Unknown,NotTracked,
-0.190918,-0.6640625,0.4672852,0.9116211,0.2651367,0.1455078,0,-3,-11,-1,8,-5,-2,4,-2,0,-1,0,-1,-1,-2,-1,-0.375,-0.375,-0.375,-1.625,-1.625,-1.625,3.470117,5.443573,6.361172,6.768415,3.008072,3.237151,-0.03498032,0.05173428,1.463679,0.1604427,-0.4109543,1.674207,-0.05673211,0.4225573,1.754691,-0.0900483,0.1062265,1.43275,0.1970515,-0.4171689,1.665857,-0.0512809,-0.03454575,1.762773,-0.04301693,-0.3460771,1.73798,-0.2200477,0.1347233,1.70989,-0.1175855,-0.3414091,1.700075,-0.2756103,-0.06117095,1.617015,0.1641278,-0.1265094,1.757169,NA,NA,Unknown,NotTracked,
-0.2094727,-0.7006836,0.5273438,0.9174805,0.2685547,0.1347656,-4,2,1,0,2,-2,14,31,-1,-2,0,0,0,-1,-1,-1,-8.6875,-8.6875,-8.6875,0.1875,0.1875,0.1875,3.459055,5.517692,6.351704,6.7387,3.021526,3.267844,-0.0233731,0.07852476,1.468868,0.1589288,-0.4146518,1.669077,-0.05716662,0.42236,1.754983,-0.08398065,0.1227887,1.45475,0.1965626,-0.4174705,1.663933,-0.05147439,-0.03459604,1.762785,-0.04325894,-0.3462908,1.737713,-0.2195174,0.1391612,1.707555,-0.1180654,-0.3413558,1.698616,-0.2714446,-0.0552067,1.608559,0.1638243,-0.1257981,1.756624,NA,NA,Unknown,NotTracked,
-0.25,-0.7275391,0.5595703,0.9384766,0.2612305,0.1098633,3,1,-5,-4,2,5,10,2,-1,-1,-3,-2,-2,-2,-1,0,-0.9375,-0.9375,-0.9375,-3.4375,-3.4375,-3.4375,3.46409,5.532754,6.360848,6.724602,3.025131,3.279159,-0.02287638,0.08671412,1.466551,0.1579661,-0.4144776,1.666595,-0.05743926,0.4226742,1.755122,-0.08093487,0.1243948,1.4557,0.1952059,-0.4402544,1.6606,-0.05210973,-0.03509601,1.762326,-0.04325193,-0.3477034,1.737361,-0.2244732,0.1396558,1.704594,-0.1182675,-0.343115,1.696424,-0.2656157,-0.05371181,1.597683,0.1632279,-0.1246219,1.75565,NA,NA,Unknown,NotTracked,
-0.3027344,-0.7773438,0.5615234,0.9521484,0.2641602,0.1162109,-11,-9,-8,-5,-6,-2,-3,-19,0,-1,-3,-1,-3,-1,0,0,-2.25,-2.25,-2.25,1.625,1.625,1.625,3.470298,5.524566,6.375143,6.704165,3.028338,3.300154,-0.02252401,0.08737384,1.465802,0.1547463,-0.4132172,1.665849,-0.05759464,0.4227131,1.755354,-0.07749371,0.1234137,1.4581,0.1940087,-0.4399675,1.66375,-0.05267524,-0.03554713,1.76181,-0.0434288,-0.3486742,1.736854,-0.2310528,0.1372038,1.706577,-0.1185885,-0.3441043,1.694944,-0.2640134,-0.05466118,1.593533,0.1629096,-0.1244043,1.755441,NA,NA,Unknown,NotTracked,
-0.3457031,-0.7724609,0.5517578,0.9882813,0.3100586,0.1367188,-15,-2,4,8,-5,4,-2,-16,0,-3,-6,-6,-2,-1,-1,-1,0.375,0.375,0.375,6,6,6,3.482645,5.510507,6.390301,6.674729,3.042827,3.341581,-0.0226224,0.08480699,1.464804,0.1540668,-0.410446,1.662525,-0.05762948,0.4222731,1.755818,-0.07919463,0.1152144,1.449832,0.1916177,-0.4141392,1.662062,-0.0526876,-0.03574851,1.761979,-0.04366069,-0.3492774,1.736572,-0.2334262,0.1359513,1.707125,-0.1189429,-0.3448008,1.693843,-0.2634173,-0.05493553,1.591321,0.1628547,-0.1244195,1.755576,NA,NA,Unknown,NotTracked,
-0.3364258,-0.7944336,0.5112305,1.265625,0.2099609,0.3168945,4,2,0,0,6,9,0,6,-1,12,-15,-3,2,0,2,3,-3.75,-3.75,-3.75,73,73,73,3.480317,5.497668,6.407352,6.48572,3.14152,3.611608,-0.02242205,0.08067065,1.463178,0.1476388,-0.3975354,1.650744,-0.05767355,0.4220521,1.756032,-0.06616209,0.1014643,1.431131,0.1855724,-0.4137515,1.656222,-0.05292995,-0.03581874,1.762053,-0.04475809,-0.3495974,1.735959,-0.2263347,0.1400066,1.705471,-0.120116,-0.3445512,1.693128,-0.2627952,-0.05145353,1.592341,0.1636605,-0.121474,1.758015,NA,NA,Unknown,NotTracked,
-0.378418,-0.7504883,0.5332031,1.198242,0.6762695,0.4536133,10,-1,-5,1,2,-3,-2,25,-4,-15,-65,4,-4,-2,-2,-4,3.4375,3.4375,3.4375,258.3125,258.3125,258.3125,3.485178,5.472225,6.422426,6.430995,3.382668,4.073614,-0.02254833,0.07424173,1.458623,0.1125726,-0.3403491,1.611287,-0.05768813,0.4219747,1.75628,-0.08030769,0.1072249,1.444174,0.1464282,-0.3622692,1.602417,-0.05389247,-0.03570413,1.761855,-0.04916017,-0.3492688,1.733666,-0.2318149,0.1370636,1.707374,-0.1247478,-0.3438359,1.690536,-0.2632456,-0.05325865,1.590971,0.1679318,-0.1036735,1.765902,NA,NA,Unknown,Unknown,
-0.3134766,-0.7739258,0.5693359,0.4277344,1.126465,0.5717773,-5,-3,4,1,4,-1,-7,-10,31,33,-18,-5,14,5,7,12,-2.9375,-2.9375,-2.9375,78.8125,78.8125,78.8125,3.494156,5.418323,6.453902,6.472625,4.043874,4.482708,-0.02232582,0.06048112,1.447965,0.03319241,-0.2477808,1.571463,-0.05771337,0.4218597,1.756856,-0.07129963,0.08757925,1.4194,0.05325728,-0.3059363,1.5957,-0.05472608,-0.03546006,1.762033,-0.05147455,-0.3484412,1.733227,-0.2297919,0.1381983,1.707102,-0.1265098,-0.3426373,1.690506,-0.2636094,-0.05218877,1.591582,0.1740128,-0.08818902,1.758705,NA,NA,Unknown,Unknown,
-0.1176758,-0.7915039,0.6645508,0.253418,0.862793,0.5087891,-9,-1,4,-6,-3,3,3,-4,34,18,9,3,4,-2,0,11,-1,-1,-1,2.375,2.375,2.375,3.507,5.31335,6.492351,6.435825,4.431891,4.608057,-0.02246459,0.04417311,1.43652,-0.0003283722,-0.1109426,1.541922,-0.05739367,0.4223711,1.757511,-0.0819005,0.1089851,1.4102,0.01310785,-0.1830358,1.578375,-0.05549025,-0.03461607,1.762035,-0.05142791,-0.3462985,1.733927,-0.2205496,0.1414806,1.706686,-0.1260006,-0.3402419,1.691748,-0.2645915,-0.05124713,1.592653,0.1797876,-0.06707116,1.726985,NA,NA,Unknown,NotTracked,
-0.09082031,-0.8071289,0.6879883,-0.3125,0.8500977,0.4707031,9,-2,5,1,-4,12,-18,20,-3,-2,-1,1,-2,-5,3,23,-6.6875,-6.6875,-6.6875,20.875,20.875,20.875,3.508032,5.254643,6.494299,6.448943,5.253081,4.805876,-0.02464209,0.02795648,1.431204,-0.04215503,0.02948546,1.427912,-0.05593695,0.4219124,1.759183,-0.05217144,0.0674895,1.434091,-0.07811704,0.002026305,1.404,-0.05592606,-0.03400658,1.762326,-0.05146681,-0.3446629,1.734481,-0.216211,0.1413232,1.705266,-0.1255605,-0.3384966,1.693209,-0.2662713,-0.05078564,1.593917,0.1725084,-0.06183917,1.670386,NA,NA,NotTracked,NotTracked,
-0.1459961,-0.840332,0.6401367,-0.5078125,0.6787109,0.5478516,5,-2,-5,-4,0,-7,4,9,24,9,1,1,-3,-4,10,-15,-1.0625,-1.0625,-1.0625,123.1875,123.1875,123.1875,3.50185,5.231864,6.474405,6.642674,5.934787,4.875417,-0.08193398,0.009665546,1.434049,-0.07455849,0.02922638,1.430273,-0.05460463,0.4238901,1.760234,-0.08923283,0.04975461,1.408737,-0.1005146,0.0002913716,1.40921,-0.05817073,-0.03547883,1.761009,-0.05203407,-0.3482841,1.734377,-0.2154851,0.1419864,1.705271,-0.1266955,-0.3432443,1.697627,-0.2681664,-0.04915379,1.596562,0.1660011,-0.03559183,1.594108,NA,NA,NotTracked,NotTracked,
-0.1625977,-0.8442383,0.5712891,-0.2871094,0.6977539,0.4199219,11,0,4,5,2,0,1,18,-13,-3,2,5,5,21,10,-24,-11.5625,-11.5625,-11.5625,61.4375,61.4375,61.4375,3.484942,5.238031,6.446607,6.804783,6.215594,4.886505,-0.08147124,0.0119836,1.441554,-0.05991438,0.02107109,1.440245,-0.05649735,0.4272915,1.764163,-0.08991103,0.05662197,1.425132,-0.06373333,-0.02329413,1.433677,-0.0603203,-0.03580032,1.759124,-0.05270673,-0.3488414,1.734202,-0.215051,0.1422288,1.705192,-0.1286766,-0.3441973,1.702333,-0.2696729,-0.04829697,1.599532,0.1719007,-0.01378234,1.556574,NA,NA,NotTracked,NotTracked,
-0.2011719,-0.8510742,0.5605469,-0.1723633,0.4086914,0.4667969,-1,-2,1,4,2,-1,3,22,-8,-20,3,-1,4,33,-6,-31,2.875,2.875,2.875,14.6875,14.6875,14.6875,3.476485,5.254825,6.436198,6.806014,6.294446,4.874458,-0.08380186,0.01219833,1.445729,-0.09534668,0.01474417,1.446761,-0.05877808,0.4283384,1.767511,-0.085099,0.06164214,1.425276,-0.08218791,-0.0204496,1.430288,-0.06058248,-0.03559452,1.759098,-0.05303997,-0.3477338,1.734178,-0.2139927,0.1426726,1.705203,-0.1290472,-0.3426019,1.704053,-0.2707515,-0.0484347,1.602075,0.1694949,0.02629014,1.516235,NA,NA,NotTracked,NotTracked,
-0.2294922,-0.8417969,0.5546875,-0.2597656,0.4360352,0.2949219,-1,-1,9,-2,1,1,-2,-11,-47,-20,-5,0,0,-9,5,18,1.875,1.875,1.875,16.125,16.125,16.125,3.480448,5.29258,6.44282,6.864428,6.270436,4.878064,-0.07656083,0.01678541,1.448792,-0.09914412,0.01329859,1.451359,-0.0600064,0.4287867,1.769235,-0.08719242,0.06379508,1.430513,-0.07684817,-0.02329582,1.4439,-0.06073409,-0.03528072,1.759089,-0.05352994,-0.3464974,1.734033,-0.2132685,0.1431009,1.705625,-0.1295345,-0.3413083,1.705397,-0.2710865,-0.04853137,1.604307,0.1689738,0.03979139,1.506065,NA,NA,NotTracked,NotTracked,
-0.2558594,-0.8271484,0.5595703,-0.3193359,0.4604492,0.3164063,-7,-2,2,2,0,-5,-6,12,9,7,0,2,12,5,-3,4,2.25,2.25,2.25,-11.1875,-11.1875,-11.1875,3.480679,5.318349,6.450949,6.817289,6.190885,4.835273,-0.08115067,0.02288792,1.448443,-0.1219485,0.007841964,1.457864,-0.06102553,0.4289506,1.770576,-0.08785457,0.07176787,1.430737,-0.1157012,-0.02028651,1.441019,-0.06116727,-0.03528151,1.758984,-0.05364656,-0.3464444,1.73396,-0.2132703,0.1432307,1.705899,-0.1297592,-0.3412597,1.706274,-0.2709084,-0.04889299,1.605527,0.1673916,0.03730908,1.505882,NA,NA,NotTracked,NotTracked,
-0.2651367,-0.8354492,0.5844727,-0.1860352,0.5585938,0.4150391,-17,-4,8,2,-1,2,-5,3,7,7,-1,5,8,16,0,-13,-6.4375,-6.4375,-6.4375,-36.0625,-36.0625,-36.0625,3.477539,5.33568,6.471331,6.729938,6.044739,4.775112,-0.08196444,0.02893459,1.444711,-0.07840367,0.04535749,1.444106,-0.06150933,0.4307997,1.770512,-0.08801573,0.08296626,1.42881,-0.1033075,0.01540404,1.423717,-0.06205005,-0.03575952,1.757558,-0.05377124,-0.3485296,1.733722,-0.213521,0.1432036,1.705954,-0.1299885,-0.3439096,1.708298,-0.271363,-0.04947092,1.605537,0.1616943,0.002413677,1.529657,NA,NA,NotTracked,NotTracked,
-0.2148438,-0.8554688,0.625,-0.215332,0.7114258,0.6005859,-9,-4,0,-3,-12,-2,-7,5,5,14,11,4,0,-4,3,2,7.125,7.125,7.125,-54,-54,-54,3.491173,5.365057,6.505291,6.623787,5.69053,4.801653,-0.07574981,0.03393442,1.436509,-0.009471009,0.08900159,1.461261,-0.06031505,0.4280891,1.770871,-0.0924656,0.07702398,1.419235,-0.05073949,0.09640125,1.478072,-0.06155568,-0.03611127,1.759787,-0.05345055,-0.3503051,1.733538,-0.2137194,0.1435792,1.705824,-0.129558,-0.3453312,1.707344,-0.271285,-0.04938382,1.605187,0.1734089,-0.03891337,1.605796,NA,NA,NotTracked,NotTracked,
-0.1835938,-0.7929688,0.6367188,-0.3857422,0.8466797,0.5922852,4,1,-1,0,1,9,6,28,5,1,-2,0,6,7,11,37,3.4375,3.4375,3.4375,-103.4375,-103.4375,-103.4375,3.511419,5.420392,6.534463,6.490122,5.249034,4.868335,-0.03442087,0.05132163,1.433779,-0.05223956,0.05091717,1.432223,-0.06033729,0.4270899,1.770358,-0.06538633,0.07874257,1.409318,-0.01021538,0.07860275,1.408477,-0.06109345,-0.03480579,1.761225,-0.05286621,-0.3464508,1.734134,-0.2140682,0.143913,1.706138,-0.1275096,-0.3401092,1.701828,-0.2586254,-0.04714948,1.585582,0.173898,-0.05345531,1.664613,NA,NA,NotTracked,NotTracked,
-0.2954102,-0.6953125,0.6210938,-0.7167969,1.01709,0.5766602,5,-1,-4,0,-1,2,-35,-1,-3,2,7,2,3,-2,1,14,0.875,0.875,0.875,-88,-88,-88,3.520047,5.499245,6.536031,6.32861,4.763661,4.892492,-0.04013483,0.06474443,1.435091,-0.05950287,0.06051175,1.43422,-0.06104941,0.4260394,1.770131,-0.0584482,0.09292067,1.409817,-0.02588292,0.08780893,1.413298,-0.06053168,-0.03436765,1.762751,-0.05263606,-0.346096,1.734271,-0.2155408,0.144485,1.705981,-0.1268724,-0.3398559,1.699896,-0.2594005,-0.04764729,1.585206,0.1840224,-0.05463119,1.712315,NA,NA,NotTracked,NotTracked,
-0.3041992,-0.730957,0.5649414,0.6992188,1.636719,0.8491211,5,-1,1,3,1,-22,1,-7,-12,-18,-2,2,8,14,-9,-34,-1.875,-1.875,-1.875,-40.625,-40.625,-40.625,3.516788,5.533705,6.521637,6.364938,4.364626,4.841065,-0.0446598,0.07475723,1.440407,-0.05455668,0.07487755,1.439938,-0.06225966,0.4257873,1.768207,-0.07106926,0.1021501,1.414761,-0.01244238,0.1016969,1.419951,-0.06064913,-0.03487933,1.762225,-0.05240592,-0.347084,1.734195,-0.2159276,0.1448852,1.705839,-0.1267148,-0.3415456,1.697257,-0.2600371,-0.04795295,1.583565,0.1770164,-0.06245384,1.725581,NA,NA,NotTracked,NotTracked,
-0.3725586,-0.7387695,0.5400391,0.2885742,0.940918,0.7744141,-1,0,1,0,-1,1,-2,-15,7,7,5,-4,1,-2,-6,15,1.5625,1.5625,1.5625,-92.5,-92.5,-92.5,3.511089,5.561193,6.501877,6.284809,4.34025,4.819215,-0.04547175,0.08051822,1.446718,-0.06579369,0.07614543,1.445485,-0.06264488,0.4248369,1.76729,-0.07580283,0.1079056,1.421795,-0.02881824,0.1050437,1.425731,-0.06015559,-0.03500998,1.762734,-0.05220168,-0.3472956,1.734138,-0.2163586,0.1453387,1.705751,-0.1264905,-0.3420504,1.696134,-0.2598248,-0.04799122,1.582652,0.1759302,-0.06582799,1.733055,NA,NA,NotTracked,NotTracked,
-0.3964844,-0.7685547,0.5527344,0.2958984,0.7451172,0.6298828,2,-1,-2,-2,-2,-11,-8,-2,7,1,-2,-1,-5,-15,-6,-14,2.5625,2.5625,2.5625,32.8125,32.8125,32.8125,3.514704,5.572883,6.501469,6.273482,4.346818,4.808383,-0.04539781,0.08060047,1.450824,-0.06639104,0.07664129,1.449253,-0.06274607,0.424772,1.766746,-0.0740394,0.1097734,1.427488,-0.02690356,0.1042903,1.429428,-0.06005463,-0.03528772,1.762593,-0.05187997,-0.3477484,1.733974,-0.2167489,0.1456063,1.705971,-0.1263364,-0.342602,1.695028,-0.2597147,-0.04852248,1.58268,0.1766809,-0.06615441,1.736803,NA,NA,NotTracked,NotTracked,
-0.3388672,-0.7983398,0.5742188,0.3549805,0.6801758,0.6513672,-5,-1,4,2,-3,-20,-15,-2,1,-3,-1,0,-2,-5,3,20,-1.125,-1.125,-1.125,-6.6875,-6.6875,-6.6875,3.515759,5.567373,6.506634,6.295408,4.36531,4.799159,-0.04248504,0.08250805,1.45092,-0.06636869,0.07679713,1.449376,-0.06281793,0.4243786,1.766637,-0.07421584,0.10933,1.426654,-0.02587818,0.1043155,1.428358,-0.05967858,-0.03520269,1.763077,-0.0516521,-0.3477968,1.733958,-0.2172997,0.1458634,1.705669,-0.1261403,-0.342642,1.69462,-0.2593594,-0.04900798,1.582624,0.1769193,-0.06552172,1.737505,NA,NA,NotTracked,NotTracked,
-0.3339844,-0.7851563,0.5732422,0.3564453,0.6376953,0.6547852,1,1,-2,-2,-1,4,-5,2,-3,-7,-1,10,5,2,0,-3,-1.4375,-1.4375,-1.4375,5,5,5,3.513247,5.550279,6.508258,6.285333,4.374084,4.793267,-0.03110456,0.08469903,1.453925,-0.0105141,-0.1503775,1.580051,-0.06291417,0.4249481,1.766192,-0.0917926,0.1270395,1.4555,-0.05059676,-0.0929674,1.592063,-0.05975135,-0.03530944,1.762536,-0.05135781,-0.3479278,1.733884,-0.2173398,0.1459069,1.705673,-0.1258057,-0.3427643,1.693941,-0.2592642,-0.04952827,1.582886,0.1789201,-0.06343125,1.740688,NA,NA,NotTracked,Unknown,
-0.3261719,-0.7631836,0.5644531,0.3388672,0.6782227,0.6230469,-2,-1,-3,-4,-2,6,-2,-8,-1,-1,-1,1,-1,-1,-5,-1,-1.9375,-1.9375,-1.9375,-0.8125,-0.8125,-0.8125,3.51185,5.543981,6.51579,6.291739,4.365564,4.791505,-0.0337974,0.08337776,1.455231,-0.01161295,-0.1496173,1.580155,-0.06294239,0.4242274,1.766204,-0.09548351,0.1447684,1.441667,-0.05221898,-0.08811752,1.590981,-0.05943774,-0.03549747,1.762722,-0.05101107,-0.3481852,1.73375,-0.2173464,0.1459122,1.705682,-0.1254351,-0.3430655,1.693221,-0.2592427,-0.05007957,1.583519,0.1802309,-0.06253099,1.742032,NA,NA,Unknown,Unknown,
-0.2866211,-0.7138672,0.5751953,0.3217773,0.6157227,0.6025391,2,-1,-2,0,0,4,4,-5,-1,-3,-1,-1,-1,-1,-1,-1,2.75,2.75,2.75,-6.5625,-6.5625,-6.5625,3.522525,5.530446,6.530531,6.288728,4.354153,4.782468,-0.03435754,0.08150784,1.456463,-0.005181124,-0.1847934,1.57457,-0.06290106,0.4245116,1.765824,-0.0948149,0.1325714,1.451511,-0.02351145,-0.1148306,1.576055,-0.05947984,-0.03555518,1.762239,-0.05080466,-0.3481372,1.733678,-0.2173897,0.145872,1.705904,-0.1252499,-0.342998,1.693042,-0.2592579,-0.05100543,1.585191,0.1803616,-0.06339962,1.742905,NA,NA,Unknown,Unknown,
-0.1347656,-0.6630859,0.5571289,0.296875,0.6254883,0.4663086,0,0,0,2,-1,2,-2,1,0,-1,-2,-3,-2,-2,-1,0,6.75,6.75,6.75,-8.3125,-8.3125,-8.3125,3.544835,5.471734,6.557014,6.328344,4.242964,4.68552,-0.03447711,0.07509221,1.457481,0.005150232,-0.2113976,1.570332,-0.06276727,0.4235141,1.765905,-0.07682474,0.09737343,1.430259,-0.04921358,-0.1488214,1.56375,-0.05881901,-0.03568213,1.762888,-0.0506735,-0.3482197,1.733702,-0.2178013,0.1456153,1.706201,-0.1251204,-0.34307,1.693018,-0.2582732,-0.05062957,1.585127,0.1776464,-0.06731672,1.742896,NA,NA,Unknown,Unknown,
-0.06005859,-0.6166992,0.6054688,0.3710938,0.5986328,0.4741211,0,-1,-4,-2,-1,-18,-5,-4,4,17,27,8,6,3,2,4,17.875,17.875,17.875,14.6875,14.6875,14.6875,3.581875,5.361393,6.578204,6.373674,4.069477,4.586241,-0.0441159,0.05643705,1.460187,0.02602943,-0.2625528,1.569561,-0.0626239,0.4230548,1.765745,-0.1012149,0.1202893,1.4345,-0.02889878,-0.2176904,1.572442,-0.05851993,-0.03556391,1.763272,-0.05080048,-0.3480805,1.733633,-0.2179538,0.145248,1.706728,-0.1251736,-0.3427387,1.69305,-0.2650314,-0.05717826,1.59989,0.1750436,-0.07136848,1.744633,NA,NA,Unknown,Unknown,
-0.07470703,-0.5795898,0.5844727,0.5541992,0.5336914,0.4155273,4,-2,-1,0,-1,5,1,0,-1,-3,2,3,0,-1,0,-3,0.375,0.375,0.375,-7.125,-7.125,-7.125,3.614621,5.174527,6.609141,6.48278,3.750005,4.380887,-0.06034435,0.01464473,1.461646,0.07639851,-0.3224077,1.577876,-0.06234464,0.4226179,1.765629,-0.08801737,0.08091621,1.431833,0.04476056,-0.2954747,1.562909,-0.05843143,-0.03506433,1.763438,-0.05152356,-0.3464673,1.732886,-0.2175047,0.1436184,1.708411,-0.1256747,-0.3407467,1.693103,-0.274833,-0.06656066,1.62649,0.1688396,-0.08105634,1.743692,NA,NA,Unknown,Unknown,
-0.02441406,-0.703125,0.6025391,1.010742,0.5751953,0.2006836,-3,0,-3,-1,2,0,-1,0,4,-1,-16,-3,-1,-2,0,3,43.8125,43.8125,43.8125,-84.5625,-84.5625,-84.5625,3.662611,4.746466,6.618958,6.591592,3.448366,4.160253,-0.07015427,-0.0651543,1.465267,0.1173024,-0.3746795,1.611217,-0.06156046,0.4217788,1.764991,-0.05119056,-0.04074929,1.401,0.0831404,-0.3706251,1.590714,-0.05843128,-0.0348312,1.763587,-0.0525957,-0.3454004,1.732541,-0.2166168,0.1427456,1.709593,-0.1264888,-0.3394809,1.693344,-0.2833546,-0.06818631,1.662518,0.1645215,-0.09802102,1.74146,NA,NA,Unknown,Unknown,
0.3442383,-0.675293,0.6103516,1.102051,0.3657227,0.03808594,1,0,0,-4,1,3,0,0,7,4,-1,-1,0,0,1,1,12.3125,12.3125,12.3125,-87.8125,-87.8125,-87.8125,3.69175,4.317324,6.657366,6.702857,3.191072,3.855467,-0.08360031,-0.1681692,1.476278,0.1423196,-0.4017192,1.647307,-0.06047932,0.4212611,1.764528,-0.02757721,-0.1280361,1.5112,0.1032849,-0.4058205,1.628595,-0.0574937,-0.03523522,1.763735,-0.0511639,-0.3463844,1.732509,-0.2166128,0.1391874,1.713131,-0.1252456,-0.3404491,1.69401,-0.2828708,-0.06816233,1.685603,0.1642775,-0.1136852,1.739909,NA,NA,Unknown,NotTracked,
0.3901367,-0.7446289,0.5751953,1.084961,0.2563477,0.07714844,-1,1,-1,-1,-2,0,-2,-3,-4,0,0,-1,0,0,-1,0,21.3125,21.3125,21.3125,-63.25,-63.25,-63.25,3.701979,3.873053,6.696328,6.922502,3.018785,3.490908,-0.1277934,-0.2731887,1.525568,0.1612458,-0.4099855,1.67768,-0.05896182,0.4209547,1.763903,-0.1132382,-0.2439478,1.47618,0.1174956,-0.4184572,1.649348,-0.05570799,-0.03572905,1.76442,-0.04744083,-0.3481634,1.733994,-0.219338,0.1349378,1.716715,-0.1210755,-0.3433865,1.696814,-0.2840403,-0.07600838,1.700903,0.1659326,-0.1185019,1.74202,NA,NA,Unknown,NotTracked,
0.9555664,-0.6972656,0.4931641,0.9921875,0.2104492,0.1210938,-3,0,-1,-1,-1,-2,0,0,1,0,-1,-1,-1,-1,-1,-1,89.5,89.5,89.5,-7.625,-7.625,-7.625,3.707597,3.377837,6.805464,7.215361,2.912265,3.118713,-0.1741549,-0.3765913,1.564784,0.1763674,-0.4088614,1.703212,-0.05720505,0.4206371,1.762908,-0.1545971,-0.3509595,1.532222,0.1311045,-0.42962,1.678289,-0.05313221,-0.03586903,1.763887,-0.0422809,-0.3487611,1.732848,-0.2204112,0.1331757,1.717886,-0.1175011,-0.3452291,1.696428,-0.2788809,-0.09025256,1.712477,0.1703194,-0.1226066,1.749895,NA,NA,Unknown,NotTracked,
1.343262,-0.0009765625,-0.144043,0.9819336,0.293457,0.1494141,-2,-2,0,-2,-5,-8,-8,-4,0,-2,-1,-2,-1,0,0,1,82.375,82.375,82.375,-1.4375,-1.4375,-1.4375,3.380016,2.816414,7.436459,7.321702,2.881782,3.003766,-0.2229961,-0.4415686,1.634794,0.1862358,-0.4112525,1.716316,-0.05614874,0.4201992,1.761842,-0.1806168,-0.4369745,1.625593,0.1395783,-0.3915883,1.700429,-0.05282164,-0.03610203,1.763681,-0.04295096,-0.3494021,1.733126,-0.22132,0.128255,1.719102,-0.1186974,-0.3459706,1.697487,-0.2671757,-0.1163647,1.716317,0.1750779,-0.1252027,1.758492,NA,NA,Unknown,NotTracked,
1.153809,-0.1381836,-0.1787109,0.9511719,0.3251953,0.1376953,0,-1,-3,-1,-3,-1,-3,-3,-1,-1,-2,-2,-1,0,-2,-1,6.0625,6.0625,6.0625,-17.875,-17.875,-17.875,2.032783,2.653501,8.818008,7.358496,2.869163,2.944163,-0.2618208,-0.4487063,1.68876,0.1908521,-0.4065131,1.726388,-0.05554943,0.4198624,1.760895,-0.2113588,-0.4466705,1.651381,0.1442477,-0.3921198,1.713364,-0.05304646,-0.0365142,1.763925,-0.04573385,-0.3510955,1.735027,-0.2212518,0.1257813,1.719074,-0.1220194,-0.3473038,1.700835,-0.2656161,-0.1328794,1.718979,0.178922,-0.1261558,1.765156,NA,NA,NotTracked,NotTracked,
1.043945,-0.1303711,0.01708984,0.9047852,0.2368164,0.08447266,-2,0,0,-1,1,-2,-1,-1,-1,-1,-1,0,-1,0,-1,-1,11.8125,11.8125,11.8125,-37.9375,-37.9375,-37.9375,1.34692,2.6476,9.519099,7.275229,2.868545,2.947483,-0.2895723,-0.4407704,1.722114,0.1893717,-0.4062215,1.72744,-0.05499263,0.4195378,1.759735,-0.2341576,-0.422662,1.700368,0.144881,-0.3918756,1.711875,-0.05297608,-0.03674672,1.764001,-0.04594893,-0.3514878,1.735733,-0.2219873,0.1234367,1.720362,-0.1222414,-0.3475619,1.701853,-0.273436,-0.1396884,1.728487,0.1800528,-0.1263234,1.768598,NA,NA,NotTracked,NotTracked,
1.005371,-0.2250977,0.2661133,0.9541016,0.2163086,0.1074219,-2,0,-2,-1,-1,-1,-1,-2,19,2,-1,0,-1,-1,0,0,7.625,7.625,7.625,-14.6875,-14.6875,-14.6875,1.973926,2.660238,8.911399,7.148045,2.873167,3.035473,-0.2981749,-0.4426771,1.732406,0.1837573,-0.4063738,1.72506,-0.05412824,0.4198564,1.757272,-0.239008,-0.4050945,1.7156,0.1468619,-0.4284143,1.705591,-0.05276728,-0.03676474,1.763899,-0.04598523,-0.3514956,1.736223,-0.2215404,0.1236191,1.721752,-0.1223198,-0.3474522,1.702546,-0.2865121,-0.1418651,1.74422,0.1799124,-0.12603,1.770177,NA,NA,NotTracked,NotTracked,
