ALX,ALY,ALZ,ARX,ARY,ARZ,EMG0L,EMG1L,EMG2L,EMG3L,EMG4L,EMG5L,EMG6L,EMG7L,EMG0R,EMG1R,EMG2R,EMG3R,EMG4R,EMG5R,EMG6R,EMG7R,GLX,GLY,GLZ,GRX,GRY,GRZ,ORL,OPL,OYL,ORR,OPR,OYR,LHNX,LHNY,LHNZ,RHNX,RHNY,RHNZ,HX,HY,HZ,LTX,LTY,LTZ,RTX,RTY,RTZ,SpineMidX,SpineMidY,SpineMidZ,SpineBaseX,SpineBaseY,SpineBaseZ,ShoulderLeftX,ShoulderLeftY,ShoulderLeftZ,ShoulderRightX,ShoulderRightY,ShoulderRightZ,ElbowLeftX,ElbowLeftY,ElbowLeftZ,ElbowRightX,ElbowRightY,ElbowRightZ,Myo_Pose_left,Myo_Pose_Right,Kinect_pose_left,Kinect_pose_right
0.972168,-0.1630859,0.09960938,0.9350586,0.2661133,0.08789063,-1,-1,-5,-1,0,-2,-2,-1,0,1,-1,-2,-2,-1,-3,-2,-2.5625,-2.5625,-2.5625,2.5,2.5,2.5,3.242286,2.807032,6.924511,6.963442,2.969151,3.143792,-0.1778701,-0.4421763,1.612735,0.243021,-0.4185672,1.615773,0.01549242,0.4110861,1.680156,-0.2224918,-0.4447457,1.630434,0.205267,-0.4181294,1.633884,0.01704918,-0.04244727,1.704004,0.02207332,-0.3587372,1.682188,-0.1599222,0.1206203,1.662864,-0.05564085,-0.3524973,1.65036,-0.2069709,-0.1307091,1.669495,0.2435723,-0.1317892,1.688991,NA,NA,NotTracked,NotTracked,
0.9765625,-0.1640625,0.09423828,0.9365234,0.2719727,0.09375,-1,-4,-2,-2,-3,-2,-2,0,-2,0,0,-1,-1,0,-1,-3,-1.25,-1.25,-1.25,-2.9375,-2.9375,-2.9375,3.244453,2.808028,6.91807,6.955947,2.972791,3.149646,-0.178043,-0.4407659,1.611462,0.2425779,-0.417319,1.612583,0.01570226,0.4110762,1.680033,-0.2219329,-0.4375128,1.62979,0.2056972,-0.4236042,1.632286,0.01728355,-0.04243476,1.703871,0.0223581,-0.3587514,1.681951,-0.1595617,0.1204469,1.662419,-0.05535984,-0.3525289,1.650139,-0.2060449,-0.1307966,1.668701,0.2438559,-0.1316871,1.688685,NA,NA,NotTracked,NotTracked,
0.9750977,-0.1640625,0.1010742,0.9326172,0.2724609,0.09521484,0,-3,0,-2,-2,-1,-1,0,0,-2,-1,-1,0,-2,-1,-2,-1.6875,-1.6875,-1.6875,1.75,1.75,1.75,3.243091,2.80812,6.916953,6.94952,2.975914,3.156776,-0.1781432,-0.4416243,1.610924,0.2422545,-0.4182878,1.612343,0.01581743,0.4110643,1.680111,-0.2219952,-0.4364231,1.629458,0.2061698,-0.4238134,1.633659,0.0173366,-0.04244656,1.703838,0.0224126,-0.3587518,1.681747,-0.1595248,0.1204835,1.662533,-0.05530315,-0.3525053,1.649983,-0.2060255,-0.1301608,1.668519,0.2439951,-0.1316747,1.688537,NA,NA,NotTracked,NotTracked,
0.9741211,-0.1650391,0.09423828,0.9282227,0.2763672,0.09667969,-1,0,0,-2,0,-1,-1,0,-1,-3,1,0,0,-1,-1,3,-0.6875,-0.6875,-0.6875,0.25,0.25,0.25,3.246402,2.808882,6.912546,6.947659,2.978697,3.159489,-0.1782429,-0.441883,1.610793,0.2433369,-0.4182618,1.610061,0.01593769,0.4111331,1.680217,-0.2213919,-0.4369949,1.627945,0.2033174,-0.4224745,1.627997,0.01737412,-0.04244278,1.703814,0.02247292,-0.3587566,1.68166,-0.1593588,0.120555,1.662539,-0.05525603,-0.3525092,1.649924,-0.2057093,-0.1311291,1.668072,0.2441865,-0.1317256,1.688225,NA,NA,NotTracked,NotTracked,
0.96875,-0.1660156,0.1020508,0.9287109,0.265625,0.09521484,0,-2,-1,-3,1,-1,0,-2,0,-3,0,-1,0,0,-2,-2,-0.625,-0.625,-0.625,-1.375,-1.375,-1.375,3.246004,2.808813,6.912238,6.946715,2.981832,3.159898,-0.1782902,-0.4411922,1.610148,0.2439789,-0.4176919,1.607663,0.01596418,0.4111721,1.680265,-0.2218547,-0.4400408,1.627738,0.1990892,-0.4130802,1.61905,0.01737977,-0.04243807,1.703736,0.02242681,-0.3587643,1.681422,-0.1594992,0.1205577,1.662035,-0.05530324,-0.3524981,1.649639,-0.2058013,-0.1310623,1.667815,0.2443429,-0.1314424,1.687529,NA,NA,NotTracked,NotTracked,
0.9760742,-0.1762695,0.1054688,0.9311523,0.2763672,0.1015625,-1,-2,-1,0,-2,-1,-1,-2,0,0,-1,1,0,-2,0,-1,-0.5,-0.5,-0.5,-0.4375,-0.4375,-0.4375,3.248493,2.808925,6.909753,6.947775,2.982489,3.159116,-0.1785389,-0.4408608,1.60958,0.2446941,-0.416805,1.605803,0.01598656,0.4112536,1.680176,-0.2217873,-0.439947,1.62757,0.1956491,-0.401134,1.611733,0.01738475,-0.04241114,1.703402,0.02240633,-0.3586964,1.680937,-0.1596763,0.120495,1.661528,-0.05527394,-0.3524188,1.649046,-0.2057767,-0.1310857,1.667615,0.2444041,-0.1312582,1.686948,NA,NA,NotTracked,NotTracked,
0.9794922,-0.1679688,0.09130859,0.9296875,0.2636719,0.1044922,-3,0,0,-1,-1,-1,0,0,2,2,-3,-1,-2,-2,2,1,1.25,1.25,1.25,-0.5,-0.5,-0.5,3.241993,2.809519,6.916931,6.945682,2.982563,3.159814,-0.1785652,-0.4402735,1.607581,0.2444555,-0.4165156,1.604136,0.01603264,0.4112659,1.680087,-0.2209167,-0.4383492,1.620848,0.1982149,-0.410042,1.616828,0.01737006,-0.04250216,1.702916,0.02232925,-0.3588758,1.680026,-0.1598296,0.1197767,1.660928,-0.05532473,-0.3525677,1.648373,-0.2061327,-0.1311686,1.66692,0.2441052,-0.1310253,1.686028,NA,NA,NotTracked,NotTracked,
0.9770508,-0.1582031,0.1010742,0.9267578,0.2578125,0.09033203,0,-5,-3,-1,0,-2,0,-1,4,1,2,-1,1,3,0,21,0.4375,0.4375,0.4375,2.0625,2.0625,2.0625,3.24531,2.809106,6.915426,6.948069,2.980909,3.158679,-0.1789912,-0.440145,1.608461,0.2443397,-0.4179537,1.604574,0.01599919,0.4112885,1.679995,-0.2214512,-0.4364737,1.62442,0.198065,-0.4239476,1.615636,0.0172276,-0.04263195,1.702482,0.02198395,-0.3590226,1.679498,-0.159938,0.1198443,1.660224,-0.05558905,-0.3526453,1.647878,-0.2064368,-0.1318376,1.665955,0.2441339,-0.1316073,1.684899,NA,NA,NotTracked,NotTracked,
0.9790039,-0.1743164,0.1030273,0.9594727,0.3115234,0.08349609,2,1,-2,-2,-1,-2,-1,-2,-6,2,1,-1,0,-2,-4,-14,1.625,1.625,1.625,11.625,11.625,11.625,3.243074,2.809204,6.917808,6.96173,2.979159,3.163921,-0.1788622,-0.4396826,1.606706,0.2460744,-0.4170851,1.603281,0.01596848,0.4114104,1.679854,-0.2210366,-0.4313239,1.619111,0.1986013,-0.4014875,1.618241,0.01689504,-0.04261596,1.701816,0.02147499,-0.3589782,1.678507,-0.1599948,0.1197397,1.660256,-0.05602368,-0.3525655,1.647005,-0.2067819,-0.131776,1.665351,0.2438931,-0.131711,1.684206,NA,NA,NotTracked,NotTracked,
0.9765625,-0.1577148,0.09960938,0.9482422,0.3325195,0.06445313,-2,0,3,-1,-1,-2,-3,-2,-31,-6,2,4,4,-1,0,3,0.4375,0.4375,0.4375,-21.125,-21.125,-21.125,3.25109,2.809467,6.913361,6.939178,2.999731,3.170026,-0.1789895,-0.4402262,1.6084,0.2521709,-0.4173819,1.595489,0.01583182,0.4114857,1.679667,-0.2215326,-0.4315554,1.623088,0.2561729,-0.4445125,1.622334,0.01673,-0.04272153,1.701279,0.02121255,-0.3590595,1.677993,-0.1601,0.1197135,1.660244,-0.05621041,-0.3525782,1.646575,-0.2069937,-0.1318419,1.664672,0.2438672,-0.1317232,1.683946,NA,NA,NotTracked,NotTracked,
0.9785156,-0.1787109,0.1074219,0.9716797,0.3393555,0.05175781,-2,-2,-1,-1,-1,0,-1,0,28,17,1,-9,-6,3,4,17,-0.8125,-0.8125,-0.8125,-29.4375,-29.4375,-29.4375,3.247537,2.809166,6.915545,6.824028,3.060951,3.241702,-0.1788893,-0.4397049,1.607037,0.257875,-0.4073091,1.570317,0.01562425,0.4116711,1.678871,-0.2208285,-0.4360912,1.62011,0.2908372,-0.4081514,1.5538,0.016335,-0.04267611,1.700483,0.02080894,-0.3590471,1.677409,-0.1603037,0.119695,1.660068,-0.05655421,-0.3525708,1.645938,-0.2077557,-0.13034,1.663877,0.2441297,-0.1312218,1.683969,NA,NA,NotTracked,NotTracked,
0.9833984,-0.1572266,0.1132813,1.166504,0.4868164,0.2075195,-1,-1,0,-1,-1,-1,0,-2,1,-3,24,0,33,10,-3,-20,0.375,0.375,0.375,-100.75,-100.75,-100.75,3.258186,2.809135,6.908365,6.525866,3.288754,3.415322,-0.1790597,-0.4399111,1.605983,0.2574828,-0.3735962,1.524126,0.01543248,0.4117939,1.678437,-0.2209899,-0.4331876,1.619484,0.2645684,-0.356352,1.493785,0.01590663,-0.0427224,1.699716,0.0200615,-0.35905,1.676654,-0.1604585,0.1193947,1.659341,-0.05739646,-0.3524794,1.644823,-0.2076648,-0.1309898,1.663631,0.2459458,-0.1282316,1.686433,NA,NA,NotTracked,NotTracked,
0.9790039,-0.1704102,0.1132813,1.108398,0.390625,0.7255859,-2,-1,-2,-1,-3,0,-5,-2,16,11,46,-49,-33,8,8,6,-4.1875,-4.1875,-4.1875,-27.0625,-27.0625,-27.0625,3.256552,2.809631,6.904578,6.254738,3.61727,3.612823,-0.1791637,-0.438945,1.605319,0.2459307,-0.2902644,1.46293,0.01526343,0.4121104,1.677698,-0.220088,-0.4292718,1.616585,0.2580922,-0.2951178,1.3735,0.01551608,-0.04259415,1.698783,0.01942621,-0.3589552,1.675791,-0.1611158,0.1191889,1.658974,-0.05799826,-0.3523344,1.644013,-0.2076696,-0.1309742,1.663485,0.2469042,-0.1149343,1.694232,NA,NA,NotTracked,Lasso,
0.9770508,-0.1772461,0.1079102,0.4003906,0.7773438,0.8505859,-1,1,3,-1,0,0,-2,1,3,5,32,52,36,3,-2,-6,-12.6875,-12.6875,-12.6875,-41.3125,-41.3125,-41.3125,3.246084,2.803162,6.897628,6.105166,4.283816,3.770401,-0.1791078,-0.4391346,1.6051,0.2296234,-0.1553501,1.422328,0.01516683,0.4119415,1.677131,-0.220661,-0.435121,1.618927,0.2443589,-0.138209,1.380263,0.01526488,-0.0426327,1.698192,0.01870904,-0.3589441,1.674953,-0.1611522,0.1191178,1.658399,-0.0588076,-0.352258,1.642901,-0.2078944,-0.1307699,1.662762,0.2386592,-0.07210794,1.707198,NA,NA,NotTracked,Unknown,
0.9819336,-0.1796875,0.08740234,0.2089844,0.7026367,0.8149414,0,-2,0,0,-1,-1,-1,-3,-19,9,-26,35,33,3,3,3,-12.125,-12.125,-12.125,-25.25,-25.25,-25.25,3.22924,2.800833,6.892212,6.079666,4.482271,3.80107,-0.178975,-0.4388418,1.604253,0.2236474,-0.01829843,1.423622,0.01551101,0.4118853,1.676379,-0.2205376,-0.4326716,1.617004,0.1829694,-0.02255599,1.389148,0.01504229,-0.04269777,1.697422,0.01785993,-0.3588957,1.674164,-0.1612788,0.1189941,1.657448,-0.05963646,-0.3521546,1.642143,-0.2080579,-0.1307048,1.661812,0.2439978,-0.08942849,1.622168,NA,NA,NotTracked,Unknown,
0.9804688,-0.1655273,0.09326172,-0.5463867,0.6542969,0.6450195,-2,-2,0,-4,0,-3,0,1,-20,12,22,36,12,-6,-11,-39,-18.5,-18.5,-18.5,29.0625,29.0625,29.0625,3.212366,2.800304,6.883276,6.140734,5.547583,3.970026,-0.1787949,-0.4390597,1.60279,0.2075993,0.1171503,1.449967,0.01620139,0.41157,1.675766,-0.2181654,-0.4415863,1.610053,0.1607352,0.1108479,1.414348,0.01487095,-0.04282142,1.697131,0.01735072,-0.3591801,1.673645,-0.1606452,0.1195803,1.656571,-0.06032449,-0.3524735,1.641377,-0.2076775,-0.1315586,1.660466,0.2622535,-0.05394109,1.603023,NA,NA,NotTracked,Open,
0.9526367,-0.1474609,0.07861328,-0.6611328,0.4541016,0.5336914,-2,-3,0,0,-2,0,-4,-5,3,-14,2,-10,-29,-6,-4,-20,-10,-10,-10,57.625,57.625,57.625,3.192755,2.802179,6.881082,6.385513,6.233157,4.197235,-0.1792343,-0.4330629,1.601477,0.1918517,0.2062467,1.490839,0.01670128,0.4113006,1.675304,-0.2220825,-0.4373671,1.616537,0.1354174,0.2180454,1.465485,0.0145033,-0.04264695,1.696659,0.01614674,-0.358402,1.672397,-0.1593885,0.1203023,1.655319,-0.06203422,-0.3511683,1.640152,-0.2064663,-0.1294045,1.658146,0.2889402,-0.02924576,1.567926,NA,NA,NotTracked,Unknown,
0.9628906,-0.1303711,0.08300781,-0.5512695,0.4208984,0.3828125,0,-1,-1,0,-1,-1,-3,-3,-16,-16,-21,-14,-10,-4,2,-18,-4.75,-4.75,-4.75,31.375,31.375,31.375,3.181169,2.80412,6.878458,6.704634,6.565392,4.509743,-0.1795148,-0.4330952,1.600152,0.1792866,0.2520743,1.528862,0.01726608,0.4110816,1.674973,-0.22554,-0.4469456,1.62025,0.1193299,0.2706707,1.511917,0.01417497,-0.04166277,1.696159,0.01462012,-0.3552625,1.670939,-0.1585723,0.1209315,1.654997,-0.06421587,-0.347242,1.638866,-0.2054506,-0.1239047,1.655991,0.3036753,-0.003586021,1.546794,NA,NA,NotTracked,Unknown,
0.9648438,-0.1381836,0.08007813,-0.609375,0.3378906,0.1875,-1,-1,-3,-2,-3,-1,-1,-2,-8,-7,2,37,13,2,-7,-8,8.5,8.5,8.5,11.3125,11.3125,11.3125,3.191067,2.808364,6.874084,7.089211,6.717523,4.922965,-0.1800123,-0.4326849,1.600268,0.1695862,0.2691983,1.546278,0.01799876,0.4114368,1.674162,-0.2227722,-0.438617,1.617164,0.1064785,0.2895722,1.541028,0.01455986,-0.04041624,1.695596,0.01435602,-0.3535964,1.670229,-0.1578571,0.1211495,1.654911,-0.06463068,-0.3456048,1.638582,-0.2052607,-0.1227618,1.65494,0.3116446,0.02024354,1.529715,NA,NA,NotTracked,Unknown,
0.9794922,-0.1479492,0.07470703,-0.5625,0.3378906,0.1313477,-2,3,4,-2,-3,-1,-2,2,-14,-28,-15,8,8,-2,-8,-10,16,16,16,16.125,16.125,16.125,3.222803,2.809484,6.866793,7.274854,6.731158,5.116836,-0.1798307,-0.4297422,1.602844,0.1290833,0.3090533,1.569738,0.01816021,0.4134663,1.672407,-0.2187424,-0.4300601,1.609545,0.1239203,0.2638537,1.5752,0.01504323,-0.03819223,1.69476,0.01402228,-0.3519805,1.669813,-0.157801,0.1212207,1.65497,-0.06520172,-0.3440495,1.638559,-0.2053232,-0.1216834,1.655198,0.314802,0.03311647,1.521888,NA,NA,NotTracked,NotTracked,
0.9897461,-0.1723633,0.08398438,-0.7402344,0.4199219,0.07128906,-2,0,1,-1,-2,-2,-3,-4,-8,-2,-2,12,8,1,5,-6,16.5,16.5,16.5,-3.625,-3.625,-3.625,3.253612,2.810037,6.863743,7.379593,6.70282,5.230662,-0.1801832,-0.4249036,1.606256,0.127524,0.3083684,1.566786,0.01714007,0.4139632,1.671222,-0.2199096,-0.4241834,1.617833,0.08590122,0.304342,1.576025,0.01497501,-0.03719923,1.694324,0.01351708,-0.350995,1.669599,-0.1579401,0.1210822,1.655093,-0.06573389,-0.3431492,1.638921,-0.2061323,-0.1207375,1.656077,0.3157306,0.04006212,1.517888,NA,NA,NotTracked,NotTracked,
0.9736328,-0.2050781,0.1196289,-0.8911133,0.4619141,0.08349609,1,-4,0,-1,-1,1,0,-1,17,-15,-1,11,14,-1,-11,-8,5.3125,5.3125,5.3125,-3.8125,-3.8125,-3.8125,3.306084,2.815818,6.841002,7.351816,6.673876,5.207741,-0.1808411,-0.4258433,1.608385,0.1261365,0.3065804,1.56244,0.01503212,0.4139522,1.670085,-0.2216532,-0.4304839,1.62287,0.08277588,0.2989806,1.561341,0.01445637,-0.03654182,1.694034,0.01290586,-0.3504357,1.669481,-0.1583506,0.1208394,1.655964,-0.06640052,-0.3426528,1.639223,-0.2076361,-0.1201674,1.658271,0.3153973,0.04152479,1.516843,NA,NA,NotTracked,NotTracked,
0.9697266,-0.2041016,0.128418,-0.8896484,0.512207,0.1137695,0,-2,-2,-1,-1,-2,-1,0,-3,-5,-8,-5,-12,-4,-2,-3,1.75,1.75,1.75,-0.3125,-0.3125,-0.3125,3.319154,2.820227,6.832643,7.309225,6.651887,5.168652,-0.1807705,-0.4226928,1.611435,0.1258989,0.3046661,1.559608,0.01274128,0.4137788,1.668884,-0.2203804,-0.4304,1.618673,0.08917918,0.2888575,1.553172,0.01405809,-0.03608606,1.693806,0.01241563,-0.3500594,1.669456,-0.1594776,0.1206546,1.657312,-0.0669421,-0.3423806,1.639529,-0.2084318,-0.120544,1.660372,0.3145284,0.0428424,1.515293,NA,NA,NotTracked,NotTracked,
0.9741211,-0.1845703,0.1318359,-0.9101563,0.5117188,0.05371094,-1,-1,0,-1,-1,-1,-1,1,-7,6,6,-3,6,-3,-2,-5,-1.9375,-1.9375,-1.9375,-2.625,-2.625,-2.625,3.329535,2.82345,6.822015,7.308879,6.651428,5.171408,-0.1815199,-0.4229549,1.612335,0.1242591,0.3068639,1.556927,0.01038786,0.4138391,1.668435,-0.2213695,-0.434649,1.620103,0.08905879,0.2895378,1.557954,0.01330461,-0.03563159,1.693694,0.01192619,-0.3496351,1.669402,-0.1603632,0.1200945,1.658042,-0.06747492,-0.3420526,1.639922,-0.209867,-0.1189208,1.662547,0.3135175,0.04440772,1.513469,NA,NA,NotTracked,NotTracked,
0.9804688,-0.1650391,0.1147461,-0.859375,0.5224609,0.08496094,0,1,2,-1,0,-1,-1,-1,-9,0,-6,-25,-19,-8,-14,-20,0,0,0,-0.375,-0.375,-0.375,3.345024,2.829759,6.805979,7.305123,6.644428,5.171479,-0.1837957,-0.4190627,1.613858,0.1214825,0.3067964,1.555617,0.008488271,0.4136092,1.667735,-0.2231285,-0.4057023,1.6258,0.08425103,0.2872612,1.543684,0.01271285,-0.03536218,1.693606,0.01141222,-0.349294,1.669479,-0.1614415,0.1196338,1.659089,-0.06806864,-0.3418248,1.640354,-0.2107503,-0.1187522,1.663338,0.3124948,0.0460169,1.511553,NA,NA,NotTracked,Unknown,
0.9736328,-0.1630859,0.09960938,-0.8408203,0.5307617,0.1049805,-1,-4,-6,-1,-2,-2,2,2,-4,5,-4,3,1,0,3,-8,-2.6875,-2.6875,-2.6875,1.1875,1.1875,1.1875,3.346235,2.829094,6.801606,7.306923,6.629379,5.174488,-0.1839272,-0.4193115,1.613472,0.1221611,0.3067314,1.554139,0.006880714,0.4132065,1.667705,-0.2211358,-0.4341408,1.619889,0.08451672,0.2812336,1.548776,0.01181886,-0.03531156,1.693554,0.01083439,-0.3490858,1.669423,-0.1619985,0.1192539,1.659184,-0.06864782,-0.3417118,1.640588,-0.2112691,-0.1191047,1.663639,0.3116495,0.0468899,1.510591,NA,NA,NotTracked,Open,
0.9707031,-0.1708984,0.1176758,-0.8564453,0.5458984,0.06835938,-1,2,3,-2,-3,0,-1,-2,-1,-4,-4,-7,-5,-1,4,12,-4.625,-4.625,-4.625,5.1875,5.1875,5.1875,3.348024,2.827785,6.792886,7.305277,6.619273,5.167093,-0.1844398,-0.418333,1.613014,0.1218573,0.3078476,1.552322,0.005549594,0.4128198,1.66742,-0.2230267,-0.4113443,1.62,0.08491573,0.2790677,1.542336,0.01098847,-0.03532751,1.693516,0.01046367,-0.348979,1.669481,-0.1624619,0.1191465,1.658989,-0.06900211,-0.3416806,1.640751,-0.2120401,-0.1191187,1.66391,0.3110201,0.04756718,1.509971,NA,NA,NotTracked,Unknown,
0.9550781,-0.1796875,0.1152344,-0.8535156,0.6538086,-0.01708984,0,1,-1,-2,-2,-1,1,0,-3,-14,-8,3,-7,1,4,13,0.1875,0.1875,0.1875,32.8125,32.8125,32.8125,3.349229,2.828317,6.786138,7.321711,6.587304,5.145438,-0.1839729,-0.4261563,1.610269,0.1229644,0.305439,1.552193,0.004488321,0.4128073,1.667288,-0.2221074,-0.4214506,1.620327,0.1086601,0.266318,1.5725,0.01015625,-0.03521712,1.693411,0.009823794,-0.3487993,1.669497,-0.1633769,0.1190265,1.659126,-0.06965834,-0.341596,1.640925,-0.21236,-0.1190287,1.664054,0.3113965,0.0483316,1.510292,NA,NA,NotTracked,Unknown,
0.9643555,-0.1298828,0.09912109,-0.6835938,0.65625,0.04833984,1,0,1,1,1,-1,0,0,-25,0,1,3,3,-3,-2,-16,9.125,9.125,9.125,155.75,155.75,155.75,3.355858,2.833263,6.791308,7.377916,6.686022,4.990519,-0.1849178,-0.4259938,1.609417,0.1555366,0.2880832,1.53816,0.002752769,0.4116907,1.668297,-0.22144,-0.4428067,1.61379,0.1805281,0.2720898,1.490394,0.008479795,-0.03511523,1.693558,0.009617403,-0.3480898,1.669481,-0.166843,0.118671,1.66068,-0.06973179,-0.3413078,1.640927,-0.2131968,-0.1197544,1.664086,0.3149158,0.05063933,1.521017,NA,NA,NotTracked,Lasso,
0.9926758,-0.144043,0.137207,-0.7504883,0.3925781,0.07861328,0,0,1,-1,-1,-3,-2,0,6,20,19,8,20,7,16,11,9.75,9.75,9.75,-2.3125,-2.3125,-2.3125,3.378207,2.838034,6.784622,7.177598,6.737787,4.572673,-0.1857843,-0.4255042,1.609787,0.2019641,0.2850973,1.522697,-0.0003903493,0.4107635,1.66994,-0.2243416,-0.4356585,1.618528,0.2330697,0.3082261,1.532474,0.006043779,-0.03612439,1.693785,0.009381928,-0.3483167,1.669445,-0.17033,0.1175937,1.661296,-0.06987672,-0.342003,1.640933,-0.2139956,-0.1210185,1.664585,0.3263191,0.05093625,1.538516,NA,NA,NotTracked,Unknown,
1.001465,-0.1381836,0.1044922,-0.7216797,0.3955078,0.2963867,-1,-1,-6,-2,-1,-1,-2,-2,-11,-7,-4,2,0,3,-6,-12,18.375,18.375,18.375,-57.8125,-57.8125,-57.8125,3.425446,2.832267,6.7805,6.962364,6.659342,4.387278,-0.1863348,-0.4272464,1.611764,0.2540392,0.2732343,1.526633,-0.004245294,0.4110386,1.671509,-0.2265118,-0.4215079,1.6235,0.3070022,0.3113592,1.545546,0.003431951,-0.03730477,1.693928,0.008449945,-0.3495553,1.669394,-0.173527,0.1161031,1.662715,-0.07045606,-0.3440341,1.641077,-0.2150073,-0.1216919,1.665074,0.3332863,0.04157588,1.561604,NA,NA,NotTracked,Unknown,
0.980957,-0.2128906,0.1362305,-0.9262695,-0.2788086,0.1352539,-1,-1,-2,0,0,0,0,-1,-15,-18,-18,-20,-28,-25,-20,-44,4.875,4.875,4.875,41.6875,41.6875,41.6875,3.442927,2.826026,6.777105,6.646867,6.468102,4.209054,-0.1867219,-0.4282734,1.614176,0.2579018,0.2595374,1.503736,-0.007339355,0.4112129,1.672548,-0.2263403,-0.4282007,1.626986,0.3093657,0.3112289,1.531889,0.001491322,-0.03824167,1.693933,0.00714139,-0.3509028,1.669203,-0.1763022,0.1150555,1.664468,-0.07143624,-0.3459497,1.64093,-0.2165664,-0.1236639,1.667231,0.3355972,0.03420025,1.579344,NA,NA,NotTracked,Unknown,
0.9633789,-0.2128906,0.1547852,-1.013184,0.6474609,0.8930664,-1,0,2,-1,0,-1,-2,-4,-4,-24,0,42,2,-3,-7,16,5.3125,5.3125,5.3125,201.125,201.125,201.125,3.440461,2.830033,6.790216,6.887547,6.297235,4.019395,-0.1864168,-0.4294611,1.615587,0.2562723,0.2318465,1.475341,-0.008995199,0.411503,1.673402,-0.2201408,-0.4575326,1.610615,0.2212283,0.2372035,1.524091,0.0007604578,-0.03884916,1.694,0.006534382,-0.3519587,1.669325,-0.1771229,0.1148079,1.66503,-0.07178202,-0.3472846,1.640943,-0.2176757,-0.1244709,1.669365,0.3338335,0.02187699,1.600196,NA,NA,NotTracked,Unknown,
0.9794922,-0.2207031,0.1625977,-0.5512695,1.137695,-0.2138672,-3,-2,-5,-2,-2,1,0,0,-8,10,9,-13,-18,6,14,28,-5.5,-5.5,-5.5,50.9375,50.9375,50.9375,3.422789,2.839998,6.800262,7.1034,6.275767,4.012982,-0.1873076,-0.4291684,1.615404,0.2526382,0.2313443,1.485044,-0.009512681,0.41166,1.6739,-0.2268236,-0.4330016,1.629143,0.2528419,0.2813893,1.478357,0.0002620396,-0.03903052,1.694144,0.006342156,-0.3522235,1.669377,-0.1776441,0.1146863,1.665201,-0.07187159,-0.3475727,1.640894,-0.2182945,-0.1250864,1.670852,0.3332972,0.02050356,1.602507,NA,NA,NotTracked,Unknown,
0.9624023,-0.1489258,0.1352539,-1.069336,0.06591797,0.3051758,-1,-1,-2,1,0,-1,-1,-1,16,11,-2,-7,8,4,8,21,-10.375,-10.375,-10.375,-342.75,-342.75,-342.75,3.422523,2.84645,6.790612,6.683562,6.270336,4.153726,-0.1877547,-0.4284286,1.614571,0.2611885,0.2459397,1.50219,-0.009612167,0.4118102,1.674242,-0.2265876,-0.426904,1.627333,0.3067154,0.2896222,1.5293,0.0001813879,-0.03914308,1.694219,0.006213703,-0.3525352,1.669422,-0.1778719,0.1146993,1.665465,-0.07191505,-0.3479327,1.640816,-0.21872,-0.1258635,1.671584,0.3333578,0.02203108,1.599031,NA,NA,NotTracked,Unknown,
0.980957,-0.184082,0.1171875,-0.8085938,0.824707,0.3735352,0,1,4,-1,0,-2,-1,1,7,76,15,-13,-12,0,5,52,-15.6875,-15.6875,-15.6875,139.75,139.75,139.75,3.398032,2.848224,6.787553,6.708387,6.420428,4.060854,-0.1871463,-0.4272662,1.612347,0.2509349,0.2489025,1.492416,-0.009391383,0.4119091,1.674639,-0.2270801,-0.427177,1.630857,0.2619691,0.2961138,1.476318,0.0001450631,-0.03932675,1.694279,0.006237106,-0.3528562,1.66944,-0.1778252,0.1148875,1.665568,-0.07177796,-0.3482925,1.640637,-0.2188471,-0.1258916,1.671453,0.332528,0.02210271,1.595201,NA,NA,NotTracked,Lasso,
0.9858398,-0.1513672,0.09570313,-0.7675781,0.4555664,0.008789063,0,-2,-2,-3,-1,-1,-1,-2,-55,-38,-4,-15,-10,-12,-42,-54,-3.25,-3.25,-3.25,83.6875,83.6875,83.6875,3.37383,2.847164,6.798162,6.856132,6.475657,4.002058,-0.1868401,-0.4306907,1.610693,0.2463741,0.246009,1.497973,-0.008584407,0.4120514,1.675637,-0.226219,-0.4351218,1.627939,0.2144176,0.2418967,1.514833,0.0002084323,-0.03944814,1.694463,0.006216851,-0.3529758,1.669462,-0.1776313,0.1150389,1.665481,-0.07177885,-0.3484089,1.640477,-0.2186913,-0.1259384,1.671192,0.3319846,0.02185917,1.593895,NA,NA,NotTracked,Unknown,
0.9711914,-0.1386719,0.1098633,-1.05127,0.6210938,0.3959961,-2,-1,-2,0,-2,-1,0,-2,-3,-2,-15,-5,-2,-9,-6,-12,-2.1875,-2.1875,-2.1875,-312.5,-312.5,-312.5,3.367184,2.841517,6.801894,6.723814,6.361002,4.233827,-0.1867668,-0.4303784,1.608846,0.2517002,0.2520872,1.503641,-0.007699356,0.4120385,1.676227,-0.2228391,-0.4496145,1.612625,0.2995552,0.2978237,1.531278,0.0002219774,-0.03958141,1.694616,0.006119458,-0.3532009,1.669442,-0.1758367,0.1155728,1.664451,-0.07187237,-0.3485442,1.640274,-0.2184976,-0.1261289,1.670658,0.3320327,0.02343293,1.589334,NA,NA,NotTracked,Unknown,
0.9638672,-0.2070313,0.1254883,-0.6411133,0.871582,0.378418,0,-1,2,0,-2,-1,-2,-4,15,2,-4,-4,8,1,5,18,-2.9375,-2.9375,-2.9375,166.5,166.5,166.5,3.354238,2.838169,6.806904,6.744333,6.403017,4.121804,-0.1865222,-0.4305582,1.609184,0.2464436,0.2481622,1.495007,-0.006736892,0.4121723,1.676871,-0.2265912,-0.4303994,1.627428,0.2921165,0.2977553,1.537573,0.0003172701,-0.03961945,1.694712,0.006113271,-0.3532639,1.669394,-0.1757627,0.1156258,1.664448,-0.07186557,-0.3485586,1.640047,-0.2185369,-0.126093,1.670362,0.3318878,0.02385015,1.587426,NA,NA,NotTracked,Unknown,
0.9863281,-0.1826172,0.1308594,-0.8276367,0.4667969,0.2895508,-3,-1,0,1,-2,-1,1,-1,3,2,-1,4,-1,0,6,31,-1.6875,-1.6875,-1.6875,-106.25,-106.25,-106.25,3.357459,2.836133,6.808808,6.741589,6.324955,4.190741,-0.1864639,-0.4309356,1.609734,0.2443836,0.2444181,1.492557,-0.005422107,0.4123755,1.677476,-0.2264676,-0.4318138,1.627196,0.2871156,0.2980114,1.533319,0.0004441908,-0.03970187,1.694879,0.006139561,-0.3533708,1.669458,-0.175716,0.1156249,1.664493,-0.0717848,-0.3485954,1.639922,-0.2185409,-0.1262676,1.670098,0.3302819,0.02040216,1.588733,NA,NA,NotTracked,Lasso,
0.9672852,-0.190918,0.1289063,-0.769043,0.6088867,0.362793,-1,0,0,0,1,0,-2,0,8,4,3,1,6,1,4,3,-1.8125,-1.8125,-1.8125,46.125,46.125,46.125,3.354798,2.837047,6.807191,6.707542,6.330391,4.158497,-0.1860891,-0.4303111,1.609182,0.2433188,0.2432447,1.490123,-0.004261429,0.4123849,1.677548,-0.2257717,-0.4517932,1.622,0.2829784,0.2986554,1.526,0.0006071429,-0.03979053,1.694888,0.006137748,-0.35358,1.669325,-0.1754078,0.1158777,1.66452,-0.07177888,-0.3487069,1.639676,-0.2183965,-0.126647,1.669608,0.3323309,0.01865568,1.587429,NA,NA,NotTracked,Unknown,
0.9775391,-0.168457,0.1186523,-0.7446289,0.5786133,0.3466797,-2,-2,2,-3,-2,0,-1,1,3,8,1,0,2,2,-1,-1,-4.5,-4.5,-4.5,-21,-21,-21,3.355014,2.835038,6.802108,6.709791,6.315314,4.158458,-0.1866654,-0.4310332,1.608863,0.2434306,0.2409291,1.486908,-0.003088548,0.4122991,1.677305,-0.2256903,-0.4335072,1.623747,0.2747626,0.2971139,1.512,0.0007436853,-0.03983864,1.694869,0.006232086,-0.3537272,1.669242,-0.1750029,0.1159212,1.664245,-0.07165604,-0.3488101,1.639385,-0.2175093,-0.129138,1.668244,0.3318551,0.01804478,1.58679,NA,NA,NotTracked,Unknown,
0.9750977,-0.1713867,0.1123047,-0.6884766,0.5351563,0.3583984,-1,-4,2,-1,-2,0,1,0,-1,-3,-3,5,0,-3,-5,-3,-3.9375,-3.9375,-3.9375,-3.1875,-3.1875,-3.1875,3.351921,2.832828,6.797988,6.663734,6.301296,4.127756,-0.186428,-0.4307876,1.607694,0.244132,0.2364781,1.482471,-0.001668411,0.4122763,1.676846,-0.2259675,-0.4235441,1.622833,0.2503255,0.2834662,1.473977,0.0009080183,-0.03983319,1.694773,0.006283468,-0.3537455,1.669212,-0.1742163,0.116513,1.663332,-0.07157277,-0.3487816,1.639247,-0.2173763,-0.1288205,1.667456,0.3289844,0.01353768,1.588465,NA,NA,NotTracked,Lasso,
0.9545898,-0.1582031,0.1191406,-0.5458984,0.4711914,0.3876953,-2,-3,1,-1,0,-1,-1,-3,0,2,4,16,6,-1,-1,-2,1.6875,1.6875,1.6875,15.875,15.875,15.875,3.358829,2.831379,6.789854,6.610867,6.268237,4.039771,-0.1859412,-0.4298688,1.608293,0.2480655,0.2190154,1.47455,-0.0007343533,0.4121921,1.676275,-0.226036,-0.4348477,1.623979,0.2700965,0.2415927,1.435462,0.001159105,-0.03985583,1.694556,0.006344413,-0.3537562,1.669125,-0.1727971,0.1172268,1.662214,-0.07148542,-0.3486811,1.63907,-0.2172768,-0.1274518,1.666546,0.3241011,0.005582074,1.591908,NA,NA,NotTracked,Unknown,
0.9755859,-0.1547852,0.1162109,-0.3857422,0.3994141,0.4492188,-3,-3,-6,0,1,-2,-4,1,-1,-3,1,-1,-4,-1,-3,-1,7.0625,7.0625,7.0625,29,29,29,3.367257,2.833452,6.790691,6.543614,6.14828,3.897577,-0.1858061,-0.4294139,1.607661,0.2524844,0.1735652,1.454078,-0.0001776845,0.4121698,1.675773,-0.2262435,-0.4307767,1.625057,0.2755535,0.1838168,1.424154,0.001450983,-0.04001574,1.69434,0.006399075,-0.3539076,1.669093,-0.1725893,0.1174785,1.662256,-0.07142541,-0.3487083,1.639101,-0.2172501,-0.1274261,1.66622,0.3139655,-0.01156732,1.602151,NA,NA,NotTracked,Unknown,
