ALX,ALY,ALZ,ARX,ARY,ARZ,EMG0L,EMG1L,EMG2L,EMG3L,EMG4L,EMG5L,EMG6L,EMG7L,EMG0R,EMG1R,EMG2R,EMG3R,EMG4R,EMG5R,EMG6R,EMG7R,GLX,GLY,GLZ,GRX,GRY,GRZ,ORL,OPL,OYL,ORR,OPR,OYR,LHNX,LHNY,LHNZ,RHNX,RHNY,RHNZ,HX,HY,HZ,LTX,LTY,LTZ,RTX,RTY,RTZ,SpineMidX,SpineMidY,SpineMidZ,SpineBaseX,SpineBaseY,SpineBaseZ,ShoulderLeftX,ShoulderLeftY,ShoulderLeftZ,ShoulderRightX,ShoulderRightY,ShoulderRightZ,ElbowLeftX,ElbowLeftY,ElbowLeftZ,ElbowRightX,ElbowRightY,ElbowRightZ,Myo_Pose_left,Myo_Pose_Right,Kinect_pose_left,Kinect_pose_right
0.9399414,-0.3354492,-0.03955078,0.9213867,0.3120117,0.03613281,-1,-1,0,1,-1,1,-2,-2,0,0,-2,-1,-2,-2,1,0,2.3125,2.3125,2.3125,1.3125,1.3125,1.3125,2.280451,3.033039,9.947336,7.342004,3.008802,1.411319,-0.1430743,-0.4593635,1.516687,0.2515522,-0.4473701,1.516904,0.06845501,0.373976,1.580108,-0.1001241,-0.4308386,1.499217,0.2880874,-0.4415562,1.515649,0.05737,-0.07632648,1.600686,0.05524975,-0.3868906,1.596401,-0.1206256,0.1053517,1.592434,-0.01930121,-0.3791091,1.563476,-0.1550089,-0.159226,1.598224,0.2612753,-0.1616096,1.601404,NA,NA,NotTracked,NotTracked,
0.9438477,-0.3198242,-0.03955078,0.9243164,0.3115234,0.03320313,-2,0,-2,-2,-2,-1,0,-1,0,0,-1,0,2,1,6,3,1.3125,1.3125,1.3125,3.9375,3.9375,3.9375,2.28063,3.032885,9.952092,7.343601,3.008541,1.415122,-0.1434375,-0.4594695,1.516812,0.2512038,-0.4502325,1.515737,0.06840192,0.3738963,1.580103,-0.1007463,-0.4549892,1.498296,0.2830787,-0.4569798,1.503667,0.05731587,-0.07633663,1.600736,0.05516688,-0.3869326,1.596461,-0.1201018,0.1062252,1.593439,-0.01938439,-0.379146,1.563543,-0.1550867,-0.1593402,1.598602,0.2612602,-0.1615972,1.601464,NA,NA,NotTracked,NotTracked,
0.9365234,-0.324707,-0.04003906,0.9208984,0.309082,0.02880859,-2,0,0,-1,-2,0,-1,-1,-2,-1,-1,0,-1,-2,0,0,2,2,2,2.5,2.5,2.5,2.285533,3.033319,9.949267,7.342258,3.008892,1.421667,-0.1436911,-0.4595721,1.516475,0.2513054,-0.4500019,1.515177,0.06826558,0.3738497,1.580127,-0.1000226,-0.433549,1.498077,0.2861325,-0.4535977,1.508837,0.05722493,-0.07637452,1.60076,0.05509172,-0.3869787,1.596511,-0.1197805,0.106709,1.594345,-0.01946272,-0.3792025,1.563622,-0.1551714,-0.1592585,1.598903,0.2612082,-0.1616657,1.601522,NA,NA,NotTracked,NotTracked,
0.9414063,-0.3276367,-0.04541016,0.921875,0.3105469,0.03076172,1,-1,-3,-1,0,0,0,-1,-1,-1,-1,1,1,-2,-2,0,0.1875,0.1875,0.1875,0.875,0.875,0.875,2.287369,3.033649,9.94856,7.343219,3.008924,1.421796,-0.1433384,-0.4566168,1.517153,0.2512492,-0.4496489,1.515601,0.06811062,0.3738073,1.580235,-0.1002589,-0.4395331,1.498547,0.2851439,-0.4535747,1.507332,0.05719272,-0.07639159,1.600818,0.05505147,-0.3869816,1.59652,-0.1194024,0.1068808,1.59506,-0.01951247,-0.379207,1.56365,-0.1551559,-0.1596405,1.599145,0.2611906,-0.1616697,1.601535,NA,NA,NotTracked,NotTracked,
0.9418945,-0.3227539,-0.0390625,0.9257813,0.3100586,0.03271484,-1,1,-1,-1,-1,-2,0,-1,0,-1,-1,0,0,0,0,-1,0.25,0.25,0.25,-0.1875,-0.1875,-0.1875,2.287739,3.033892,9.948824,7.343601,3.00939,1.42209,-0.1431195,-0.4597263,1.517571,0.251111,-0.4498622,1.51603,0.06806373,0.3738524,1.580301,-0.0997888,-0.4441704,1.498441,0.2868065,-0.4458233,1.512353,0.05714028,-0.07637687,1.600874,0.05501197,-0.3869758,1.596562,-0.1191688,0.1072119,1.59548,-0.01955946,-0.3792056,1.563738,-0.1551736,-0.1596229,1.599334,0.2611794,-0.1617111,1.601552,NA,NA,NotTracked,NotTracked,
0.9428711,-0.3237305,-0.04003906,0.9350586,0.2944336,0.01806641,0,-2,0,-1,-2,-2,-3,-1,-1,-1,-2,-2,-3,-1,-1,1,0.9375,0.9375,0.9375,-1.625,-1.625,-1.625,2.287739,3.033892,9.948824,7.344381,3.009283,1.420029,-0.1433848,-0.4595139,1.517671,0.2514142,-0.4496351,1.516241,0.06802213,0.3739587,1.580481,-0.1001396,-0.4395733,1.498881,0.2897304,-0.4555238,1.523572,0.05711885,-0.07630513,1.601025,0.05498856,-0.3869477,1.596671,-0.1190372,0.1076092,1.596031,-0.01957074,-0.3791744,1.563873,-0.1551923,-0.1595436,1.599519,0.2611568,-0.1616941,1.601602,NA,NA,NotTracked,NotTracked,
0.9433594,-0.3310547,-0.04345703,0.9838867,0.3608398,0.07080078,0,-1,-3,-1,-1,0,-1,0,-16,-21,-16,-11,-10,-36,-18,-15,-1.0625,-1.0625,-1.0625,8.625,8.625,8.625,2.287399,3.034014,9.948873,7.338931,3.014949,1.431133,-0.143351,-0.4593111,1.516788,0.2501372,-0.4491186,1.513548,0.06792396,0.3739758,1.580651,-0.1000907,-0.4366916,1.499186,0.2838041,-0.4575335,1.508026,0.05708468,-0.07629748,1.601071,0.05496724,-0.3869485,1.596688,-0.1189612,0.1077112,1.596156,-0.01959123,-0.3791768,1.56388,-0.1551915,-0.1595745,1.599609,0.2611671,-0.1614374,1.601977,NA,NA,NotTracked,NotTracked,
0.9262695,-0.3032227,-0.046875,1.216797,0.2827148,0.01757813,-1,-1,0,-1,0,0,0,0,-43,-16,-18,3,-12,-11,-15,-4,-0.875,-0.875,-0.875,41.5625,41.5625,41.5625,2.2868,3.032699,9.948769,7.202413,3.054147,1.606407,-0.1431845,-0.4622343,1.517492,0.2330933,-0.4374944,1.484306,0.06788675,0.3739722,1.580734,-0.1018406,-0.4635445,1.497633,0.2624546,-0.4366428,1.466833,0.05693533,-0.0762856,1.601134,0.05482265,-0.3869334,1.596708,-0.1188766,0.1077753,1.596308,-0.01977571,-0.3791349,1.563878,-0.1552922,-0.159574,1.599743,0.2632127,-0.1559279,1.607178,NA,NA,NotTracked,NotTracked,
0.9448242,-0.3598633,-0.01464844,1.039551,0.8208008,0.6225586,-2,-1,-1,-2,-2,0,-3,-2,-8,16,-30,-30,-4,-11,3,1,-35.125,-35.125,-35.125,67.375,67.375,67.375,2.240465,3.017881,9.945661,6.5954,3.596769,2.536685,-0.1428535,-0.462512,1.51719,0.1883257,-0.3712035,1.430194,0.06790652,0.3739711,1.580644,-0.1000572,-0.4520844,1.49981,0.2160317,-0.3974312,1.43575,0.05632941,-0.07619791,1.600961,0.05225525,-0.3866059,1.596262,-0.1187371,0.1078264,1.596163,-0.02280043,-0.3780723,1.563202,-0.1552171,-0.1589812,1.599819,0.2682609,-0.1342732,1.61921,NA,NA,NotTracked,NotTracked,
0.9550781,-0.3798828,-0.03466797,0.4418945,0.6113281,0.4824219,0,-1,-1,1,-1,-3,-1,-1,-1,-5,-1,-1,-4,6,6,6,-12.875,-12.875,-12.875,31.625,31.625,31.625,2.206152,3.014528,9.93992,6.463382,4.137683,2.8783,-0.1434247,-0.4609671,1.520885,0.1029039,-0.2815932,1.390189,0.06855559,0.3737073,1.580319,-0.1001023,-0.4388336,1.503539,0.09674387,-0.3571864,1.403889,0.05668944,-0.07629637,1.60119,0.05313734,-0.3868052,1.596843,-0.1178726,0.1081005,1.595312,-0.02136282,-0.3781927,1.563622,-0.1549602,-0.1581931,1.599566,0.2742244,-0.1137855,1.615372,NA,NA,NotTracked,Unknown,
0.9658203,-0.2714844,-0.06884766,0.0859375,0.5722656,0.4492188,0,-1,-1,0,-2,-2,0,-1,-6,-1,-8,-2,-1,-22,-11,-1,-1.25,-1.25,-1.25,20.375,20.375,20.375,2.212032,3.020624,9.929702,6.431849,4.646191,3.091199,-0.1423906,-0.4601725,1.518568,0.04977342,-0.1727622,1.369259,0.06990211,0.3737189,1.58006,-0.1001571,-0.4351681,1.5045,0.03964558,-0.2317021,1.413156,0.05696347,-0.0762811,1.601539,0.05347551,-0.3866239,1.597301,-0.1159808,0.1082714,1.593835,-0.02100236,-0.3780325,1.563841,-0.1546783,-0.1569139,1.598557,0.2767351,-0.1038108,1.583323,NA,NA,NotTracked,Closed,
0.9516602,-0.2900391,-0.03173828,0.04980469,0.472168,0.4165039,-1,-1,-1,0,-1,-2,-1,-2,28,7,-2,1,1,9,5,-1,-1.0625,-1.0625,-1.0625,24.5625,24.5625,24.5625,2.268473,3.036335,9.863424,6.4449,4.998904,3.263566,-0.1397404,-0.4622928,1.511831,0.02621266,-0.09633922,1.35883,0.07218225,0.3734078,1.579815,-0.09680909,-0.446147,1.49747,-0.0204454,-0.1190961,1.395929,0.05789816,-0.07590205,1.602412,0.05442719,-0.3854085,1.598095,-0.1133769,0.1092186,1.592966,-0.01971428,-0.376761,1.564384,-0.153911,-0.1552238,1.597134,0.2948814,-0.1227384,1.54556,NA,NA,NotTracked,Unknown,
0.9321289,-0.3032227,-0.05029297,-0.03320313,0.5581055,0.4604492,0,-1,0,-2,-2,0,0,-2,27,20,2,-4,-1,0,-3,8,3.125,3.125,3.125,51.75,51.75,51.75,2.304909,3.043126,9.82874,6.536094,5.220696,3.456162,-0.1372118,-0.4632996,1.506486,-0.004794422,-0.06535275,1.352799,0.07427721,0.3730464,1.580106,-0.09798325,-0.4637392,1.489892,-0.05415282,-0.1045035,1.328941,0.05891258,-0.07584679,1.603107,0.05550822,-0.3845584,1.598509,-0.1130029,0.109264,1.592926,-0.01819257,-0.3757868,1.564737,-0.153555,-0.1556049,1.596077,0.2770927,-0.1224476,1.512307,NA,NA,NotTracked,Open,
0.9360352,-0.2954102,-0.08984375,0.01708984,0.7211914,0.4941406,-1,-2,-1,-1,-1,-2,0,-2,3,0,-2,-5,-6,-1,-1,-3,6.5625,6.5625,6.5625,32.6875,32.6875,32.6875,2.312526,3.041097,9.831225,6.610553,5.22741,3.540344,-0.1336191,-0.4658257,1.506293,-0.03014793,-0.06019726,1.345916,0.07576627,0.3724462,1.580948,-0.09697267,-0.4611177,1.491644,-0.07505494,-0.06576164,1.292143,0.05976615,-0.07566749,1.603998,0.05628551,-0.3838972,1.59896,-0.1126303,0.1092972,1.593135,-0.01718507,-0.3749606,1.565304,-0.1530069,-0.1581869,1.594436,0.263413,-0.104491,1.511162,NA,NA,NotTracked,Unknown,
0.9350586,-0.3266602,-0.08007813,0.1386719,0.8764648,0.5,1,-1,-2,0,0,-1,-1,0,-68,-31,-15,-7,-6,-1,0,-20,14.5,14.5,14.5,25.9375,25.9375,25.9375,2.300147,3.037776,9.869737,6.664691,5.179913,3.561356,-0.134082,-0.4609883,1.508907,-0.04205796,-0.06424139,1.337537,0.0763431,0.3724016,1.58116,-0.09396505,-0.4472855,1.493236,-0.07860813,-0.1099556,1.3225,0.06035971,-0.07551254,1.604431,0.05688164,-0.3833205,1.599203,-0.1120835,0.10954,1.593782,-0.01642601,-0.3743093,1.565596,-0.1522713,-0.1617205,1.592518,0.2609304,-0.1022078,1.508494,NA,NA,NotTracked,Unknown,
0.9311523,-0.3359375,-0.04980469,0.07763672,0.8613281,0.5258789,1,0,-1,-1,-2,-1,1,-1,27,10,5,1,-1,3,3,6,-1.8125,-1.8125,-1.8125,-0.4375,-0.4375,-0.4375,2.267246,3.032453,9.911829,6.66607,5.138716,3.553908,-0.134376,-0.4667346,1.511929,0.01572485,-0.07668429,1.351422,0.07645334,0.3723422,1.581172,-0.09726163,-0.4807715,1.489593,-0.01737415,-0.09769782,1.315812,0.06053759,-0.07546692,1.604647,0.05709245,-0.3829597,1.599428,-0.1118926,0.1095043,1.594336,-0.0160924,-0.3738998,1.565896,-0.1525088,-0.1635577,1.592907,0.2606593,-0.1013497,1.507841,NA,NA,NotTracked,Unknown,
0.9404297,-0.3613281,-0.02050781,0.2871094,0.9892578,0.7094727,-1,-1,0,-2,0,1,-2,-2,2,-15,-4,-5,-2,1,-2,-2,-9,-9,-9,-15.0625,-15.0625,-15.0625,2.22406,3.024082,9.946995,6.639635,5.107125,3.520558,-0.1364954,-0.4594689,1.516419,0.02180928,-0.07855997,1.346855,0.07647119,0.3722793,1.581125,-0.09178233,-0.4425064,1.49645,-0.01761618,-0.1007054,1.308471,0.06058217,-0.07553044,1.604859,0.05705812,-0.3829176,1.599597,-0.1118106,0.10948,1.594548,-0.01607304,-0.3738867,1.566035,-0.1525919,-0.1638496,1.59341,0.260626,-0.1010627,1.507486,NA,NA,NotTracked,Unknown,
0.9599609,-0.3613281,-0.0625,-0.7807617,0.9423828,0.04003906,-2,-3,-1,-3,-1,-1,-1,-2,-23,8,14,0,2,3,2,1,4.125,4.125,4.125,18.1875,18.1875,18.1875,2.174505,3.018307,9.988999,6.721331,5.202537,3.465284,-0.1395737,-0.4607191,1.520657,0.003439679,-0.06954557,1.332212,0.07644996,0.3721986,1.581017,-0.09258702,-0.4676543,1.496875,-0.04698876,-0.06937653,1.4005,0.06051758,-0.07554761,1.604997,0.05667274,-0.3827901,1.599897,-0.1117631,0.1095252,1.594575,-0.01630014,-0.3737802,1.566239,-0.1527638,-0.1629506,1.594559,0.2766697,-0.1128387,1.499726,NA,NA,NotTracked,Unknown,
0.9335938,-0.2871094,-0.09033203,0.08056641,1.18457,-0.1098633,1,-1,-3,-1,-1,-3,-1,-2,32,25,1,4,-5,-3,12,7,27.1875,27.1875,27.1875,8.8125,8.8125,8.8125,2.195514,3.025265,0.003434921,6.764985,5.200949,3.38261,-0.1425339,-0.457619,1.521548,0.02820474,-0.05399897,1.326906,0.07644414,0.3720426,1.580717,-0.09619478,-0.4334484,1.4996,-0.01796706,-0.09177396,1.3415,0.06037013,-0.07562293,1.605211,0.05631289,-0.3827342,1.600238,-0.1118364,0.1095416,1.594607,-0.01656536,-0.3737765,1.56651,-0.1532695,-0.1599376,1.596438,0.2903013,-0.1162115,1.499551,NA,NA,NotTracked,Unknown,
0.9223633,-0.2607422,-0.06787109,-0.4106445,1.09375,0.05078125,-2,1,-1,-1,-1,0,-1,-1,-40,-9,-15,-13,-78,-16,-15,10,21.875,21.875,21.875,37.6875,37.6875,37.6875,2.239381,3.036538,0.0006408222,6.769584,5.239283,3.183217,-0.1440954,-0.4607124,1.518816,0.102001,-0.04031396,1.327658,0.07594228,0.3719199,1.580285,-0.0974676,-0.4530895,1.498712,0.04523823,-0.06537383,1.365667,0.06013382,-0.07568616,1.605269,0.05587717,-0.3827448,1.600433,-0.1121395,0.1097189,1.594734,-0.0170519,-0.3738496,1.56679,-0.1539556,-0.1588713,1.597253,0.3094173,-0.1051933,1.514292,NA,NA,NotTracked,Unknown,
0.9350586,-0.3183594,-0.02148438,-0.02148438,0.9033203,0.5322266,-3,-1,-1,-2,-1,-1,0,-1,55,15,8,4,56,33,13,22,16.5625,16.5625,16.5625,29.125,29.125,29.125,2.273113,3.045792,0.005701445,6.761103,5.285337,2.841144,-0.145349,-0.463566,1.5159,0.2026776,-0.03457537,1.321217,0.07364123,0.371646,1.578382,-0.1004684,-0.4743247,1.495467,0.1791438,-0.00123108,1.315667,0.05919972,-0.07598674,1.604942,0.0547455,-0.3834136,1.600221,-0.1132093,0.1095757,1.595223,-0.01870303,-0.3748267,1.566969,-0.1559384,-0.1573069,1.599238,0.3249045,-0.09497959,1.517492,NA,NA,NotTracked,Closed,
0.9086914,-0.2509766,-0.04882813,-0.3129883,0.5014648,1.074219,-1,1,-2,-1,-1,-2,-1,-1,3,14,-14,19,23,9,-2,-2,-3.6875,-3.6875,-3.6875,116.4375,116.4375,116.4375,2.246975,3.030167,0.04899033,6.831081,5.272861,2.308773,-0.1491801,-0.4608105,1.51921,0.2927833,-0.03507128,1.327227,0.07011495,0.3711497,1.575844,-0.1042687,-0.4389919,1.499419,0.2315413,-0.04942486,1.34104,0.05707721,-0.07643992,1.603927,0.05215226,-0.3844001,1.599435,-0.1144035,0.1093679,1.595838,-0.02173724,-0.3758803,1.566446,-0.1568622,-0.157465,1.600394,0.3643288,-0.1095612,1.549646,NA,NA,NotTracked,Unknown,
0.9628906,-0.3920898,-0.003417969,-0.2509766,0.3183594,0.909668,-1,-2,-2,0,0,-2,-3,-1,35,75,40,15,9,-1,2,12,-25.8125,-25.8125,-25.8125,86.125,86.125,86.125,2.169904,3.004492,0.08527455,6.896296,5.239558,2.046355,-0.1527668,-0.4584115,1.527212,0.3415043,-0.04074813,1.331009,0.06760402,0.3712355,1.574658,-0.10817,-0.4593247,1.504467,0.2813179,-0.05539732,1.348444,0.05506988,-0.07664453,1.603101,0.04920837,-0.3848853,1.598847,-0.1150563,0.1092114,1.595959,-0.0248619,-0.3762391,1.566096,-0.1578447,-0.1569923,1.602087,0.3849431,-0.1063995,1.587196,NA,NA,NotTracked,Unknown,
0.9677734,-0.4169922,-0.05712891,-0.2568359,0.7416992,0.7568359,-1,-1,-3,-1,-1,-2,-1,1,17,9,-7,-7,13,1,-4,3,15.0625,15.0625,15.0625,2.8125,2.8125,2.8125,2.126298,2.996902,0.1314272,6.901505,5.211242,1.957102,-0.1537922,-0.4560857,1.533339,0.3460675,-0.04719375,1.336016,0.06604218,0.3715136,1.57364,-0.109104,-0.4281736,1.508348,0.2872467,-0.05749458,1.337061,0.05389098,-0.07691,1.602749,0.04733824,-0.3854265,1.598762,-0.1156175,0.1089133,1.595657,-0.02676128,-0.3767093,1.565978,-0.1584001,-0.1571344,1.60261,0.3835604,-0.1071573,1.592323,NA,NA,NotTracked,Closed,
0.9248047,-0.2807617,-0.06396484,-0.1293945,0.7128906,0.4853516,-1,-2,-1,-2,-3,-1,-1,-2,0,-9,-15,-1,22,3,5,11,7.25,7.25,7.25,-19.5625,-19.5625,-19.5625,2.19223,3.005971,0.08846567,6.829624,5.187649,1.94778,-0.1540085,-0.4562526,1.530529,0.3389481,-0.0559684,1.336859,0.06560385,0.3714058,1.573225,-0.1096499,-0.4419021,1.50898,0.2786683,-0.05821399,1.34132,0.05319133,-0.07714854,1.602495,0.04675099,-0.385766,1.59874,-0.1160891,0.1088849,1.595498,-0.02738919,-0.3770582,1.565788,-0.1585223,-0.1571815,1.602779,0.3466137,-0.0618456,1.627179,NA,NA,NotTracked,Unknown,
0.9306641,-0.3139648,-0.02099609,-0.2075195,1.034668,0.3608398,-1,0,-1,-1,-1,0,-1,0,-27,-38,-17,-3,-7,-7,-6,-7,-6.5625,-6.5625,-6.5625,-12.9375,-12.9375,-12.9375,2.23787,3.020756,0.03389401,6.824555,5.17162,1.949665,-0.1518739,-0.4516917,1.526963,0.333733,-0.06257094,1.33542,0.0652167,0.3712485,1.572886,-0.1158641,-0.4659921,1.500379,0.2731051,-0.07115012,1.347375,0.05300509,-0.0772986,1.602358,0.04676203,-0.38603,1.598668,-0.1163685,0.1086862,1.595182,-0.02739689,-0.3775353,1.565354,-0.1586257,-0.1571386,1.602912,0.3444088,-0.06376041,1.626619,NA,NA,NotTracked,Closed,
0.9482422,-0.2563477,-0.07275391,-0.02685547,0.8852539,0.3994141,-3,0,-2,-1,-1,-1,-5,-1,-10,3,14,23,15,10,7,3,9.25,9.25,9.25,-4.5,-4.5,-4.5,2.263282,3.026728,0.02242142,6.790153,5.129358,1.946262,-0.1504705,-0.460747,1.52137,0.3318611,-0.07037472,1.33506,0.06509169,0.3711682,1.572754,-0.109952,-0.4398963,1.503712,0.2723494,-0.07750911,1.350572,0.0529497,-0.0774402,1.602162,0.04694087,-0.3862183,1.598535,-0.1165017,0.1085638,1.595084,-0.02724452,-0.3777669,1.565074,-0.1586009,-0.1571804,1.60287,0.3421492,-0.06554295,1.626418,NA,NA,NotTracked,Closed,
0.9511719,-0.2792969,-0.05712891,0.006835938,0.7304688,0.4013672,-2,-2,-2,-1,-1,1,1,0,-13,-13,-3,-5,-5,-4,9,-5,0.4375,0.4375,0.4375,-20.0625,-20.0625,-20.0625,2.261976,3.022909,0.02580665,6.768535,5.036109,1.936769,-0.1499505,-0.4601055,1.519549,0.3251337,-0.09152926,1.334779,0.06492367,0.3713379,1.572802,-0.1144765,-0.4677087,1.494935,0.2799354,-0.1134038,1.3688,0.0529163,-0.07743032,1.602081,0.04702918,-0.3862134,1.598494,-0.1167082,0.1084892,1.595115,-0.02716285,-0.3777495,1.564976,-0.1585181,-0.1572151,1.60279,0.3493004,-0.06140326,1.624516,NA,NA,NotTracked,Closed,
0.9375,-0.2993164,-0.05322266,0.02392578,0.4404297,0.4536133,-1,-1,-2,-1,-2,-1,0,-1,-5,-8,-2,5,-2,-5,-14,-6,0,0,0,-28.4375,-28.4375,-28.4375,2.260551,3.015614,0.02689835,6.703929,4.863821,1.926914,-0.148091,-0.4571327,1.52141,0.3152502,-0.1394627,1.341522,0.0648017,0.3714131,1.572648,-0.1048127,-0.4297185,1.501061,0.2572534,-0.1218978,1.348571,0.05292834,-0.07740217,1.602034,0.047236,-0.3861374,1.598448,-0.1167244,0.1084764,1.595113,-0.0269874,-0.3776597,1.564963,-0.158267,-0.1574147,1.602805,0.3546503,-0.07117923,1.633808,NA,NA,NotTracked,Closed,
0.9433594,-0.3574219,-0.05273438,0.2036133,0.4790039,0.4990234,0,-2,-1,-2,-1,0,-1,-1,5,6,0,4,12,0,-6,3,-7.3125,-7.3125,-7.3125,-2.3125,-2.3125,-2.3125,2.244952,3.008022,0.03253467,6.685476,4.57094,1.932501,-0.1470483,-0.4548361,1.525856,0.3087331,-0.2204355,1.354264,0.06469222,0.3714998,1.572787,-0.1053325,-0.442179,1.503217,0.279612,-0.2586522,1.353,0.0529837,-0.07733709,1.602017,0.04771788,-0.386026,1.598515,-0.116774,0.1084253,1.595221,-0.02658558,-0.3775604,1.564917,-0.1579892,-0.1575809,1.603114,0.3608207,-0.1006775,1.622868,NA,NA,NotTracked,Unknown,
0.956543,-0.3647461,-0.03515625,0.3857422,0.6762695,0.4599609,-2,-3,-2,-1,-2,-1,-1,-3,4,1,-2,2,11,8,11,7,-4.75,-4.75,-4.75,71.1875,71.1875,71.1875,2.241759,3.010039,0.0251501,6.751765,4.067627,1.963766,-0.146595,-0.4549513,1.526601,0.3039473,-0.3147267,1.385762,0.06453682,0.3715882,1.572953,-0.1045109,-0.4362832,1.507083,0.3329066,-0.3317828,1.395556,0.0530858,-0.07733382,1.602079,0.04858484,-0.3861667,1.598809,-0.1167949,0.1083664,1.595315,-0.02577567,-0.3777658,1.565154,-0.157436,-0.1575343,1.603366,0.3113305,-0.1149694,1.636339,NA,NA,NotTracked,Unknown,
0.9716797,-0.3125,-0.0390625,0.8149414,0.9482422,0.2983398,-3,-1,-2,-1,-1,-1,-2,-2,-1,-2,3,-1,3,0,-1,-16,-7.0625,-7.0625,-7.0625,-3.5625,-3.5625,-3.5625,2.246306,3.015559,0.008581784,6.899324,3.649542,1.830935,-0.1460505,-0.4547604,1.525733,0.3004966,-0.3953134,1.435646,0.06442206,0.3714089,1.573185,-0.1054098,-0.4431567,1.505615,0.3131177,-0.4057106,1.390408,0.05343095,-0.07748698,1.602153,0.04970016,-0.3866695,1.599079,-0.116856,0.1081408,1.595442,-0.02468837,-0.3784156,1.565381,-0.15689,-0.1578301,1.603437,0.2962617,-0.130754,1.623216,NA,NA,NotTracked,Closed,
0.965332,-0.3154297,-0.05859375,1.507324,0.6108398,0.175293,-1,-1,0,-1,-1,0,-1,0,3,2,4,2,0,-2,8,-12,-1.3125,-1.3125,-1.3125,-104.25,-104.25,-104.25,2.247985,3.021152,9.997978,7.137163,3.245243,1.374057,-0.1426954,-0.4677115,1.521038,0.2947386,-0.4546352,1.486081,0.06446831,0.3713393,1.573444,-0.1070276,-0.4730769,1.4983,0.3089407,-0.473507,1.441968,0.05444427,-0.07787214,1.602562,0.05223626,-0.3878113,1.599993,-0.1168034,0.1078653,1.595503,-0.02209205,-0.3796636,1.566293,-0.1558418,-0.1595388,1.60286,0.2715309,-0.1554912,1.592933,NA,NA,NotTracked,NotTracked,
0.8945313,-0.2519531,-0.09130859,1.018066,0.5019531,-0.5991211,0,-1,-1,0,-2,-1,-2,-2,-3,-15,-7,-3,-1,2,-1,0,15.5,15.5,15.5,-91.3125,-91.3125,-91.3125,2.275032,3.027389,9.988395,7.791335,2.977012,0.509421,-0.1418456,-0.4672334,1.518663,0.2709892,-0.4699395,1.52214,0.06504488,0.371391,1.573945,-0.1052361,-0.4708566,1.498317,0.3050333,-0.4833936,1.503333,0.05679754,-0.07824993,1.603261,0.056155,-0.3884767,1.601017,-0.1165889,0.1078978,1.595723,-0.01820409,-0.3804875,1.567383,-0.1548102,-0.1607488,1.602155,0.2627765,-0.1619565,1.583103,NA,NA,NotTracked,NotTracked,
0.9433594,-0.284668,-0.04248047,1.064941,0.4526367,0.08349609,-1,-1,-1,0,0,-1,-1,-1,3,7,-3,-1,-1,-3,-1,-5,-4.5625,-4.5625,-4.5625,-182.0625,-182.0625,-182.0625,2.291572,3.028078,9.978738,7.382802,2.972908,0.6850715,-0.1404741,-0.4669426,1.516584,0.2531673,-0.4568232,1.523727,0.06603396,0.3715336,1.574658,-0.09731788,-0.4526694,1.500212,0.2848552,-0.4557129,1.518278,0.05722003,-0.07824659,1.603472,0.05653653,-0.3884859,1.60126,-0.1163935,0.1078745,1.59606,-0.0178998,-0.3804882,1.567621,-0.154354,-0.1610713,1.602028,0.2600232,-0.1625503,1.588342,NA,NA,NotTracked,NotTracked,
0.9321289,-0.3974609,-0.04785156,0.7094727,0.1577148,0.1972656,-3,-2,-2,0,-1,-1,-2,-2,2,-9,0,-3,-3,-1,0,-3,-20.5625,-20.5625,-20.5625,139.3125,139.3125,139.3125,2.235223,3.019077,9.992568,7.096019,3.000063,1.005552,-0.1400222,-0.4604633,1.518783,0.2537169,-0.4537473,1.520153,0.06664679,0.3716587,1.574821,-0.09610499,-0.441864,1.498407,0.2879505,-0.4507238,1.505862,0.05756474,-0.0782055,1.603452,0.05664716,-0.38838,1.601305,-0.1162525,0.1077945,1.596141,-0.01781649,-0.3804317,1.567691,-0.153964,-0.1607942,1.60193,0.2600202,-0.1619432,1.595165,NA,NA,NotTracked,NotTracked,
0.9506836,-0.355957,-0.08691406,0.8442383,0.4912109,0.08251953,-2,0,-3,-2,-1,-1,-1,-2,-1,-4,3,2,0,-3,-5,1,10.0625,10.0625,10.0625,168.6875,168.6875,168.6875,2.21705,3.024841,0.0103915,7.285214,3.021036,1.137769,-0.1405581,-0.4582061,1.521088,0.2599212,-0.4555815,1.516232,0.06732766,0.3716731,1.574878,-0.09626926,-0.4407282,1.498593,0.2773599,-0.4656477,1.468643,0.05796451,-0.07823569,1.603644,0.05678714,-0.3883517,1.601418,-0.1161031,0.1078488,1.596248,-0.01764809,-0.3803943,1.56782,-0.1537778,-0.1607487,1.60191,0.2600828,-0.162813,1.597871,NA,NA,NotTracked,NotTracked,
0.9316406,-0.2836914,-0.04296875,0.9819336,0.3447266,0.006347656,0,-1,0,-1,1,-1,-2,0,-4,-7,0,-1,-3,0,-2,-3,3.375,3.375,3.375,28.9375,28.9375,28.9375,2.24312,3.033722,9.994653,7.37502,3.06885,1.181867,-0.1422191,-0.4580028,1.520169,0.2669814,-0.45925,1.507896,0.06796961,0.3716956,1.575119,-0.09731519,-0.4361647,1.499657,0.286283,-0.4713673,1.463108,0.05806547,-0.07825051,1.603716,0.05679534,-0.3883661,1.601446,-0.116074,0.1078842,1.596283,-0.01763383,-0.3803812,1.567823,-0.1537083,-0.1606814,1.601849,0.2610192,-0.1627821,1.598915,NA,NA,NotTracked,NotTracked,
0.9423828,-0.3276367,-0.01464844,0.9443359,0.2011719,0.06152344,-1,-1,-2,-1,0,-3,-1,-2,-1,2,1,1,0,0,-5,-2,0.875,0.875,0.875,31.6875,31.6875,31.6875,2.261038,3.042006,9.974314,7.369985,3.072546,1.230959,-0.1430071,-0.4577594,1.517568,0.2707677,-0.4568185,1.503221,0.06842603,0.3718736,1.575607,-0.09800579,-0.437019,1.499032,0.3004633,-0.465084,1.479267,0.05811477,-0.07828021,1.603745,0.05675839,-0.3883986,1.60144,-0.1160584,0.1078976,1.596296,-0.01765557,-0.3803821,1.5678,-0.1537864,-0.1606143,1.601656,0.262778,-0.1619735,1.600168,NA,NA,NotTracked,NotTracked,
0.9545898,-0.2895508,-0.04736328,0.9267578,0.3398438,0.04785156,-3,0,-1,-2,-1,-3,-1,-2,-1,4,2,2,-2,-1,-6,-1,6.6875,6.6875,6.6875,1.9375,1.9375,1.9375,2.268737,3.038232,9.978739,7.362932,3.074733,1.299863,-0.143398,-0.4579211,1.518206,0.2709904,-0.4582306,1.502995,0.06834266,0.3720348,1.576306,-0.09671715,-0.4700243,1.498,0.2815588,-0.4658878,1.460146,0.05809937,-0.07828286,1.603797,0.05672956,-0.3883973,1.601418,-0.1161185,0.1078908,1.596385,-0.01765952,-0.3803631,1.567722,-0.1538621,-0.1606809,1.601552,0.2635569,-0.1614399,1.601464,NA,NA,NotTracked,NotTracked,
0.9423828,-0.3120117,-0.04785156,0.8984375,0.2866211,0.05029297,-2,-1,-2,-1,-1,0,-1,1,1,1,1,-1,-2,-1,4,-1,1.8125,1.8125,1.8125,-5.1875,-5.1875,-5.1875,2.286301,3.030988,9.96618,7.327693,3.062936,1.324187,-0.1433572,-0.4575143,1.518223,0.2673915,-0.4589011,1.505055,0.06822589,0.372136,1.576872,-0.09761929,-0.4513872,1.497038,0.2860078,-0.4734952,1.461815,0.05806865,-0.07828251,1.603826,0.05671555,-0.3883887,1.601395,-0.1162321,0.1078019,1.596603,-0.01766433,-0.3803568,1.56771,-0.153912,-0.1607857,1.601426,0.2641467,-0.1613553,1.602202,NA,NA,NotTracked,NotTracked,
0.9326172,-0.3505859,-0.046875,0.9140625,0.3491211,0.02880859,-2,0,-2,-1,-1,-2,-2,-3,0,-5,1,3,0,-1,-1,-1,2.3125,2.3125,2.3125,6,6,6,2.293006,3.028905,9.961706,7.334835,3.046917,1.333324,-0.1420253,-0.4605328,1.517877,0.264207,-0.4569486,1.510569,0.06798092,0.3723739,1.577591,-0.09697574,-0.4498976,1.497098,0.2997045,-0.4448668,1.510056,0.05802798,-0.07824592,1.60388,0.05667453,-0.3883696,1.601374,-0.1165281,0.1077267,1.596995,-0.01770078,-0.3803344,1.567709,-0.1539933,-0.1608176,1.601441,0.2641394,-0.1614214,1.60288,NA,NA,NotTracked,NotTracked,
0.9360352,-0.3491211,-0.05273438,0.9316406,0.3193359,0.03320313,-2,-1,-1,-1,0,1,1,0,-1,-3,-2,-1,1,0,-6,-6,3.625,3.625,3.625,0.9375,0.9375,0.9375,2.291613,3.03118,9.968815,7.336315,3.032776,1.331878,-0.1430212,-0.4577952,1.520022,0.2594746,-0.4559077,1.517683,0.06771698,0.3724346,1.578088,-0.09800076,-0.4478886,1.498511,0.2920034,-0.460393,1.498607,0.05796377,-0.07817485,1.603904,0.0565851,-0.3882799,1.601299,-0.1167778,0.1076969,1.597382,-0.01779705,-0.3802524,1.567647,-0.1540372,-0.1609964,1.601572,0.2638105,-0.1616204,1.603326,NA,NA,NotTracked,NotTracked,
0.9414063,-0.3354492,-0.03369141,0.9169922,0.3540039,0.02490234,-1,-1,-3,-2,-1,-1,0,-3,-3,-8,-5,-2,-3,0,1,-2,-3.125,-3.125,-3.125,-0.125,-0.125,-0.125,2.285917,3.032392,9.973028,7.343891,3.023335,1.329685,-0.1431602,-0.4605464,1.518025,0.2568459,-0.4530524,1.518792,0.06752566,0.3724987,1.578356,-0.09853627,-0.4588236,1.497896,0.2922517,-0.4494377,1.5115,0.0578986,-0.07814015,1.603886,0.0564566,-0.388243,1.601118,-0.1169165,0.1075616,1.597489,-0.01791982,-0.3802249,1.567505,-0.1541088,-0.1611789,1.601631,0.2634332,-0.1616453,1.603687,NA,NA,NotTracked,NotTracked,
0.9501953,-0.3095703,-0.04101563,0.9160156,0.3222656,0.04199219,-4,-2,-3,-1,1,0,-2,-1,-2,-1,2,-1,-1,-1,-3,1,-1.0625,-1.0625,-1.0625,-1.5625,-1.5625,-1.5625,2.284889,3.032545,9.972629,7.336541,3.015218,1.330228,-0.1441543,-0.4567896,1.518958,0.253762,-0.4524461,1.520655,0.0673214,0.3725096,1.5786,-0.1000239,-0.4379227,1.49936,0.2886044,-0.4581035,1.513625,0.05776103,-0.0781616,1.603843,0.05627026,-0.3882789,1.60097,-0.1171912,0.1072693,1.597673,-0.01812464,-0.3802736,1.567381,-0.1542756,-0.161324,1.601645,0.2629222,-0.1619211,1.603949,NA,NA,NotTracked,NotTracked,
