ALX,ALY,ALZ,ARX,ARY,ARZ,EMG0L,EMG1L,EMG2L,EMG3L,EMG4L,EMG5L,EMG6L,EMG7L,EMG0R,EMG1R,EMG2R,EMG3R,EMG4R,EMG5R,EMG6R,EMG7R,GLX,GLY,GLZ,GRX,GRY,GRZ,ORL,OPL,OYL,ORR,OPR,OYR,LHNX,LHNY,LHNZ,RHNX,RHNY,RHNZ,HX,HY,HZ,LTX,LTY,LTZ,RTX,RTY,RTZ,SpineMidX,SpineMidY,SpineMidZ,SpineBaseX,SpineBaseY,SpineBaseZ,ShoulderLeftX,ShoulderLeftY,ShoulderLeftZ,ShoulderRightX,ShoulderRightY,ShoulderRightZ,ElbowLeftX,ElbowLeftY,ElbowLeftZ,ElbowRightX,ElbowRightY,ElbowRightZ,Myo_Pose_left,Myo_Pose_Right,Kinect_pose_left,Kinect_pose_right
0.9326172,-0.3535156,-0.02734375,0.9116211,0.3325195,0.09326172,-1,-2,0,1,1,0,0,-2,2,-1,-2,1,-1,0,-3,1,0.5625,0.5625,0.5625,0.125,0.125,0.125,2.366898,3.077495,6.433479,7.084072,3.080459,2.930456,-0.1500026,-0.4591529,1.537857,0.2473083,-0.4582238,1.523268,0.06716382,0.3721456,1.612542,-0.1909066,-0.446841,1.544,0.28115,-0.477237,1.50635,0.05401298,-0.08062605,1.625743,0.05118164,-0.3929098,1.614494,-0.1194189,0.1070452,1.626276,-0.02360264,-0.3853386,1.581422,-0.1555437,-0.1656682,1.628848,0.2599542,-0.1622707,1.630367,NA,NA,NotTracked,NotTracked,
0.9331055,-0.3554688,-0.02880859,0.9077148,0.3354492,0.09130859,-1,0,0,-2,-2,-1,0,-2,-2,0,-2,2,-2,0,1,0,0.3125,0.3125,0.3125,0.9375,0.9375,0.9375,2.366898,3.077495,6.433479,7.083953,3.079887,2.931273,-0.1498044,-0.457883,1.536196,0.2473002,-0.457889,1.522493,0.06713645,0.3721974,1.612548,-0.192346,-0.4443103,1.545524,0.2836093,-0.4608958,1.519081,0.05390772,-0.08057126,1.62536,0.05112222,-0.3928393,1.614184,-0.1194704,0.107147,1.625817,-0.02365202,-0.3852741,1.58112,-0.1555651,-0.1654482,1.628496,0.2598029,-0.1622226,1.629701,NA,NA,NotTracked,NotTracked,
0.9291992,-0.347168,-0.03222656,0.9140625,0.3339844,0.08837891,0,-1,-4,-1,-1,-2,-1,-3,-1,0,-1,0,-3,-1,-1,1,0.1875,0.1875,0.1875,0.5625,0.5625,0.5625,2.366898,3.077495,6.433479,7.083953,3.079887,2.931273,-0.1501926,-0.4582806,1.537856,0.2471092,-0.458042,1.523442,0.06706541,0.3722845,1.612447,-0.1954781,-0.4629818,1.5564,0.2812739,-0.4851681,1.510417,0.05389509,-0.0805462,1.62515,0.05115128,-0.3928219,1.613992,-0.1196001,0.1071814,1.625561,-0.02362118,-0.3852522,1.580928,-0.1554481,-0.1656366,1.628358,0.2598127,-0.1621512,1.629483,NA,NA,NotTracked,NotTracked,
0.9326172,-0.3457031,-0.03759766,0.9150391,0.331543,0.09179688,1,-2,0,-1,-2,-2,-2,-1,0,0,-3,-3,-3,0,1,2,1,1,1,-0.0625,-0.0625,-0.0625,2.366328,3.077434,6.434532,7.083936,3.080248,2.93129,-0.1505159,-0.4612667,1.536806,0.2470021,-0.4554787,1.523748,0.06709603,0.3723221,1.612239,-0.1941172,-0.4660785,1.54333,0.2821704,-0.4673992,1.515825,0.05386969,-0.08053633,1.624857,0.05112024,-0.3928217,1.613683,-0.1195978,0.1071716,1.625172,-0.02367091,-0.3852576,1.580513,-0.1554776,-0.1656107,1.628041,0.2597416,-0.1621842,1.629209,NA,NA,NotTracked,NotTracked,
0.9301758,-0.3505859,-0.03320313,0.9121094,0.3344727,0.08691406,-3,-1,0,-3,-1,-1,-2,-2,-2,0,-1,-2,-1,-2,0,1,-0.125,-0.125,-0.125,-0.875,-0.875,-0.875,2.365656,3.07706,6.435184,7.08432,3.079715,2.930906,-0.1500885,-0.4584243,1.537275,0.2470752,-0.4588308,1.523221,0.06706195,0.3723445,1.61217,-0.1940748,-0.4750964,1.541375,0.2846839,-0.4592,1.524667,0.05380702,-0.08049846,1.62468,0.05107366,-0.3928002,1.613492,-0.1196964,0.107172,1.624928,-0.02370487,-0.385227,1.580342,-0.1555975,-0.1654214,1.627835,0.2597434,-0.1622132,1.629061,NA,NA,NotTracked,NotTracked,
0.9384766,-0.3520508,-0.03759766,0.9125977,0.3359375,0.08984375,-1,0,-3,0,-1,0,-1,1,-2,0,-2,-1,-2,1,-5,-1,0.875,0.875,0.875,-0.4375,-0.4375,-0.4375,2.365639,3.077394,6.435229,7.08432,3.079715,2.930906,-0.1500532,-0.4612528,1.535603,0.2467759,-0.4583165,1.52214,0.06700219,0.372332,1.611919,-0.1929907,-0.4510094,1.543944,0.2832821,-0.4622999,1.516368,0.05372346,-0.0804484,1.624319,0.05101471,-0.3927856,1.61307,-0.1196786,0.1071643,1.624567,-0.02377677,-0.3852166,1.579999,-0.1556892,-0.1653674,1.627521,0.2596781,-0.1620499,1.628646,NA,NA,NotTracked,NotTracked,
0.9438477,-0.3730469,-0.05371094,0.9116211,0.3334961,0.08886719,0,-1,0,-5,-18,-6,1,31,-6,-14,-6,0,-1,-3,0,-6,4.6875,4.6875,4.6875,0.25,0.25,0.25,2.371266,3.079642,6.431666,7.08432,3.079715,2.930906,-0.1500279,-0.4612652,1.536048,0.2467413,-0.4585632,1.522463,0.06692636,0.3723293,1.611541,-0.1926486,-0.4467417,1.547,0.2833798,-0.4665728,1.519633,0.05365919,-0.08046918,1.624141,0.05096725,-0.3928457,1.612872,-0.1197582,0.1071815,1.624428,-0.02382611,-0.3853007,1.579793,-0.155696,-0.165206,1.627346,0.2596349,-0.1620053,1.6285,NA,NA,NotTracked,NotTracked,
0.9946289,-0.3989258,-0.02929688,1.047363,0.3808594,0.09033203,-3,-3,-7,-16,-3,9,-5,6,-14,-37,-12,-6,-8,-5,3,14,39.125,39.125,39.125,12.625,12.625,12.625,2.567042,3.152935,6.315348,7.03827,3.106495,2.99279,-0.1508602,-0.4593628,1.530548,0.2463312,-0.4550726,1.516576,0.06686214,0.3723532,1.611418,-0.1950114,-0.4638465,1.52975,0.2888699,-0.4619021,1.52325,0.05362169,-0.08047549,1.623914,0.05099161,-0.392872,1.612715,-0.1198069,0.1071534,1.624244,-0.02380633,-0.3853632,1.57957,-0.1558735,-0.165113,1.627281,0.2598575,-0.161777,1.628667,NA,NA,NotTracked,NotTracked,
0.984375,-0.5786133,0.06835938,1.103516,0.3242188,0.2089844,6,4,-7,1,27,10,-41,21,-6,10,-12,3,0,0,-2,-10,12,12,12,47.125,47.125,47.125,2.774572,3.321334,6.132669,6.871941,3.232063,3.194797,-0.1531757,-0.445616,1.509836,0.2437042,-0.4393429,1.493524,0.06666616,0.372359,1.611236,-0.1957646,-0.4529289,1.49663,0.2875953,-0.4374792,1.490412,0.0535376,-0.08045518,1.623484,0.05096519,-0.3928533,1.612421,-0.1198354,0.1072179,1.62393,-0.02385836,-0.3853556,1.5793,-0.157066,-0.1647601,1.628788,0.2627779,-0.1586602,1.633268,NA,NA,NotTracked,NotTracked,
0.8183594,-0.8481445,0.3149414,0.934082,0.8847656,0.3847656,-1,-3,-4,2,10,15,13,-22,-1,-14,-32,-21,-3,-3,-1,-1,36.125,36.125,36.125,21,21,21,2.961731,3.681906,5.957485,6.823138,3.47746,3.370812,-0.1578457,-0.4118204,1.455665,0.2439357,-0.3980876,1.445318,0.06636224,0.3723536,1.610158,-0.200567,-0.427239,1.448867,0.2762866,-0.3890155,1.434582,0.05353315,-0.08033944,1.622877,0.05101134,-0.392782,1.612033,-0.1198112,0.1073295,1.623563,-0.02385014,-0.3853202,1.578992,-0.1595922,-0.1594015,1.633829,0.2658781,-0.1519233,1.640271,NA,NA,Unknown,NotTracked,
0.6137695,-0.8730469,0.3520508,0.6435547,0.7416992,0.3828125,-7,-2,-2,-24,0,5,2,25,-4,-8,-4,1,-1,-1,0,5,31.1875,31.1875,31.1875,-4.75,-4.75,-4.75,3.059054,4.01529,5.894356,6.712645,3.900551,3.484412,-0.1586021,-0.3468169,1.40044,0.2370571,-0.3398439,1.399143,0.06627668,0.3721533,1.609296,-0.2029178,-0.3612438,1.394437,0.275503,-0.3403541,1.388438,0.05351917,-0.0803467,1.622568,0.0509725,-0.3926902,1.611909,-0.1196889,0.1075638,1.623377,-0.02392125,-0.3852363,1.578811,-0.1613219,-0.145973,1.640312,0.2688301,-0.1361018,1.649693,NA,NA,Closed,Closed,
0.5405273,-0.8530273,0.3608398,0.6435547,0.7416992,0.3828125,4,-3,1,-1,-25,-7,1,1,-4,-22,-3,-5,-3,-3,-3,2,32.1875,32.1875,32.1875,-4.75,-4.75,-4.75,3.127178,4.391481,5.866165,6.712645,3.900551,3.484412,-0.1589542,-0.2630015,1.349746,0.2348409,-0.2630028,1.356217,0.06601428,0.3718206,1.608018,-0.1969345,-0.2730974,1.329848,0.2693729,-0.2687556,1.336417,0.05350586,-0.08032878,1.622504,0.05096726,-0.392529,1.611793,-0.1194802,0.1079153,1.623455,-0.02392524,-0.3850974,1.578663,-0.1611557,-0.1226147,1.644428,0.2692058,-0.1249176,1.651988,NA,NA,Closed,Closed,
0.1826172,-0.824707,0.3276367,0.4233398,0.7446289,0.5283203,8,-2,-2,-5,-23,-9,-4,5,-3,-9,-13,-11,-3,-3,-7,6,28.3125,28.3125,28.3125,-9.8125,-9.8125,-9.8125,3.168477,4.781181,5.846225,6.622686,4.588935,3.53343,-0.1536723,-0.1682431,1.305868,0.2280317,-0.1841882,1.322197,0.06567434,0.3712199,1.607012,-0.1951537,-0.1605583,1.3171,0.2622637,-0.192264,1.293133,0.05347579,-0.08035425,1.622548,0.05095248,-0.3924473,1.611882,-0.1191285,0.1084946,1.623757,-0.02393711,-0.3850493,1.578715,-0.1614274,-0.1179869,1.637939,0.2676219,-0.1132713,1.650282,NA,NA,Closed,Closed,
-0.07324219,-0.5043945,0.1699219,-0.03173828,0.5678711,0.3505859,-1,-6,-3,-6,-1,-4,-5,-30,-5,4,-2,-3,-2,0,-1,-15,14.875,14.875,14.875,-23.5,-23.5,-23.5,3.214981,5.169431,5.818538,6.590937,5.017907,3.547242,-0.1537887,-0.07769848,1.302379,0.2256655,-0.1127168,1.318329,0.06539254,0.3704598,1.605571,-0.1901326,-0.08868835,1.2904,0.2591298,-0.1198783,1.303125,0.05345286,-0.08040213,1.622583,0.05091091,-0.3924036,1.611945,-0.1182527,0.1099503,1.62373,-0.02397884,-0.3850192,1.578789,-0.1371055,-0.1372303,1.578897,0.2333229,-0.1815045,1.588667,NA,NA,Closed,Unknown,
-0.05371094,-0.6928711,0.2529297,-0.1884766,0.4863281,0.3237305,2,2,7,11,-9,-40,-20,23,0,-10,-1,-4,3,1,0,-15,-24.8125,-24.8125,-24.8125,16.3125,16.3125,16.3125,3.186016,5.238669,5.797012,6.581339,5.224166,3.570429,-0.1506171,-0.04418245,1.324128,0.2209988,-0.0803995,1.320563,0.06538503,0.3701035,1.60431,-0.1846203,-0.05164845,1.300867,0.2528158,-0.08795297,1.307906,0.05343027,-0.08043271,1.622648,0.05082447,-0.3923006,1.612012,-0.1161154,0.1130522,1.623277,-0.02406351,-0.384916,1.578922,-0.141537,-0.1347799,1.575513,0.2633305,-0.1135917,1.588248,NA,NA,Closed,Closed,
0.1357422,-0.9121094,0.4619141,-0.1977539,0.8076172,0.4614258,-2,-2,-2,-9,18,11,10,42,-16,8,4,-4,-1,-2,0,-32,-13.125,-13.125,-13.125,6.25,6.25,6.25,3.164657,5.126004,5.776758,6.617491,5.226544,3.59575,-0.1503774,-0.05465811,1.311811,0.2177778,-0.08383031,1.316609,0.06540368,0.3697574,1.603617,-0.1679261,-0.0245616,1.306125,0.2529545,-0.08736411,1.30602,0.05341283,-0.08056011,1.622683,0.05075901,-0.392319,1.611966,-0.1152298,0.1136978,1.622989,-0.02410862,-0.3849205,1.578867,-0.1500754,-0.1349216,1.563887,0.2493746,-0.1592372,1.562329,NA,NA,Closed,Closed,
-0.07958984,-1.02832,0.519043,0.08935547,1.023438,0.706543,-7,-3,-1,3,16,7,-2,3,-4,-18,-8,-4,-2,-1,0,25,-5.625,-5.625,-5.625,26.1875,26.1875,26.1875,3.140511,5.081373,5.766109,6.632908,5.18489,3.604309,-0.1501106,-0.06579614,1.304744,0.216621,-0.08966485,1.315049,0.0656183,0.3696166,1.603297,-0.18606,-0.06372993,1.289021,0.2536485,-0.09272774,1.306363,0.05341181,-0.08065616,1.622664,0.0506947,-0.3923068,1.611836,-0.1150314,0.1138967,1.622972,-0.02415047,-0.3848969,1.578749,-0.1514169,-0.138363,1.562523,0.2330018,-0.1700825,1.57488,NA,NA,Closed,Closed,
-0.1977539,-0.8242188,0.3076172,-0.1044922,0.9975586,0.5395508,-2,-1,2,9,20,8,-3,23,-1,-29,-8,-12,-6,0,1,11,3.25,3.25,3.25,4.3125,4.3125,4.3125,3.149481,5.085871,5.758829,6.652341,5.180436,3.609543,-0.1464033,-0.06766247,1.307748,0.2159133,-0.08882719,1.315351,0.0660865,0.3693862,1.602644,-0.182526,-0.0735123,1.286345,0.2514644,-0.09489657,1.303519,0.05340223,-0.08076959,1.622498,0.05045216,-0.3923217,1.611451,-0.1150053,0.1140608,1.622872,-0.02435767,-0.3848353,1.578323,-0.1519715,-0.1410822,1.56215,0.2661343,-0.102223,1.597575,NA,NA,Closed,Closed,
-0.03564453,-0.9594727,0.3867188,-0.1987305,0.8242188,0.4614258,-2,-2,0,-3,-17,0,8,6,6,21,11,5,3,2,-1,19,-1.375,-1.375,-1.375,7.3125,7.3125,7.3125,3.14915,5.06712,5.75479,6.644818,5.180481,3.618933,-0.1437512,-0.07136014,1.306344,0.2150478,-0.09162042,1.312539,0.06649699,0.3692124,1.601933,-0.1808791,-0.07481162,1.286864,0.2503399,-0.09754278,1.301896,0.05343603,-0.0808307,1.622231,0.05035733,-0.3922016,1.611033,-0.1148759,0.1143931,1.62253,-0.02442429,-0.3846726,1.577877,-0.1562074,-0.1459102,1.556751,0.2660384,-0.1019406,1.598913,NA,NA,Closed,Closed,
0.004394531,-0.9814453,0.3930664,-0.046875,0.902832,0.53125,3,-1,-2,-3,4,-6,16,-31,22,28,20,8,0,0,2,42,1.5,1.5,1.5,3.5625,3.5625,3.5625,3.144053,5.050221,5.751472,6.649963,5.154408,3.624933,-0.1415304,-0.07596055,1.302959,0.2142678,-0.09680273,1.311848,0.06678579,0.3690379,1.601012,-0.176673,-0.08094811,1.282771,0.2463046,-0.1042335,1.297428,0.05346745,-0.08091903,1.622034,0.05029721,-0.3921485,1.610859,-0.1148512,0.114568,1.622372,-0.02447062,-0.384593,1.57765,-0.1573262,-0.149835,1.553674,0.2674198,-0.1014948,1.60346,NA,NA,Closed,Closed,
-0.02783203,-0.9667969,0.4091797,-0.06298828,0.8862305,0.5244141,-2,1,-1,-4,0,5,3,1,4,-5,9,5,2,-3,-2,-8,-1.6875,-1.6875,-1.6875,-5.5625,-5.5625,-5.5625,3.142867,5.042568,5.745649,6.642812,5.136716,3.628167,-0.1405075,-0.07714774,1.301683,0.2134295,-0.09918145,1.311511,0.06681652,0.3689891,1.600531,-0.1774001,-0.08003233,1.282215,0.2471196,-0.106763,1.299543,0.05344045,-0.08108534,1.621715,0.05012812,-0.3922185,1.610499,-0.114785,0.1144951,1.622115,-0.02460955,-0.3846561,1.577328,-0.1561199,-0.1524276,1.551684,0.2680419,-0.1014195,1.606097,NA,NA,Closed,Closed,
-0.03662109,-0.9038086,0.3950195,-0.1074219,0.8613281,0.5058594,-1,0,0,-1,-4,0,-4,4,3,4,-3,-6,-3,0,-1,-16,1.6875,1.6875,1.6875,-1.6875,-1.6875,-1.6875,3.145326,5.041786,5.742444,6.641001,5.128703,3.632083,-0.1404287,-0.07847756,1.301981,0.2130685,-0.1024578,1.311591,0.06677897,0.3689696,1.599566,-0.1785244,-0.07711723,1.285378,0.2433282,-0.1129262,1.297383,0.05342144,-0.08113648,1.621395,0.05008498,-0.3921372,1.610234,-0.1148768,0.1146231,1.621878,-0.02463888,-0.384597,1.577141,-0.1555933,-0.1523967,1.550849,0.2683622,-0.1010367,1.607708,NA,NA,Closed,Closed,
0.02685547,-0.8847656,0.3837891,-0.06445313,0.7915039,0.4902344,1,0,0,-1,-6,-7,-6,-1,0,0,1,0,-4,0,1,40,-2.75,-2.75,-2.75,-7.3125,-7.3125,-7.3125,3.144399,5.021402,5.739467,6.632873,5.088654,3.630328,-0.1393193,-0.08217449,1.300734,0.2139694,-0.108967,1.310962,0.06663491,0.3686745,1.598053,-0.1740358,-0.08934965,1.281265,0.2439664,-0.1213492,1.297065,0.05335107,-0.08133743,1.620993,0.0500347,-0.3921792,1.610025,-0.1149671,0.1145052,1.621294,-0.02469863,-0.3846628,1.576891,-0.1546084,-0.1534707,1.551414,0.2746601,-0.0975875,1.629692,NA,NA,Closed,Closed,
0.02392578,-0.7641602,0.3442383,-0.1264648,0.7016602,0.4462891,-4,-1,0,2,5,3,10,-9,-14,-4,-3,-2,2,-3,7,-86,-1.0625,-1.0625,-1.0625,-8.0625,-8.0625,-8.0625,3.145911,4.930593,5.742074,6.622976,5.044018,3.625921,-0.1386443,-0.09473956,1.299207,0.2175243,-0.1277487,1.30987,0.0667307,0.3685679,1.597091,-0.1740364,-0.09942195,1.2804,0.2426807,-0.1481466,1.298743,0.0532722,-0.08138102,1.620632,0.05004468,-0.3921554,1.609882,-0.1150186,0.114556,1.620863,-0.02471302,-0.3846247,1.576676,-0.1686067,-0.09234712,1.606254,0.2751152,-0.09694286,1.633515,NA,NA,Closed,Closed,
0.07226563,-0.6401367,0.2167969,0.03222656,0.5698242,0.3676758,-6,-2,-5,-2,0,-3,-7,-10,0,-5,-3,1,-1,2,3,-46,4.0625,4.0625,4.0625,-2.1875,-2.1875,-2.1875,3.148192,4.669187,5.763215,6.583723,4.811075,3.631929,-0.1414902,-0.1302296,1.298118,0.2174024,-0.17361,1.306461,0.06699167,0.3685702,1.596193,-0.1748338,-0.1367502,1.280283,0.2467958,-0.1973016,1.30075,0.05333286,-0.08145256,1.620184,0.05013682,-0.3921585,1.609683,-0.115287,0.1143546,1.62023,-0.02461246,-0.3846453,1.57638,-0.1738715,-0.09013567,1.61822,0.2892959,-0.1106699,1.625597,NA,NA,Closed,Closed,
0.2446289,-0.6855469,0.2163086,0.1972656,0.6005859,0.3808594,-1,4,9,35,-2,8,9,10,-3,-4,-1,0,-2,0,4,56,-42.6875,-42.6875,-42.6875,61.875,61.875,61.875,3.09936,4.324702,5.788495,6.638592,4.353759,3.664362,-0.1464733,-0.2070706,1.300799,0.2184038,-0.2600855,1.324087,0.06707559,0.3686352,1.595927,-0.1808374,-0.2313432,1.298947,0.2479295,-0.2555504,1.280231,0.05337059,-0.08143305,1.620031,0.05012934,-0.3920791,1.609512,-0.1159591,0.1135623,1.619433,-0.02461206,-0.3845548,1.576141,-0.1752178,-0.1210059,1.621217,0.2823989,-0.1383675,1.612147,NA,NA,Closed,Closed,
1.328125,-0.8427734,0.28125,0.9726563,0.9677734,0.4208984,3,-1,-2,11,49,7,-21,7,19,-1,5,1,-2,0,14,97,-45.25,-45.25,-45.25,33.125,33.125,33.125,2.959531,3.947866,5.842989,6.736348,4.004805,3.679907,-0.151193,-0.3060668,1.332108,0.2212134,-0.3474126,1.374037,0.06723078,0.3686056,1.595945,-0.1885905,-0.3178276,1.31492,0.2040478,-0.3871721,1.372889,0.05337375,-0.08146332,1.619981,0.04998955,-0.3921925,1.609098,-0.1163756,0.1126158,1.618844,-0.02478951,-0.3845813,1.575546,-0.1711365,-0.1333306,1.615477,0.2740351,-0.1259776,1.620507,NA,NA,Closed,Unknown,
0.9282227,-0.8510742,0.2001953,1.290527,0.8203125,0.5625,-7,-2,-3,0,6,1,-7,66,-4,-12,-4,1,-2,-2,5,-2,7.25,7.25,7.25,60.4375,60.4375,60.4375,2.869892,3.653845,5.914606,6.802524,3.739803,3.649536,-0.1524258,-0.3659805,1.372997,0.2280932,-0.3848803,1.398001,0.06753483,0.368628,1.595939,-0.1948632,-0.3841271,1.362143,0.1905724,-0.3879392,1.410571,0.05336789,-0.08157931,1.619702,0.0498218,-0.3924575,1.608359,-0.1172675,0.1109856,1.618249,-0.02505554,-0.3847392,1.574722,-0.1689765,-0.1356616,1.613437,0.2705464,-0.1315919,1.613435,NA,NA,Closed,Unknown,
0.7768555,-0.7495117,0.1508789,0.8710938,0.8623047,0.2006836,-1,2,0,1,12,2,4,-10,5,-15,-9,-4,-1,-4,14,30,4.75,4.75,4.75,-68.875,-68.875,-68.875,2.882987,3.611394,5.928989,6.856544,3.668332,3.562511,-0.1533521,-0.3811791,1.396086,0.2322154,-0.3971081,1.407746,0.06792133,0.3687271,1.595798,-0.191893,-0.3801778,1.382583,0.1899402,-0.4084529,1.393625,0.0534405,-0.08161279,1.619255,0.04981912,-0.3925246,1.60778,-0.1177014,0.1104519,1.618008,-0.02508642,-0.3847591,1.574064,-0.1658805,-0.1408265,1.613324,0.2690892,-0.1345578,1.612042,NA,NA,Closed,Unknown,
0.5786133,-0.7553711,0.1982422,0.6640625,0.6762695,0.3027344,0,-3,-2,0,-6,-3,0,11,1,7,5,1,0,0,17,-9,-11.6875,-11.6875,-11.6875,53,53,53,2.886818,3.641547,5.892022,6.846936,3.658924,3.572688,-0.1485779,-0.3796635,1.402811,0.2334711,-0.3964854,1.411057,0.06823245,0.3687825,1.595455,-0.1752757,-0.374923,1.371,0.1974627,-0.3954214,1.425444,0.05351421,-0.0816953,1.618817,0.04985055,-0.3926207,1.607543,-0.1178831,0.1101716,1.617756,-0.0250899,-0.3848411,1.573806,-0.1650435,-0.1427849,1.615315,0.268955,-0.1361676,1.612437,NA,NA,Closed,Unknown,
0.6757813,-0.6855469,0.1591797,0.7109375,0.6088867,0.277832,8,-1,-4,-7,-11,-9,-2,25,-11,-13,-5,-2,-1,-2,-2,-14,13.25,13.25,13.25,-18.75,-18.75,-18.75,2.894464,3.670341,5.892639,6.855289,3.673891,3.580996,-0.1479645,-0.3770004,1.403147,0.2339883,-0.396418,1.41124,0.06851297,0.3688445,1.594168,-0.1870444,-0.383195,1.3928,0.197908,-0.3972658,1.429857,0.05362144,-0.08182868,1.61833,0.04987872,-0.3927165,1.607297,-0.1181347,0.1100024,1.617736,-0.02510418,-0.3849866,1.57367,-0.1642969,-0.1431691,1.617767,0.2687735,-0.1376192,1.61289,NA,NA,Closed,Closed,
0.8012695,-0.6357422,0.1450195,0.7529297,0.5615234,0.2929688,-15,-3,-2,-6,-8,-11,-4,-5,3,3,4,3,1,-1,1,-1,4.4375,4.4375,4.4375,9.5625,9.5625,9.5625,2.900862,3.681768,5.921058,6.845566,3.666714,3.586611,-0.1501745,-0.3751024,1.399487,0.2344236,-0.3955206,1.411613,0.06849448,0.3688495,1.593652,-0.1888606,-0.3754961,1.385559,0.1960533,-0.397598,1.422572,0.05360552,-0.08190201,1.618133,0.049898,-0.3927919,1.607251,-0.1182078,0.1098473,1.617797,-0.02509625,-0.3850824,1.573636,-0.1640361,-0.1435393,1.618617,0.2688355,-0.1383459,1.61311,NA,NA,Closed,Unknown,
0.7573242,-0.6376953,0.1713867,0.753418,0.5620117,0.2563477,-5,-3,-2,-1,-13,2,10,-12,12,14,3,2,1,-2,0,8,-1.375,-1.375,-1.375,-15,-15,-15,2.904086,3.690479,5.91732,6.834555,3.663126,3.580069,-0.1515855,-0.3717818,1.397699,0.2347527,-0.3956844,1.411557,0.06831578,0.368873,1.593423,-0.1912744,-0.3782161,1.38336,0.1938332,-0.4047613,1.389143,0.05363461,-0.08195686,1.617966,0.04991507,-0.3928443,1.607157,-0.1183131,0.1095018,1.61782,-0.025099,-0.3851274,1.573621,-0.1636762,-0.143707,1.619283,0.2688681,-0.138585,1.613168,NA,NA,Closed,Unknown,
0.6977539,-0.6396484,0.1967773,0.7304688,0.5844727,0.2480469,-4,-5,-5,-3,3,4,-2,-19,2,-1,1,-2,0,-2,0,-1,-7.5625,-7.5625,-7.5625,-0.1875,-0.1875,-0.1875,2.907798,3.696759,5.901914,6.830685,3.659027,3.578416,-0.1516209,-0.3678011,1.398272,0.2342299,-0.3957881,1.413695,0.06820661,0.3689641,1.593319,-0.1944778,-0.3828082,1.389818,0.1959982,-0.4045599,1.382711,0.05360835,-0.08198027,1.617844,0.04991678,-0.3929086,1.607101,-0.1184274,0.1093693,1.61793,-0.02511486,-0.3851851,1.5736,-0.1635285,-0.1440153,1.619957,0.2688385,-0.1389283,1.613433,NA,NA,Closed,Closed,
0.7294922,-0.612793,0.1835938,0.722168,0.5654297,0.246582,-8,-3,-1,-2,1,6,3,-18,-4,-4,-4,2,-3,1,0,58,-0.75,-0.75,-0.75,-8.6875,-8.6875,-8.6875,2.915216,3.68083,5.89354,6.823345,3.641101,3.569937,-0.1499447,-0.3684047,1.398348,0.2336356,-0.3981912,1.416457,0.06813747,0.3690178,1.593322,-0.1871802,-0.3734737,1.376493,0.1945529,-0.4011793,1.424105,0.05357073,-0.08199238,1.617815,0.04992114,-0.3929314,1.607059,-0.118648,0.1091513,1.618104,-0.02512267,-0.3852005,1.57358,-0.1635436,-0.1440355,1.620417,0.2686409,-0.1394188,1.614249,NA,NA,Closed,Unknown,
0.7524414,-0.5473633,0.1621094,0.7207031,0.5429688,0.2353516,0,-3,-2,-3,-5,2,23,5,-3,-1,1,-2,0,-1,-1,6,6.625,6.625,6.625,-9.5,-9.5,-9.5,2.917966,3.639877,5.902789,6.82507,3.603748,3.547221,-0.1487064,-0.373137,1.400846,0.2344688,-0.4042225,1.421898,0.06789436,0.3691835,1.59368,-0.1791244,-0.3712936,1.369516,0.198139,-0.4045391,1.436313,0.05356169,-0.0820234,1.61779,0.04991261,-0.3930062,1.607008,-0.118871,0.1089907,1.618206,-0.02515887,-0.3853027,1.573529,-0.1635074,-0.1439633,1.620661,0.2683726,-0.1407092,1.614854,NA,NA,Closed,Unknown,
0.7807617,-0.5737305,0.1499023,0.7485352,0.5249023,0.2128906,-8,-3,-4,-3,-6,-3,-12,0,0,2,-1,1,-1,0,8,5,-12.9375,-12.9375,-12.9375,-17.3125,-17.3125,-17.3125,2.881921,3.541835,5.918985,6.836404,3.534882,3.507124,-0.1468586,-0.3806853,1.408056,0.2364631,-0.4159124,1.432142,0.06771458,0.3692842,1.594209,-0.1772503,-0.3786789,1.378336,0.2014768,-0.4155261,1.448072,0.05353961,-0.08202505,1.617781,0.04996956,-0.393088,1.606935,-0.1192056,0.1087402,1.61844,-0.02510951,-0.3854089,1.573459,-0.163357,-0.1448354,1.620809,0.2678243,-0.1423674,1.615402,NA,NA,Unknown,Closed,
0.8115234,-0.5405273,0.1303711,0.7792969,0.5175781,0.171875,-4,-2,0,0,0,-2,-2,10,-3,-4,-6,-16,-14,-2,-1,-27,-15.1875,-15.1875,-15.1875,-31.0625,-31.0625,-31.0625,2.839767,3.442097,5.945958,6.857299,3.439908,3.4392,-0.1440558,-0.3947147,1.422546,0.239865,-0.4304215,1.448149,0.06762284,0.3694474,1.594578,-0.1667383,-0.3898585,1.387127,0.2001838,-0.4382174,1.4195,0.05354523,-0.08202673,1.617787,0.05009124,-0.3931466,1.606919,-0.119354,0.1086476,1.618386,-0.02497631,-0.3855422,1.573469,-0.1631118,-0.1456886,1.620798,0.2664009,-0.1458732,1.615463,NA,NA,Closed,Unknown,
0.8676758,-0.6103516,0.1235352,0.8442383,0.4311523,0.2202148,30,-1,-2,-2,0,-1,-2,-6,-1,-2,-1,2,1,-2,-2,3,-4.9375,-4.9375,-4.9375,-39.8125,-39.8125,-39.8125,2.768546,3.337812,6.007797,6.864606,3.320713,3.339829,-0.1446586,-0.4091129,1.452848,0.2417521,-0.4443545,1.470672,0.06755511,0.3696981,1.594922,-0.1742518,-0.4213498,1.417808,0.2042903,-0.4620164,1.43736,0.0535743,-0.0820368,1.617712,0.0503987,-0.3933297,1.60677,-0.1194374,0.1084862,1.61831,-0.02469506,-0.3858809,1.573339,-0.1621203,-0.1483268,1.619366,0.2645514,-0.148894,1.614529,NA,NA,Closed,Unknown,
0.8569336,-0.465332,0.07177734,0.9438477,0.2973633,0.1147461,-27,-2,-3,-1,-2,-1,-2,-21,-1,-1,0,2,1,1,-3,-58,-10.4375,-10.4375,-10.4375,-10.875,-10.875,-10.875,2.683719,3.228446,6.092731,6.994908,3.159244,3.143268,-0.1416984,-0.4273857,1.482501,0.2418216,-0.4550162,1.500835,0.06756905,0.3697538,1.595415,-0.1792984,-0.4317044,1.4852,0.1949827,-0.40083,1.492571,0.05367244,-0.08204582,1.61765,0.05079028,-0.3933938,1.606706,-0.1195415,0.1084348,1.618369,-0.02430036,-0.3861003,1.573248,-0.1598628,-0.1509387,1.617172,0.2627782,-0.1514016,1.613634,NA,NA,NotTracked,NotTracked,
1.008301,-0.1992188,-0.1738281,1.01123,0.2753906,0.01708984,4,0,1,-2,-2,-1,-2,-5,-2,-3,-1,0,0,-2,-1,-6,-8.625,-8.625,-8.625,26.6875,26.6875,26.6875,2.440654,3.076776,6.342974,7.195832,3.048136,2.949795,-0.13573,-0.442911,1.513216,0.2442709,-0.4628862,1.520125,0.06776699,0.3698571,1.595781,-0.1779583,-0.4340504,1.519572,0.199183,-0.44533,1.495606,0.05377988,-0.08209372,1.617596,0.05099886,-0.3934797,1.606595,-0.1195576,0.1083166,1.618417,-0.02406934,-0.3862362,1.573142,-0.1554372,-0.1561565,1.612051,0.2605582,-0.1549402,1.6118,NA,NA,NotTracked,NotTracked,
1.017578,-0.4794922,-0.08789063,0.9638672,0.440918,-0.02587891,1,-2,-1,0,-1,-3,-2,-1,1,1,-1,-1,1,1,-2,-6,90.0625,90.0625,90.0625,-27.5625,-27.5625,-27.5625,2.297644,3.053578,6.564092,7.374385,3.007891,2.772605,-0.1369715,-0.4492776,1.522315,0.2486245,-0.4656014,1.52967,0.06795527,0.3700251,1.596401,-0.1741664,-0.4422461,1.5186,0.202827,-0.4310097,1.4991,0.05379273,-0.08210354,1.617598,0.05100706,-0.3935253,1.606639,-0.1195899,0.1082263,1.618401,-0.02404134,-0.3862896,1.573259,-0.1529955,-0.1602924,1.608506,0.2589072,-0.1586316,1.612002,NA,NA,NotTracked,NotTracked,
0.9238281,-0.2685547,0.04394531,0.9350586,0.2714844,0.05615234,1,0,-2,-3,-3,-1,-2,-3,0,-1,-3,-2,-1,-1,1,2,-41.25,-41.25,-41.25,-20.5625,-20.5625,-20.5625,2.414942,3.066981,6.50173,7.310363,3.005932,2.787045,-0.1389443,-0.4501633,1.521895,0.2496061,-0.4660486,1.531868,0.06818078,0.3700904,1.596637,-0.1763432,-0.4638703,1.506846,0.2029965,-0.4426931,1.498745,0.05384563,-0.08207954,1.617605,0.05107516,-0.3935815,1.606758,-0.1194439,0.1080049,1.618103,-0.02393203,-0.3863625,1.57345,-0.1524433,-0.1627501,1.609493,0.2590391,-0.1601892,1.614089,NA,NA,NotTracked,NotTracked,
0.9057617,-0.4477539,0.08935547,0.8964844,0.3764648,0.1098633,0,-1,0,-3,0,-4,-2,-2,-2,0,-2,-1,0,0,2,-4,-58.9375,-58.9375,-58.9375,18,18,18,2.425224,3.100895,6.377944,7.21014,3.033541,2.911664,-0.1395399,-0.4457414,1.522228,0.2499203,-0.4653772,1.53222,0.06843203,0.3701635,1.597173,-0.1755206,-0.4475347,1.511783,0.2040917,-0.4463541,1.501025,0.05395328,-0.08203711,1.617658,0.05120981,-0.3936225,1.606982,-0.1194245,0.1079993,1.618083,-0.02375703,-0.3864031,1.57374,-0.1529184,-0.1627162,1.613025,0.2604271,-0.1614018,1.618588,NA,NA,NotTracked,NotTracked,
0.8642578,-0.4208984,0.06689453,0.8867188,0.3588867,0.1074219,0,-1,0,0,-1,-3,-1,1,-2,-1,0,2,0,0,-1,-1,18.8125,18.8125,18.8125,-5.8125,-5.8125,-5.8125,2.469779,3.120559,6.324049,7.170032,3.051562,2.957193,-0.1407722,-0.4447374,1.519383,0.2511405,-0.4645808,1.530671,0.06870145,0.3703109,1.597427,-0.1777943,-0.4555855,1.509539,0.2074203,-0.4245898,1.504308,0.05401736,-0.08198091,1.617638,0.05135571,-0.3936011,1.607139,-0.1194132,0.107967,1.617977,-0.02357573,-0.3863847,1.573935,-0.1537045,-0.1629755,1.615752,0.2613427,-0.1624664,1.621697,NA,NA,NotTracked,NotTracked,
