ALX,ALY,ALZ,ARX,ARY,ARZ,EMG0L,EMG1L,EMG2L,EMG3L,EMG4L,EMG5L,EMG6L,EMG7L,EMG0R,EMG1R,EMG2R,EMG3R,EMG4R,EMG5R,EMG6R,EMG7R,GLX,GLY,GLZ,GRX,GRY,GRZ,ORL,OPL,OYL,ORR,OPR,OYR,LHNX,LHNY,LHNZ,RHNX,RHNY,RHNZ,HX,HY,HZ,LTX,LTY,LTZ,RTX,RTY,RTZ,SpineMidX,SpineMidY,SpineMidZ,SpineBaseX,SpineBaseY,SpineBaseZ,ShoulderLeftX,ShoulderLeftY,ShoulderLeftZ,ShoulderRightX,ShoulderRightY,ShoulderRightZ,ElbowLeftX,ElbowLeftY,ElbowLeftZ,ElbowRightX,ElbowRightY,ElbowRightZ,Myo_Pose_left,Myo_Pose_Right,Kinect_pose_left,Kinect_pose_right
0.9335938,-0.3295898,-0.01318359,0.9077148,0.3583984,0.04980469,-1,-1,-1,-3,-2,-2,-1,-2,-1,-1,-1,-3,-3,0,-2,-3,0.125,0.125,0.125,5.1875,5.1875,5.1875,2.419344,3.036361,8.49127,7.275655,3.094576,4.127443,-0.08283974,-0.4808702,1.674415,0.3055498,-0.4457136,1.67424,0.1070675,0.3620798,1.750441,-0.03802332,-0.4615645,1.650009,0.2634047,-0.417403,1.666808,0.1019096,-0.09388712,1.765618,0.1023067,-0.4127923,1.754058,-0.07660531,0.09911379,1.771083,0.02090776,-0.4067994,1.724841,-0.1055897,-0.174682,1.767795,0.3080877,-0.1630501,1.771427,NA,NA,NotTracked,NotTracked,
0.940918,-0.3227539,-0.01660156,0.9052734,0.3339844,0.05371094,-2,-2,-2,-1,0,-1,-1,-1,0,1,1,1,-1,2,2,-1,1.25,1.25,1.25,13.125,13.125,13.125,2.424855,3.035542,8.488103,7.281457,3.094896,4.136239,-0.08291548,-0.4806347,1.674148,0.3068047,-0.4456476,1.674004,0.1068151,0.3620423,1.750301,-0.03788702,-0.460823,1.649808,0.264022,-0.416426,1.667172,0.1018791,-0.0938893,1.765597,0.1022977,-0.4127888,1.754055,-0.07671911,0.09908216,1.771043,0.02089122,-0.4068137,1.724872,-0.1056145,-0.1746703,1.767762,0.308366,-0.1630171,1.770866,NA,NA,NotTracked,NotTracked,
0.9399414,-0.3261719,-0.01269531,0.902832,0.3579102,0.05859375,-3,-1,-2,-2,-1,-2,-3,-3,-2,-1,-2,-2,-2,-3,-3,0,1.25,1.25,1.25,22.75,22.75,22.75,2.42957,3.034298,8.485714,7.290178,3.097243,4.161302,-0.0830858,-0.4813627,1.673995,0.3062376,-0.4468065,1.671657,0.1063353,0.3619302,1.750018,-0.038102,-0.4583288,1.650012,0.264612,-0.4151455,1.668261,0.1017335,-0.09392801,1.765424,0.102294,-0.4128305,1.753988,-0.07694949,0.09894919,1.770949,0.02088803,-0.4068801,1.724863,-0.1056251,-0.174784,1.767695,0.3085806,-0.1632484,1.770207,NA,NA,NotTracked,NotTracked,
0.9438477,-0.3330078,-0.01416016,0.8974609,0.3813477,0.05224609,-1,-1,-1,-1,-1,-1,-1,0,-2,0,1,3,1,-3,0,-3,2.75,2.75,2.75,12.75,12.75,12.75,2.435088,3.034234,8.483584,7.297759,3.104344,4.185674,-0.08323134,-0.4836705,1.672849,0.3060836,-0.4460558,1.669639,0.1056372,0.3617581,1.749522,-0.03806866,-0.4632973,1.649577,0.2630116,-0.4173294,1.665074,0.1015305,-0.09395397,1.765124,0.1023002,-0.4129035,1.753735,-0.07713842,0.09891131,1.770808,0.02088445,-0.406967,1.724712,-0.1056095,-0.1747715,1.767653,0.3090248,-0.1633563,1.768898,NA,NA,NotTracked,NotTracked,
0.9458008,-0.3251953,-0.01220703,0.9052734,0.3613281,0.04443359,-2,-1,0,0,0,0,-2,0,2,0,1,0,-2,9,8,0,5.25,5.25,5.25,12.75,12.75,12.75,2.444774,3.034838,8.48335,7.305217,3.107816,4.197104,-0.08334599,-0.4816144,1.673913,0.3054124,-0.4466769,1.667688,0.1049114,0.3617879,1.748783,-0.03691702,-0.4811023,1.646639,0.26362,-0.4146085,1.66555,0.1012889,-0.09390929,1.764897,0.1021261,-0.4129108,1.75349,-0.07724843,0.09892552,1.77076,0.02073439,-0.406988,1.724606,-0.1055455,-0.1747734,1.767623,0.3092375,-0.1631184,1.767605,NA,NA,NotTracked,NotTracked,
0.9462891,-0.3325195,-0.01025391,1.002441,0.527832,0.07373047,-3,-1,-2,-2,-3,-1,-1,-1,8,10,25,39,4,-13,-5,2,3.5,3.5,3.5,95.0625,95.0625,95.0625,2.449355,3.03448,8.486097,7.359564,3.119236,4.264813,-0.08289324,-0.4809274,1.675431,0.3057903,-0.4463085,1.667793,0.1038908,0.3620712,1.748604,-0.03797808,-0.4612033,1.649792,0.2635424,-0.4158303,1.6657,0.1010647,-0.09389099,1.764791,0.1020805,-0.4129027,1.753467,-0.07749394,0.09877814,1.770857,0.02066951,-0.4070094,1.724645,-0.1055925,-0.1747806,1.767666,0.3096127,-0.1626981,1.766137,NA,NA,NotTracked,NotTracked,
0.9262695,-0.3422852,-0.01855469,0.8764648,0.8823242,0.08300781,-2,-2,-1,-1,-2,0,0,-2,-1,6,-5,-24,10,54,2,-16,1.1875,1.1875,1.1875,16.1875,16.1875,16.1875,2.451038,3.035767,8.488623,7.295789,3.233448,4.458269,-0.0830811,-0.4811613,1.675835,0.3027623,-0.4454505,1.659491,0.1029992,0.3621775,1.748558,-0.03634208,-0.4868964,1.647244,0.2624367,-0.4140724,1.66535,0.1008381,-0.09382194,1.764665,0.1020027,-0.4128349,1.753336,-0.07791642,0.09867926,1.771142,0.02059962,-0.4069969,1.724629,-0.1056524,-0.1748672,1.767761,0.3108062,-0.1610696,1.763436,NA,NA,NotTracked,NotTracked,
0.9438477,-0.324707,0.002929688,0.9111328,0.8496094,0.2080078,-1,-2,-1,0,-4,0,-1,-1,2,11,25,3,8,25,9,-1,-2.9375,-2.9375,-2.9375,94.75,94.75,94.75,2.453705,3.036208,8.484336,7.14687,3.515642,4.763155,-0.08418274,-0.4839733,1.6737,0.2949916,-0.4273409,1.636074,0.1018967,0.3622578,1.748421,-0.03820343,-0.4668722,1.648664,0.2481886,-0.4049007,1.6465,0.1005604,-0.09382878,1.764564,0.1018339,-0.4127933,1.753278,-0.0785005,0.09840351,1.77144,0.02043136,-0.4069791,1.724657,-0.105879,-0.174721,1.768164,0.3157165,-0.1557963,1.755111,NA,NA,NotTracked,NotTracked,
0.9482422,-0.3251953,0.005859375,0.7871094,0.9462891,0.2470703,-2,0,-1,1,-1,-1,-2,-2,-17,-10,-2,-3,-2,-13,-52,-25,-8.5625,-8.5625,-8.5625,46.25,46.25,46.25,2.455415,3.036523,8.474223,7.109059,3.833887,4.941928,-0.08384158,-0.4838035,1.673607,0.2964368,-0.3939587,1.569567,0.1010497,0.3622493,1.748876,-0.03802756,-0.4666051,1.648897,0.2575914,-0.4253247,1.598944,0.1003326,-0.0938778,1.764607,0.1018237,-0.4127933,1.753283,-0.07925467,0.09824137,1.771895,0.02040826,-0.4069843,1.724672,-0.1061072,-0.1746993,1.76802,0.3261021,-0.1388585,1.738101,NA,NA,NotTracked,Unknown,
0.9453125,-0.3300781,-0.006835938,0.6469727,0.9267578,0.3144531,-2,0,-1,0,0,-2,-2,-1,-45,-6,-13,-14,-42,-118,17,-58,-4.25,-4.25,-4.25,-1.375,-1.375,-1.375,2.468209,3.038966,8.446316,7.067837,4.200407,5.058843,-0.08343992,-0.4836318,1.672079,0.2838587,-0.3365842,1.510083,0.1006789,0.3622673,1.749138,-0.03817958,-0.4642172,1.648766,0.3230249,-0.3831975,1.527,0.1000254,-0.09388284,1.76469,0.101451,-0.4126561,1.7531,-0.0796925,0.09839469,1.77208,0.01990236,-0.4067935,1.724497,-0.1064729,-0.1742658,1.767898,0.3355433,-0.1166863,1.721882,NA,NA,NotTracked,Unknown,
0.9350586,-0.3427734,0.00390625,0.2949219,0.8139648,0.3115234,0,-2,0,0,0,-1,0,-3,15,17,8,3,17,78,9,30,-4.6875,-4.6875,-4.6875,-17.5,-17.5,-17.5,2.479072,3.045112,8.423976,7.01961,4.668154,5.160023,-0.08260038,-0.4832899,1.670127,0.2702796,-0.2653912,1.459859,0.1003683,0.3621691,1.749618,-0.03834428,-0.4632341,1.647721,0.225061,-0.275479,1.503,0.09954812,-0.09400287,1.764764,0.1006129,-0.4127641,1.752245,-0.07983543,0.09817818,1.772232,0.01907519,-0.4067297,1.723529,-0.1064786,-0.1731803,1.767842,0.3463763,-0.09792946,1.70254,NA,NA,NotTracked,Unknown,
0.9404297,-0.3222656,0.0009765625,0.1879883,0.6640625,0.2856445,-1,1,-2,-1,-2,-1,0,-1,-10,-4,-1,5,1,0,-23,7,-1.125,-1.125,-1.125,5.125,5.125,5.125,2.492467,3.050971,8.407194,7.008224,4.932773,5.199694,-0.08186156,-0.4839275,1.668843,0.2582118,-0.1940851,1.419197,0.1004,0.361947,1.74993,-0.03794771,-0.4637143,1.646902,0.2116165,-0.2047708,1.461944,0.09930141,-0.09412532,1.764857,0.1001928,-0.4128194,1.751589,-0.07980459,0.09811662,1.77233,0.01876252,-0.4067069,1.72287,-0.106814,-0.1719892,1.767636,0.3577231,-0.08741773,1.677571,NA,NA,NotTracked,Unknown,
0.9375,-0.3271484,0.002929688,0.06542969,0.6694336,0.2617188,-1,1,-1,-2,-1,-1,-1,-2,-12,0,-1,-1,-1,-13,24,-3,1.4375,1.4375,1.4375,20,20,20,2.501994,3.055619,8.398149,7.034279,5.085995,5.220614,-0.08146621,-0.4860282,1.66785,0.2463339,-0.1423201,1.383411,0.1005381,0.3619551,1.750488,-0.03759577,-0.4643129,1.646868,0.2902535,-0.2118264,1.362571,0.09902928,-0.09422977,1.765093,0.09986059,-0.4128402,1.751304,-0.07965877,0.0979389,1.772756,0.01859965,-0.4067048,1.722835,-0.1067593,-0.170791,1.767843,0.3488404,-0.05990826,1.599756,NA,NA,NotTracked,Unknown,
0.9296875,-0.3349609,-0.01416016,0.1118164,0.730957,0.21875,-3,-1,-2,-1,-1,0,-1,0,14,12,5,2,-5,17,37,11,9,9,9,6.9375,6.9375,6.9375,2.51692,3.060589,8.402617,7.05923,5.128528,5.223562,-0.08132508,-0.4858394,1.667541,0.2383969,-0.1150914,1.36042,0.1006193,0.3618451,1.751162,-0.037243,-0.4620975,1.645548,0.2437786,-0.1879521,1.362,0.09871566,-0.09425218,1.76545,0.09954228,-0.4127311,1.751033,-0.0795245,0.09777339,1.773744,0.01844782,-0.4065946,1.722846,-0.1068502,-0.1699427,1.768068,0.3546156,-0.03196456,1.588912,NA,NA,NotTracked,Unknown,
0.9399414,-0.3393555,0.0009765625,-0.0009765625,0.7016602,0.5688477,0,0,1,0,0,-1,-1,-1,2,-5,-5,-5,-9,-33,-12,1,16.625,16.625,16.625,10.0625,10.0625,10.0625,2.529743,3.063062,8.413874,7.042745,5.114665,5.228651,-0.08156784,-0.4861818,1.668786,0.2333822,-0.1012719,1.3468,0.1004278,0.3617529,1.751865,-0.03760057,-0.4647243,1.646583,0.2328097,-0.1712738,1.344818,0.09854151,-0.0943066,1.765637,0.09928434,-0.4126744,1.750671,-0.07933156,0.09740176,1.775179,0.01837543,-0.4065917,1.722846,-0.1068899,-0.1695813,1.768478,0.3364732,-0.0354857,1.554993,NA,NA,NotTracked,Unknown,
0.9389648,-0.3466797,0.006347656,-0.8271484,0.7402344,0.4287109,-2,-2,-1,-1,0,-1,-1,0,-14,-14,-5,-2,2,16,6,1,13.6875,13.6875,13.6875,-0.3125,-0.3125,-0.3125,2.540183,3.063637,8.429129,7.070965,5.154713,5.244131,-0.08153773,-0.4841349,1.670278,0.2297283,-0.09562336,1.340824,0.09984404,0.3616252,1.753096,-0.03779467,-0.4643798,1.646901,0.2212259,-0.1817621,1.346125,0.09831898,-0.09438389,1.765751,0.09900394,-0.4127386,1.750247,-0.0794289,0.09707997,1.776568,0.01827763,-0.4066508,1.722903,-0.1066371,-0.1692215,1.769414,0.3386419,-0.02110757,1.567199,NA,NA,NotTracked,Unknown,
0.9238281,-0.3735352,0.02050781,-0.9453125,0.8227539,0.02294922,-1,-1,-1,-1,-1,-3,-2,-1,5,-2,-2,-2,3,10,8,8,7.0625,7.0625,7.0625,-5.1875,-5.1875,-5.1875,2.540311,3.06497,8.453001,7.041192,5.226727,5.249488,-0.08206539,-0.4840386,1.670778,0.2275866,-0.09176043,1.336722,0.09917342,0.3614965,1.753593,-0.037814,-0.4596368,1.644199,0.2391655,-0.16345,1.333143,0.09814327,-0.09447756,1.765741,0.09846159,-0.4127685,1.749557,-0.07956079,0.09690102,1.778018,0.01809737,-0.4067037,1.722877,-0.1065241,-0.1694466,1.77057,0.3338428,-0.0185121,1.561793,NA,NA,NotTracked,Unknown,
0.9375,-0.3701172,0.009277344,-0.7436523,0.8310547,-0.2255859,1,-3,-1,-1,0,-1,0,0,-1,-7,-4,-2,-3,1,2,-2,3.875,3.875,3.875,6.4375,6.4375,6.4375,2.538938,3.067652,8.464209,7.063458,5.214574,5.255368,-0.08339423,-0.4850616,1.671184,0.2262031,-0.09296805,1.335374,0.09837559,0.3615018,1.754009,-0.03792536,-0.466094,1.644043,0.231056,-0.1763627,1.336682,0.09787841,-0.09455408,1.765751,0.09775903,-0.4127564,1.749035,-0.07994097,0.0970061,1.779483,0.01764129,-0.4066916,1.723015,-0.1064461,-0.1695852,1.771897,0.3344733,-0.01916005,1.561295,NA,NA,NotTracked,Unknown,
0.9389648,-0.3540039,0.01464844,-0.01464844,0.9667969,0.2460938,0,-1,-3,0,0,-2,-2,-1,-12,-3,-2,-3,-3,-4,-1,-2,-2.9375,-2.9375,-2.9375,22.625,22.625,22.625,2.536831,3.070322,8.465737,7.078325,5.187124,5.257776,-0.08432335,-0.4844683,1.671912,0.2248003,-0.09494776,1.333549,0.09773136,0.361324,1.75437,-0.03830257,-0.4654825,1.644439,0.2133518,-0.1777117,1.333667,0.09739553,-0.09467451,1.765744,0.09686127,-0.4127332,1.748533,-0.08017522,0.09687355,1.780531,0.01690304,-0.4066707,1.723062,-0.1064646,-0.1698592,1.772677,0.334857,-0.01974253,1.56105,NA,NA,NotTracked,Unknown,
0.9326172,-0.3496094,0.008300781,-0.03173828,1.024902,0.2290039,-2,-1,0,-2,1,-1,-1,-2,65,6,0,1,0,0,3,19,-3.625,-3.625,-3.625,-13,-13,-13,2.531313,3.07168,8.466022,7.080134,5.177553,5.254074,-0.08431108,-0.4841766,1.669953,0.2250885,-0.09683983,1.327899,0.09721979,0.3614252,1.754406,-0.03813013,-0.4674797,1.643893,0.259544,-0.1701731,1.313333,0.09700527,-0.0947597,1.765562,0.09629161,-0.4127475,1.747981,-0.08047087,0.09704447,1.781023,0.01651602,-0.4067012,1.722976,-0.1065841,-0.170115,1.773076,0.3363535,-0.02131449,1.561548,NA,NA,NotTracked,Unknown,
0.934082,-0.3500977,0.004882813,0.02587891,0.9599609,0.2631836,-1,0,-1,-1,0,-4,1,-2,6,-10,5,3,-1,0,0,-5,-1.5625,-1.5625,-1.5625,-0.25,-0.25,-0.25,2.526099,3.070683,8.467323,7.068938,5.174963,5.259348,-0.08642118,-0.485169,1.671409,0.2257816,-0.09987387,1.322528,0.09673827,0.3615331,1.754362,-0.04143611,-0.4623224,1.644862,0.2638501,-0.163833,1.301333,0.09651775,-0.09481893,1.765391,0.09559031,-0.4127865,1.74759,-0.08065509,0.0971403,1.781391,0.01584668,-0.4067115,1.722895,-0.1069443,-0.1697792,1.773599,0.3380672,-0.02280361,1.562436,NA,NA,NotTracked,Unknown,
0.9316406,-0.3515625,0.008300781,-0.02636719,0.6689453,0.2763672,-1,0,-2,-2,-1,0,0,-2,-13,56,39,14,6,6,12,34,-2.875,-2.875,-2.875,17.0625,17.0625,17.0625,2.522336,3.069173,8.466904,7.07381,5.164931,5.302421,-0.0869323,-0.4853265,1.67096,0.2196467,-0.09423675,1.300367,0.096458,0.3615638,1.754285,-0.04234193,-0.4637949,1.645389,0.2537102,-0.126412,1.253857,0.09616426,-0.09487624,1.765184,0.09509306,-0.4127929,1.747113,-0.08109092,0.0970893,1.781756,0.0153539,-0.406687,1.722612,-0.107362,-0.1703228,1.773848,0.3392293,-0.02751916,1.566316,NA,NA,NotTracked,Unknown,
0.9345703,-0.3461914,0.01464844,-0.4101563,1.020508,0.02294922,-1,-1,-1,-1,-2,-3,-2,-1,-3,15,-6,-7,-7,-5,-6,-39,-5.5,-5.5,-5.5,175.625,175.625,175.625,2.51684,3.065942,8.460384,7.262359,5.158483,5.30604,-0.08755283,-0.4852859,1.671942,0.203911,-0.06609172,1.273483,0.09638207,0.3616012,1.754104,-0.04248295,-0.462831,1.645344,0.1716306,-0.1104535,1.281,0.09562127,-0.09503494,1.765082,0.09463722,-0.412964,1.746953,-0.08134246,0.0969945,1.781858,0.0148023,-0.4068594,1.722615,-0.1076606,-0.1705305,1.773814,0.3605655,-0.04366588,1.595512,NA,NA,NotTracked,Unknown,
0.9560547,-0.3530273,0.001953125,0.175293,1.430664,0.2294922,-1,-1,-1,-2,-1,-2,0,0,121,34,21,28,13,4,1,66,-4.375,-4.375,-4.375,-30.375,-30.375,-30.375,2.51047,3.065727,8.457644,7.405188,5.088881,5.252528,-0.08761317,-0.4844066,1.670247,0.2138101,-0.03319664,1.299844,0.09620585,0.361667,1.753853,-0.04281826,-0.4626256,1.644792,0.1721555,-0.05496865,1.268923,0.0953776,-0.09501825,1.764964,0.09449838,-0.4129214,1.746841,-0.08176642,0.0969835,1.781772,0.01458755,-0.4068764,1.722605,-0.107962,-0.1705138,1.773716,0.3333604,-0.07111355,1.523078,NA,NA,NotTracked,Unknown,
0.9492188,-0.3530273,-0.008300781,-0.1992188,0.940918,0.0859375,0,0,0,-1,-2,-2,0,-2,-107,-104,-33,3,6,-29,-22,-59,-2.8125,-2.8125,-2.8125,12.1875,12.1875,12.1875,2.510377,3.066123,8.456043,7.370278,5.091393,5.274601,-0.0881089,-0.4849328,1.672176,0.2163179,-0.02042225,1.321085,0.09615248,0.3616667,1.753745,-0.04288265,-0.4671808,1.64554,0.1728698,-0.03799718,1.292316,0.09525497,-0.09498073,1.764923,0.09441704,-0.4127311,1.746854,-0.08195266,0.09705165,1.781809,0.01449308,-0.4067695,1.722692,-0.1082896,-0.1703119,1.773637,0.3351512,-0.06558222,1.532245,NA,NA,NotTracked,Open,
0.9335938,-0.3491211,0.01464844,-0.1635742,1.021973,0.01806641,-2,-2,-3,1,0,0,2,0,86,127,27,1,1,8,17,45,-6.875,-6.875,-6.875,15.4375,15.4375,15.4375,2.496457,3.062867,8.455881,7.414327,5.091038,5.294661,-0.08884761,-0.4865383,1.67111,0.2131985,-0.02134996,1.331716,0.09627277,0.3613888,1.753294,-0.04301594,-0.4648987,1.645328,0.1665434,-0.03729102,1.298235,0.0951919,-0.09501912,1.764928,0.094387,-0.4127061,1.746863,-0.08218333,0.09694188,1.781699,0.01443997,-0.4067649,1.722743,-0.1083729,-0.1707199,1.773467,0.3353872,-0.06728584,1.532383,NA,NA,NotTracked,Open,
0.9570313,-0.3432617,0.005371094,-0.05615234,1.001465,0.0390625,-2,0,-1,-3,0,-1,0,0,-6,1,14,8,3,4,1,23,-6.4375,-6.4375,-6.4375,-8.375,-8.375,-8.375,2.485303,3.061707,8.455759,7.406379,5.078876,5.301001,-0.08824986,-0.4868321,1.671566,0.2133123,-0.0241759,1.338101,0.0965642,0.3614351,1.753093,-0.04348407,-0.4654329,1.646242,0.1686702,-0.04244084,1.309097,0.09517173,-0.09501075,1.764993,0.09442542,-0.4125441,1.747004,-0.08221408,0.09709423,1.781635,0.01447052,-0.4066747,1.722933,-0.1087039,-0.1701891,1.773495,0.3366142,-0.06919652,1.536327,NA,NA,NotTracked,Open,
0.925293,-0.3212891,-0.009277344,-0.6118164,0.8481445,0.2783203,0,-3,0,-2,-2,-2,-2,-1,45,53,16,6,4,8,11,19,-0.9375,-0.9375,-0.9375,-15.875,-15.875,-15.875,2.491781,3.06183,8.447262,7.385956,5.092365,5.306464,-0.08778679,-0.4871952,1.671186,0.214719,-0.02685149,1.338674,0.09699542,0.3613891,1.752891,-0.0437216,-0.4653082,1.646619,0.1707193,-0.04454046,1.313174,0.09522016,-0.095018,1.765084,0.09449994,-0.4124693,1.747167,-0.08210744,0.09711482,1.781543,0.01450687,-0.4066398,1.723023,-0.1087409,-0.1694331,1.773488,0.3378358,-0.07031924,1.541072,NA,NA,NotTracked,Open,
0.9301758,-0.3544922,-0.004882813,1.036133,1.133301,0.2729492,-1,-1,-2,-1,0,-1,-2,-2,41,19,7,-1,-1,-3,1,25,-2.375,-2.375,-2.375,2.1875,2.1875,2.1875,2.484068,3.061732,8.448726,7.349213,5.002613,5.296395,-0.08757718,-0.4866681,1.672807,0.2168412,-0.02900029,1.339797,0.09760301,0.3613689,1.752906,-0.04355921,-0.4642385,1.647478,0.1717593,-0.0461656,1.311411,0.09532023,-0.0949975,1.765379,0.09466185,-0.4123216,1.747528,-0.08207343,0.09710628,1.781535,0.01463647,-0.4065554,1.723336,-0.1087663,-0.1694918,1.773533,0.3391652,-0.07271971,1.545375,NA,NA,NotTracked,Open,
0.9399414,-0.3461914,-0.004394531,-0.09130859,0.8696289,0.4345703,1,-1,-1,1,-1,-1,-1,-1,-49,-23,-13,-5,-1,-1,-3,-31,1.125,1.125,1.125,-2.25,-2.25,-2.25,2.482919,3.061962,8.451289,7.328449,4.987646,5.300603,-0.08743916,-0.4858829,1.673185,0.2168537,-0.03061606,1.340979,0.09835956,0.3612752,1.753033,-0.04402285,-0.4620286,1.648275,0.177844,-0.05285467,1.318875,0.09552699,-0.09497518,1.765737,0.09474022,-0.4122089,1.747924,-0.0817903,0.097163,1.781558,0.01467251,-0.4064379,1.723734,-0.1086476,-0.1694361,1.773749,0.3401892,-0.07554813,1.545929,NA,NA,NotTracked,Open,
0.9291992,-0.3647461,0.0009765625,-0.5083008,0.7646484,0.002441406,-1,0,0,-1,-2,-3,-1,-2,29,-22,-9,-1,-2,-4,-7,-14,-0.375,-0.375,-0.375,-5.4375,-5.4375,-5.4375,2.483222,3.064443,8.450519,7.347493,5.007052,5.305027,-0.08757212,-0.4863773,1.674501,0.2178239,-0.03166989,1.343419,0.09905305,0.3611683,1.753101,-0.04374398,-0.4644224,1.648053,0.1708682,-0.05081729,1.316638,0.09582327,-0.09504161,1.766228,0.0948494,-0.4122615,1.748214,-0.0811981,0.09725292,1.781906,0.01475389,-0.40644,1.723999,-0.1085647,-0.1695183,1.773915,0.3418549,-0.07768654,1.548833,NA,NA,NotTracked,Open,
0.9345703,-0.3505859,-0.004882813,0.6811523,0.953125,0.7265625,-2,-2,-3,-1,-1,-2,-2,0,-36,-27,-4,-2,0,-2,-2,1,-2.125,-2.125,-2.125,-15.5,-15.5,-15.5,2.48102,3.069066,8.450024,7.269342,4.947351,5.313013,-0.08726365,-0.4864742,1.673012,0.2192075,-0.03630412,1.346274,0.09961831,0.3609597,1.753241,-0.04325733,-0.464279,1.647281,0.173738,-0.05137555,1.317024,0.09609961,-0.0952233,1.766443,0.09493108,-0.4124625,1.748346,-0.08069003,0.09714379,1.782177,0.01479957,-0.4065445,1.724084,-0.1084145,-0.169158,1.774225,0.3426695,-0.07701666,1.553364,NA,NA,NotTracked,Open,
0.9233398,-0.3447266,-0.006835938,-0.2709961,0.6245117,-0.007324219,-3,-1,-1,-1,-2,-2,-1,-2,0,-2,-2,-3,-3,-4,1,-6,-0.625,-0.625,-0.625,-58.625,-58.625,-58.625,2.479079,3.069947,8.448971,7.119467,4.888309,5.330576,-0.08614967,-0.487572,1.674211,0.2178493,-0.05441815,1.351526,0.1007369,0.3610575,1.754115,-0.04298056,-0.4681165,1.648397,0.1751538,-0.06788581,1.3286,0.09632513,-0.09525503,1.766847,0.09494799,-0.4124925,1.748625,-0.08041815,0.09714074,1.782602,0.01480868,-0.4065028,1.724348,-0.1082478,-0.1695709,1.774397,0.3464936,-0.06802066,1.587979,NA,NA,NotTracked,Open,
0.9301758,-0.3417969,-0.006835938,0.09179688,0.715332,0.09472656,-1,-1,-2,1,-3,-3,-1,-1,-6,-1,-2,-3,-6,-11,-24,-6,2.6875,2.6875,2.6875,-80.75,-80.75,-80.75,2.479835,3.067882,8.450887,7.034742,4.815826,5.322958,-0.0865499,-0.4874614,1.674409,0.2093569,-0.09355446,1.337781,0.1012444,0.3612944,1.754341,-0.04310759,-0.4662543,1.647867,0.1755762,-0.1086723,1.333,0.0963594,-0.09514686,1.767006,0.09483059,-0.4123732,1.748813,-0.08003981,0.09731952,1.783075,0.01468857,-0.4063508,1.724435,-0.1080538,-0.1703069,1.774534,0.3524096,-0.09035117,1.558214,NA,NA,NotTracked,Unknown,
0.9321289,-0.340332,-0.002929688,-0.1269531,1.030273,0.2167969,-3,0,-2,-1,-4,-2,-1,-2,-3,-16,-15,-8,-6,-9,-10,-6,4.875,4.875,4.875,-107.6875,-107.6875,-107.6875,2.480881,3.066946,8.452744,6.904837,4.681768,5.291672,-0.08785173,-0.4862459,1.674677,0.2183665,-0.1710636,1.368804,0.1013063,0.3612805,1.754358,-0.04426117,-0.4615213,1.649516,0.2508373,-0.1656268,1.350929,0.09635571,-0.09508401,1.767027,0.09479436,-0.4123725,1.74885,-0.07978777,0.097479,1.783207,0.01460002,-0.4062872,1.724398,-0.1078263,-0.1703622,1.774804,0.3675171,-0.08929804,1.662337,NA,NA,NotTracked,Closed,
0.9355469,-0.3432617,-0.005859375,0.3183594,0.6728516,0.3085938,-2,1,-2,-2,0,-2,-1,-1,-2,-4,0,-1,0,0,10,0,-6,-6,-6,-82,-82,-82,2.468092,3.056288,8.475613,6.675439,4.332273,5.214179,-0.08761004,-0.4874117,1.67717,0.2351388,-0.2421307,1.438565,0.1012994,0.3613167,1.754331,-0.04409587,-0.4636351,1.650883,0.2609861,-0.2234418,1.417585,0.09628537,-0.09501334,1.766986,0.09422858,-0.4124116,1.748979,-0.07976267,0.0975533,1.783256,0.01392041,-0.4060377,1.724299,-0.1074856,-0.1706455,1.775248,0.3594443,-0.1035575,1.680775,NA,NA,NotTracked,Unknown,
0.9257813,-0.4042969,0.02099609,0.5776367,0.5673828,0.4375,0,0,-1,0,0,-1,-3,0,2,8,7,3,2,2,-2,-2,-22.1875,-22.1875,-22.1875,48.5625,48.5625,48.5625,2.439557,3.04706,8.474662,6.670785,4.010515,5.22771,-0.08784062,-0.48539,1.679671,0.2429704,-0.3032995,1.484296,0.1013177,0.361283,1.753941,-0.04445449,-0.4567862,1.653417,0.2551798,-0.3586732,1.4836,0.09620912,-0.09499349,1.766931,0.09358628,-0.4126628,1.749346,-0.07960667,0.09759723,1.782657,0.01328621,-0.4059044,1.724222,-0.107521,-0.1704874,1.775533,0.3276835,-0.1059606,1.734081,NA,NA,NotTracked,Unknown,
0.9296875,-0.3725586,0.01123047,0.6669922,1.006348,0.1782227,0,-3,-1,-1,-1,-1,-2,-2,10,0,-2,0,0,-2,2,1,-9.125,-9.125,-9.125,-48.125,-48.125,-48.125,2.431474,3.045386,8.457914,6.811789,3.600197,5.141316,-0.08690085,-0.4856348,1.678148,0.2492752,-0.3601573,1.530076,0.101438,0.3613277,1.753147,-0.04363272,-0.4625738,1.652118,0.2198891,-0.3542914,1.63736,0.0960776,-0.09496108,1.766904,0.09312476,-0.4128235,1.749951,-0.07941671,0.09787057,1.780749,0.01269534,-0.4057374,1.724328,-0.1073803,-0.1709984,1.775154,0.3236806,-0.1073924,1.736649,NA,NA,NotTracked,Unknown,
0.9550781,-0.2890625,-0.01806641,0.9101563,0.5517578,0.1035156,-2,-1,-1,0,0,-2,-4,0,2,0,1,-1,-1,0,-2,-1,-2.5,-2.5,-2.5,-153.25,-153.25,-153.25,2.453082,3.048396,8.425764,6.805733,3.297821,4.881191,-0.08694421,-0.4847818,1.67503,0.2680212,-0.4070948,1.570044,0.1017411,0.3616651,1.75126,-0.04377601,-0.4620154,1.651347,0.2291882,-0.4157935,1.550469,0.09617655,-0.09484282,1.766705,0.09336714,-0.4127808,1.75048,-0.07941539,0.09790057,1.778759,0.01267377,-0.4056876,1.724402,-0.1070273,-0.1715231,1.773359,0.3115015,-0.127186,1.74006,NA,NA,NotTracked,Unknown,
0.9394531,-0.3383789,-0.02441406,1.129395,0.4365234,0.04492188,0,0,-1,-2,-1,0,-1,-2,-3,-4,-2,-1,-1,-1,0,1,-4.6875,-4.6875,-4.6875,-78,-78,-78,2.451439,3.048682,8.414373,7.062331,3.032484,4.4096,-0.08587589,-0.4848081,1.674057,0.2844964,-0.4420868,1.627733,0.1018709,0.3618805,1.750577,-0.04342777,-0.4618896,1.651017,0.2337084,-0.4000511,1.641,0.09647185,-0.09479463,1.766419,0.09420089,-0.4128862,1.750857,-0.07941375,0.097697,1.77791,0.01322968,-0.4058596,1.724373,-0.1070839,-0.1729894,1.771317,0.3058273,-0.1468347,1.738702,NA,NA,NotTracked,Unknown,
0.9262695,-0.3334961,-0.04199219,1.04248,0.3422852,-0.04882813,-2,-2,-1,-1,-1,-2,0,-1,0,-3,-1,-2,-3,-2,-1,-1,8.4375,8.4375,8.4375,-12.875,-12.875,-12.875,2.448527,3.046161,8.426121,7.638272,2.875349,3.724888,-0.08556879,-0.4838111,1.672749,0.3009464,-0.4706666,1.666476,0.1019057,0.3617847,1.749757,-0.04298561,-0.4612618,1.65033,0.2572716,-0.4421244,1.652636,0.09694643,-0.09479894,1.765978,0.0958687,-0.4132531,1.75098,-0.07930142,0.09745972,1.776003,0.01480296,-0.4064092,1.724086,-0.1071674,-0.173672,1.770378,0.3028842,-0.1566814,1.740864,NA,NA,NotTracked,NotTracked,
0.9370117,-0.3466797,-0.01757813,0.9702148,0.4262695,0.03662109,-3,0,-2,0,-2,-1,-1,-2,-2,2,-2,-1,0,-1,1,2,-1.0625,-1.0625,-1.0625,28.0625,28.0625,28.0625,2.440255,3.046187,8.438918,7.807492,2.853306,3.586146,-0.08606742,-0.4846422,1.672182,0.311354,-0.4742076,1.694983,0.1020769,0.3618349,1.749326,-0.04312231,-0.4625979,1.649879,0.2672065,-0.4510861,1.667267,0.09716443,-0.09478483,1.765699,0.09674186,-0.4134923,1.751145,-0.07938343,0.09758642,1.7754,0.01560531,-0.406811,1.723974,-0.1072686,-0.173977,1.769709,0.3036659,-0.165958,1.750203,NA,NA,NotTracked,NotTracked,
0.9448242,-0.3286133,0.003417969,0.9482422,0.3813477,0.1430664,-2,-2,0,-2,0,-1,-3,-1,0,-1,-1,1,-2,-2,-2,-1,-8.8125,-8.8125,-8.8125,-24.25,-24.25,-24.25,2.430261,3.044206,8.440301,7.676208,2.867399,3.699342,-0.08660775,-0.4841352,1.670318,0.317385,-0.4748974,1.706828,0.1022221,0.361834,1.748924,-0.04315243,-0.4618421,1.649062,0.2733917,-0.4500033,1.678375,0.0974879,-0.09469211,1.764881,0.09717708,-0.4135524,1.751003,-0.07942987,0.09776989,1.773552,0.01612489,-0.4069864,1.723606,-0.107499,-0.1741727,1.768648,0.3068703,-0.1685996,1.763742,NA,NA,NotTracked,NotTracked,
0.9360352,-0.3334961,-0.008789063,0.875,0.3754883,0.152832,-1,-3,-2,-2,0,0,0,1,0,-3,-1,-2,1,-1,0,0,-14.75,-14.75,-14.75,17.9375,17.9375,17.9375,2.416353,3.03775,8.431972,7.493182,2.887827,3.888126,-0.08676728,-0.4838825,1.670402,0.3182546,-0.4780064,1.709454,0.1023897,0.3620275,1.748681,-0.04320455,-0.4622378,1.64895,0.277664,-0.4613009,1.682625,0.09774227,-0.09458788,1.764241,0.09752288,-0.4135701,1.751004,-0.07954162,0.09788085,1.771402,0.01649156,-0.4071131,1.723412,-0.1076031,-0.174531,1.767745,0.3093042,-0.1682005,1.773999,NA,NA,NotTracked,NotTracked,
0.9375,-0.3295898,-0.004882813,0.9194336,0.3671875,0.05908203,-1,0,1,0,-1,-1,0,-1,-1,-1,-1,-1,-1,-2,-1,-1,-16.875,-16.875,-16.875,-20.6875,-20.6875,-20.6875,2.411296,3.032592,8.409196,7.392457,2.928772,3.99216,-0.0861488,-0.4832278,1.670912,0.3191782,-0.4745878,1.710535,0.1027019,0.36222,1.748307,-0.04198123,-0.4750727,1.646982,0.2804855,-0.4668353,1.684694,0.09791481,-0.09443986,1.763973,0.09797709,-0.4134951,1.751209,-0.07948332,0.09801147,1.769038,0.01687424,-0.4071147,1.723287,-0.1078836,-0.1745898,1.766476,0.3104013,-0.1680201,1.77964,NA,NA,NotTracked,NotTracked,
