ALX,ALY,ALZ,ARX,ARY,ARZ,EMG0L,EMG1L,EMG2L,EMG3L,EMG4L,EMG5L,EMG6L,EMG7L,EMG0R,EMG1R,EMG2R,EMG3R,EMG4R,EMG5R,EMG6R,EMG7R,GLX,GLY,GLZ,GRX,GRY,GRZ,ORL,OPL,OYL,ORR,OPR,OYR,LHNX,LHNY,LHNZ,RHNX,RHNY,RHNZ,HX,HY,HZ,LTX,LTY,LTZ,RTX,RTY,RTZ,SpineMidX,SpineMidY,SpineMidZ,SpineBaseX,SpineBaseY,SpineBaseZ,ShoulderLeftX,ShoulderLeftY,ShoulderLeftZ,ShoulderRightX,ShoulderRightY,ShoulderRightZ,ElbowLeftX,ElbowLeftY,ElbowLeftZ,ElbowRightX,ElbowRightY,ElbowRightZ,Myo_Pose_left,Myo_Pose_Right,Kinect_pose_left,Kinect_pose_right
0.9584961,-0.2480469,-0.08837891,0.9111328,0.3383789,0.07861328,-2,-2,0,-1,-3,1,-2,-2,-2,1,-1,0,-1,-1,3,0,0.0625,0.0625,0.0625,3.3125,3.3125,3.3125,1.960705,2.918014,7.059558,7.104242,3.081365,4.590753,-0.1164344,-0.4657772,1.740445,0.2918865,-0.4494658,1.660613,0.1046281,0.3620583,1.741726,-0.08236936,-0.4707754,1.702554,0.3361604,-0.4377795,1.663726,0.1006197,-0.09493025,1.756703,0.1011857,-0.4145011,1.744524,-0.07787681,0.09947655,1.766244,0.02002444,-0.4079411,1.716399,-0.1151731,-0.1712359,1.787051,0.3080995,-0.1704346,1.756403,NA,NA,NotTracked,NotTracked,
0.9702148,-0.2475586,-0.08691406,0.9135742,0.3374023,0.08007813,-1,0,0,-3,-1,-2,-2,-1,-2,0,1,0,0,-2,-2,1,0.625,0.625,0.625,3.8125,3.8125,3.8125,1.962576,2.917918,7.058311,7.102007,3.086161,4.60161,-0.115859,-0.4683102,1.741307,0.2913733,-0.449174,1.660184,0.1046526,0.3620766,1.742278,-0.08505595,-0.4882519,1.701412,0.3356566,-0.4383566,1.663364,0.1006193,-0.09491495,1.756963,0.101157,-0.4144741,1.744536,-0.07795545,0.09947462,1.76728,0.01999366,-0.4079103,1.716431,-0.1152312,-0.1712805,1.787499,0.3080868,-0.17049,1.75645,NA,NA,NotTracked,NotTracked,
0.9482422,-0.2519531,-0.09326172,0.9047852,0.3696289,0.09667969,-2,-2,-1,0,-2,-1,-2,-2,1,0,0,1,-1,0,0,0,-0.25,-0.25,-0.25,17.4375,17.4375,17.4375,1.962402,2.918558,7.058436,7.098895,3.093729,4.632313,-0.1161331,-0.4716324,1.742072,0.2911008,-0.4492336,1.660033,0.1045427,0.3621733,1.743545,-0.08363099,-0.4783525,1.702881,0.3309197,-0.4663642,1.661375,0.100574,-0.09495816,1.757419,0.1011319,-0.4144909,1.744592,-0.07800731,0.09954669,1.768463,0.01996474,-0.4079248,1.716504,-0.1151682,-0.1707134,1.788468,0.3081321,-0.170495,1.756585,NA,NA,NotTracked,NotTracked,
0.9628906,-0.2607422,-0.07861328,0.9008789,0.3540039,0.1064453,-1,-3,0,0,0,-2,0,0,1,0,-1,-1,-1,1,0,-2,-2,-2,-2,-0.875,-0.875,-0.875,1.962179,2.919694,7.054982,7.084398,3.104079,4.657366,-0.1158404,-0.470983,1.742642,0.2913015,-0.4477027,1.659299,0.1045128,0.3621106,1.744378,-0.08335686,-0.4757799,1.701084,0.3353701,-0.4307537,1.661278,0.1004484,-0.09498232,1.757993,0.1010092,-0.4144534,1.744818,-0.07810427,0.09961616,1.768852,0.01982488,-0.4079031,1.716795,-0.1150769,-0.1712324,1.788903,0.3081615,-0.1702846,1.756682,NA,NA,NotTracked,NotTracked,
0.9658203,-0.234375,-0.08496094,0.9165039,0.3310547,0.09033203,-1,0,-2,-3,-3,-1,-1,-2,0,-1,-1,-2,-2,0,1,2,1.375,1.375,1.375,3.4375,3.4375,3.4375,1.971003,2.920852,7.04725,7.067955,3.107061,4.671141,-0.117131,-0.4675289,1.743488,0.2906793,-0.4464033,1.658561,0.1044198,0.3621585,1.744978,-0.08496492,-0.4866916,1.703714,0.3387043,-0.4319538,1.667833,0.1003299,-0.09497701,1.758742,0.1009215,-0.4144587,1.744996,-0.07807487,0.09978794,1.769822,0.01974671,-0.4078867,1.71696,-0.1150439,-0.1709087,1.789523,0.3082514,-0.1703121,1.756739,NA,NA,NotTracked,NotTracked,
0.9599609,-0.2568359,-0.08007813,1.137207,0.5893555,-0.08154297,-1,-3,-1,-1,-2,0,0,-3,6,-3,-12,0,5,4,4,5,-3.3125,-3.3125,-3.3125,-24.875,-24.875,-24.875,1.975648,2.92186,7.037483,7.027165,3.138171,4.717173,-0.1171271,-0.4683923,1.743423,0.2893505,-0.4452914,1.657131,0.1043263,0.3621375,1.745845,-0.08374698,-0.4799489,1.704467,0.3310395,-0.4364845,1.656635,0.1003061,-0.09491073,1.759227,0.1008965,-0.4144135,1.745112,-0.07819646,0.09955298,1.770671,0.01971672,-0.4078555,1.717072,-0.115051,-0.1696583,1.790199,0.308223,-0.1700164,1.756821,NA,NA,NotTracked,NotTracked,
0.9785156,-0.2612305,-0.09326172,1.262695,0.8222656,0.597168,1,-1,-2,-1,0,-1,-4,-1,-20,-23,-14,-22,-16,-7,-19,-6,6.6875,6.6875,6.6875,57.375,57.375,57.375,1.978632,2.924252,7.039502,6.722964,3.344385,5.075097,-0.1170407,-0.4680873,1.744011,0.2751685,-0.4237293,1.639762,0.1041516,0.3621446,1.74686,-0.08377537,-0.4850901,1.702,0.3201285,-0.414744,1.63195,0.1002634,-0.09488317,1.759784,0.1008896,-0.4143468,1.745474,-0.07807805,0.09959504,1.771366,0.01964468,-0.4078046,1.717369,-0.1150553,-0.1697278,1.79058,0.3103575,-0.1657849,1.76166,NA,NA,NotTracked,NotTracked,
0.9482422,-0.2114258,-0.1225586,1.167969,1.16748,1.049805,-1,0,-3,1,0,-1,-2,-1,-15,0,10,41,-17,-7,-9,-9,9,9,9,-111.4375,-111.4375,-111.4375,1.981618,2.924476,7.047255,6.353004,4.090821,5.47592,-0.1127267,-0.4632736,1.741228,0.2350344,-0.3594013,1.593153,0.1042516,0.3620303,1.747221,-0.07544293,-0.4499229,1.690136,0.2252702,-0.3451214,1.498714,0.09986597,-0.09473534,1.760473,0.1000335,-0.414124,1.746172,-0.07814885,0.09974314,1.772041,0.01857006,-0.4072301,1.717895,-0.1146604,-0.1709098,1.791381,0.3168231,-0.1371842,1.780157,NA,NA,NotTracked,Closed,
0.9912109,-0.3144531,-0.04785156,-0.4204102,0.5439453,0.4916992,0,0,-2,0,-2,-1,-1,-1,27,24,22,-9,-1,-28,0,4,-36.3125,-36.3125,-36.3125,-166.75,-166.75,-166.75,1.936092,2.915864,7.045835,6.020837,4.949748,5.577194,-0.1176087,-0.4647902,1.745771,0.2301123,-0.1618231,1.492322,0.1044998,0.361933,1.747173,-0.08425592,-0.4801157,1.705045,0.2387538,-0.1545846,1.454974,0.0998832,-0.09464318,1.760927,0.09962142,-0.4138426,1.746615,-0.0780127,0.09982175,1.772042,0.01834306,-0.4069696,1.718257,-0.1146829,-0.1702557,1.791658,0.3215405,-0.1111732,1.772816,NA,NA,NotTracked,Unknown,
0.9086914,-0.2597656,-0.06933594,-0.3740234,0.3583984,0.3652344,-1,-3,-1,-3,0,-1,-1,-1,-58,-22,-12,0,4,28,-18,-19,-16.3125,-16.3125,-16.3125,61.5,61.5,61.5,1.911425,2.915348,7.035707,6.025958,5.765834,5.627848,-0.1168105,-0.4641576,1.74579,0.2236982,0.02470478,1.496876,0.1064076,0.3610696,1.746511,-0.08140944,-0.4688007,1.705722,0.1803715,0.05671897,1.498538,0.1003966,-0.09468697,1.762319,0.09981447,-0.4134981,1.747488,-0.07707608,0.1000477,1.77167,0.01869586,-0.4065396,1.71922,-0.1148775,-0.168991,1.791527,0.3115681,-0.1319993,1.671659,NA,NA,NotTracked,Unknown,
0.9741211,-0.2675781,-0.06835938,-0.6064453,0.5976563,0.6586914,-1,-1,-1,0,-1,-2,-1,-2,33,39,6,0,-10,11,27,-17,-23.4375,-23.4375,-23.4375,-11.5625,-11.5625,-11.5625,1.945684,2.923499,6.95717,6.165986,6.369433,5.760971,-0.1164202,-0.460745,1.74112,0.2326632,0.1557449,1.52045,0.1071039,0.3605016,1.746306,-0.08350727,-0.4726066,1.705095,0.2064591,0.1420761,1.491865,0.1009515,-0.09550869,1.763909,0.09945032,-0.4153258,1.747777,-0.07563488,0.100502,1.771433,0.01795973,-0.4078064,1.719944,-0.1148857,-0.1671612,1.790527,0.3268257,-0.110112,1.62228,NA,NA,NotTracked,Unknown,
0.96875,-0.2822266,-0.07910156,-0.5371094,0.03808594,0.4575195,0,-2,-1,-2,-1,-2,-2,-2,127,41,-7,-13,-11,-4,-5,19,-7.25,-7.25,-7.25,-31.0625,-31.0625,-31.0625,1.996738,2.938453,6.889748,6.358633,6.725105,6.094089,-0.1122091,-0.4569188,1.731201,0.2289461,0.238647,1.535432,0.1076614,0.3586573,1.746541,-0.07242005,-0.4387578,1.687767,0.1982803,0.2313008,1.512145,0.1033868,-0.09554324,1.765605,0.09916385,-0.4154721,1.747875,-0.07028117,0.1001426,1.771842,0.01679038,-0.4077525,1.720368,-0.1150144,-0.1658635,1.789254,0.3291717,-0.03739714,1.555281,NA,NA,NotTracked,Open,
0.9213867,-0.184082,-0.1054688,-0.4726563,0.06005859,0.3935547,1,0,-1,-1,0,-3,-1,0,32,19,-1,2,0,10,-1,14,18.25,18.25,18.25,9.25,9.25,9.25,2.101063,2.971252,6.812045,6.575034,6.81314,6.340407,-0.1117444,-0.4570987,1.725986,0.1846963,0.3467246,1.59159,0.1077889,0.3573342,1.746847,-0.07022742,-0.4505877,1.683706,0.1460378,0.3445467,1.634917,0.1037655,-0.09527657,1.76639,0.09878715,-0.4149129,1.747831,-0.06594596,0.09984675,1.77265,0.0159849,-0.40685,1.720697,-0.1153379,-0.1648465,1.788509,0.3138658,0.04044726,1.519178,NA,NA,NotTracked,Unknown,
0.9663086,-0.2783203,-0.05957031,-0.5537109,0.2978516,0.3349609,-1,-2,1,0,0,0,0,-2,6,2,0,2,2,-8,9,16,25.5,25.5,25.5,-6,-6,-6,2.127293,2.985691,6.827279,6.774048,6.855327,6.555676,-0.1115381,-0.4631358,1.728142,0.1966798,0.3307888,1.568675,0.1072196,0.3563662,1.7474,-0.07035666,-0.4605705,1.686133,0.145003,0.3131872,1.642667,0.1039427,-0.09476349,1.766863,0.09851491,-0.4142965,1.747851,-0.06342723,0.09964569,1.774806,0.01563369,-0.4061113,1.721435,-0.1151736,-0.1630226,1.789026,0.3096873,0.05179404,1.51704,NA,NA,NotTracked,Open,
0.9887695,-0.2475586,-0.09130859,-0.7924805,0.3442383,0.1337891,-1,-1,0,0,0,1,-2,-1,50,7,0,1,7,4,0,-20,24.625,24.625,24.625,-6.125,-6.125,-6.125,2.103521,2.972381,6.899599,6.9165,6.913719,6.737977,-0.1101071,-0.4638474,1.731863,0.1905658,0.3313871,1.570276,0.1058861,0.3558779,1.74773,-0.06705411,-0.4570148,1.67888,0.2690732,0.3204716,1.586929,0.1039606,-0.09457415,1.766971,0.09834048,-0.4139389,1.747729,-0.06245466,0.09952524,1.776514,0.01540476,-0.4058157,1.722146,-0.1145494,-0.1619438,1.790387,0.3005039,0.06993724,1.509187,NA,NA,NotTracked,Unknown,
0.9589844,-0.2915039,-0.08496094,-0.8935547,0.4296875,0.0859375,0,-1,0,-1,-2,-1,0,0,-40,-16,-6,-6,-5,-3,10,1,14.875,14.875,14.875,-24.375,-24.375,-24.375,2.086704,2.959947,6.947607,6.941181,6.917405,6.786894,-0.1084303,-0.4544318,1.73761,0.1838494,0.3353827,1.573182,0.103879,0.3547353,1.747914,-0.0675929,-0.4490632,1.685,0.1450398,0.3125519,1.6405,0.1038581,-0.0945242,1.767002,0.09826022,-0.4139032,1.747633,-0.06171808,0.09925141,1.77775,0.01530129,-0.4058785,1.722525,-0.1131788,-0.1606388,1.792842,0.2944294,0.07605448,1.504664,NA,NA,NotTracked,Open,
0.940918,-0.3295898,-0.08203125,-0.9311523,0.3740234,0.1088867,-1,0,-1,-1,-2,0,-2,-1,31,1,-1,1,0,-25,-36,-4,9.9375,9.9375,9.9375,-7.5625,-7.5625,-7.5625,2.086424,2.956934,6.967202,6.887215,6.902053,6.760644,-0.108529,-0.4522636,1.742289,0.1842882,0.333173,1.567563,0.102538,0.3546531,1.748007,-0.06796357,-0.4449103,1.686892,0.2629732,0.3221532,1.587596,0.1037993,-0.09449193,1.767037,0.09826218,-0.4139035,1.747624,-0.0611286,0.09971748,1.779389,0.01521717,-0.4061756,1.723184,-0.1121464,-0.1609512,1.796088,0.2909085,0.07621588,1.503062,NA,NA,NotTracked,Unknown,
0.9511719,-0.3222656,-0.05615234,-0.9375,0.3481445,0.05517578,-3,-3,-1,-1,-2,-2,-2,-1,9,2,1,-2,-1,-17,-9,0,7.75,7.75,7.75,-2.25,-2.25,-2.25,2.083275,2.958262,6.993634,6.747285,6.864467,6.608212,-0.1110601,-0.4470283,1.746272,0.1816238,0.334029,1.560788,0.1012306,0.354427,1.74783,-0.07046169,-0.4014075,1.6945,0.2601876,0.3210444,1.575583,0.1037145,-0.09450012,1.767193,0.09826951,-0.4139313,1.747706,-0.06111485,0.09999107,1.780729,0.01520491,-0.4065164,1.724067,-0.1117999,-0.1614067,1.798374,0.289096,0.07528348,1.502158,NA,NA,NotTracked,Unknown,
0.9458008,-0.2890625,-0.0546875,-1.068848,0.309082,-0.02490234,-2,0,-2,-1,-1,0,-2,0,-5,1,3,1,-3,-1,-34,-16,-0.5,-0.5,-0.5,2.125,2.125,2.125,2.08571,2.959292,6.997091,6.504442,6.797528,6.332613,-0.1122031,-0.4474703,1.745275,0.1852021,0.3301152,1.535097,0.09958886,0.3539202,1.74802,-0.07118839,-0.4183184,1.694803,0.1433696,0.3126938,1.5996,0.1036086,-0.09450843,1.767251,0.09825361,-0.4139427,1.747689,-0.06094031,0.1000069,1.781229,0.0151325,-0.4066343,1.724314,-0.1118379,-0.1610797,1.799269,0.2865717,0.07525133,1.501067,NA,NA,NotTracked,Unknown,
0.9604492,-0.2871094,-0.06445313,-0.9951172,0.3398438,0.2089844,0,-2,-1,1,0,-2,-1,0,-7,-8,-8,0,11,30,118,34,-2.625,-2.625,-2.625,13.8125,13.8125,13.8125,2.102638,2.966682,6.974049,6.055492,6.504574,5.812578,-0.1126929,-0.4429626,1.744344,0.1544073,0.3819474,1.554016,0.0981781,0.3530952,1.749632,-0.07212376,-0.398434,1.697286,0.1431341,0.383731,1.602,0.1035436,-0.09448914,1.767355,0.09812333,-0.4137956,1.747702,-0.06073479,0.1006129,1.782495,0.01501933,-0.4065388,1.724687,-0.1120967,-0.161381,1.799873,0.2734069,0.1058372,1.490206,NA,NA,NotTracked,Unknown,
0.9545898,-0.2788086,-0.07177734,-0.734375,0.3613281,0.4990234,0,-1,0,-1,-3,-2,0,-2,-15,-30,-10,-4,-8,-11,-12,3,-5.1875,-5.1875,-5.1875,43.4375,43.4375,43.4375,2.119783,2.972908,6.948364,5.934611,6.285815,5.604569,-0.1119499,-0.4486068,1.742499,0.2163837,0.2680522,1.38291,0.0984672,0.3533057,1.752793,-0.0709028,-0.4007506,1.692778,0.1870296,0.263501,1.413,0.1033182,-0.0943203,1.768021,0.09825855,-0.4130827,1.748039,-0.06136571,0.1010706,1.784526,0.015333,-0.4060968,1.725402,-0.1123834,-0.161744,1.800839,0.2826362,0.08314423,1.479193,NA,NA,NotTracked,Unknown,
0.9526367,-0.2675781,-0.07421875,-0.1547852,0.5,0.8613281,-1,-3,-2,-2,-1,-1,-3,-1,-25,-38,-14,-3,63,30,-5,-3,-4.1875,-4.1875,-4.1875,35.5625,35.5625,35.5625,2.14098,2.981646,6.91806,5.950199,5.798335,5.409272,-0.1105376,-0.4704685,1.736882,0.2220113,0.2480221,1.302939,0.09965577,0.3534162,1.755876,-0.06990483,-0.4507192,1.6824,0.1892018,0.2430593,1.294375,0.103009,-0.09441699,1.768782,0.09847017,-0.4123015,1.748042,-0.06298055,0.1017546,1.787047,0.01596889,-0.4058697,1.725786,-0.1126674,-0.1630742,1.801392,0.2867855,0.07892314,1.458211,NA,NA,NotTracked,Unknown,
0.9462891,-0.2851563,-0.05664063,-0.01660156,0.5068359,0.9135742,-2,2,-1,0,-1,-1,-2,0,-9,-52,-25,-18,-15,2,4,1,2,2,2,14,14,14,2.167945,2.992031,6.887412,5.927667,5.605757,5.337242,-0.109762,-0.469928,1.735949,0.2302576,0.2307533,1.264813,0.101245,0.3535859,1.759379,-0.07084624,-0.4652809,1.687291,0.1935165,0.2479365,1.2666,0.1025925,-0.09429775,1.770245,0.09852679,-0.4116974,1.748268,-0.06687363,0.1009952,1.791415,0.01649171,-0.405698,1.726316,-0.112674,-0.1640386,1.801837,0.2880787,0.0767446,1.448703,NA,NA,NotTracked,Unknown,
0.9794922,-0.2685547,-0.06445313,-0.4936523,0.4604492,0.8916016,-2,-1,-1,-1,-1,-2,-2,-1,1,-20,-6,-5,-3,3,7,7,15.375,15.375,15.375,-29.5,-29.5,-29.5,2.17596,2.990782,6.899934,5.880027,5.60609,5.350618,-0.1103942,-0.4608141,1.737978,0.2309357,0.2229169,1.264701,0.1013927,0.353864,1.760584,-0.07029967,-0.446434,1.69175,0.1946477,0.2387497,1.278459,0.102306,-0.09431196,1.770836,0.09850425,-0.4114591,1.748343,-0.06837751,0.1004911,1.79292,0.01680516,-0.4056591,1.726709,-0.1124661,-0.1642057,1.802283,0.2889324,0.07321822,1.44343,NA,NA,NotTracked,Unknown,
0.9614258,-0.2919922,-0.06689453,-0.5537109,0.5463867,0.8105469,0,0,-1,-1,-2,-3,-3,0,-11,-14,-9,-7,-1,-8,-3,-5,-0.0625,-0.0625,-0.0625,1.8125,1.8125,1.8125,2.148931,2.979177,6.938656,5.872975,5.634881,5.369668,-0.1104166,-0.4552049,1.743344,0.2272373,0.2187115,1.270518,0.1015379,0.3543294,1.760878,-0.07035741,-0.4549716,1.691642,0.2054055,0.2629711,1.280354,0.1022204,-0.09429653,1.771021,0.09852103,-0.4112947,1.748463,-0.06848416,0.1005763,1.793056,0.01701978,-0.4056648,1.727072,-0.1122244,-0.1641836,1.803376,0.2881728,0.06742638,1.441223,NA,NA,NotTracked,Closed,
0.9282227,-0.3447266,-0.07177734,-0.3916016,0.5292969,0.7817383,-2,-1,-2,0,0,-1,0,-1,-1,43,14,-1,-1,-3,-4,-6,1.25,1.25,1.25,-8.875,-8.875,-8.875,2.117944,2.974529,6.96695,5.88543,5.634757,5.382434,-0.1098999,-0.455726,1.744867,0.2236605,0.2167508,1.270642,0.1018005,0.354654,1.761366,-0.07102456,-0.4215151,1.692667,0.1803233,0.2538947,1.2915,0.1021027,-0.09426711,1.771427,0.09858277,-0.4110415,1.748685,-0.06843907,0.1007334,1.793321,0.01720748,-0.4055313,1.727523,-0.1119426,-0.1636236,1.804567,0.2877191,0.06427731,1.440579,NA,NA,NotTracked,Closed,
0.9677734,-0.2861328,-0.07324219,-0.3881836,0.4804688,0.7592773,-2,-2,-2,-1,-1,-1,-2,1,-2,-4,-5,-9,-16,-7,-8,-9,7.625,7.625,7.625,-3.125,-3.125,-3.125,2.122618,2.975373,6.976709,5.876403,5.639814,5.388456,-0.1104696,-0.4557621,1.745066,0.2227954,0.2158711,1.271257,0.1021534,0.3549655,1.761606,-0.0713645,-0.4200762,1.694855,0.205011,0.2535972,1.287,0.1020928,-0.09424463,1.771591,0.09863215,-0.4109626,1.748818,-0.06828608,0.1007921,1.793551,0.01735857,-0.4055708,1.727832,-0.1118431,-0.1638212,1.805458,0.2876426,0.06204736,1.440425,NA,NA,NotTracked,Unknown,
0.9599609,-0.300293,-0.06347656,-0.3208008,0.4428711,0.6796875,1,-2,-2,-1,-1,-1,0,-2,26,4,0,6,-1,1,6,1,-1.375,-1.375,-1.375,4.5625,4.5625,4.5625,2.132504,2.97806,6.968015,5.886678,5.634194,5.398637,-0.1104992,-0.4510262,1.745224,0.2233248,0.211511,1.27275,0.1024938,0.3552056,1.761511,-0.07179572,-0.4127171,1.696172,0.1881357,0.216888,1.286385,0.1020233,-0.09421847,1.771657,0.0986008,-0.410819,1.748986,-0.06813103,0.1009867,1.793549,0.01734471,-0.4054987,1.72813,-0.1117395,-0.1636422,1.805988,0.2873235,0.05837462,1.441028,NA,NA,NotTracked,Closed,
0.9321289,-0.2890625,-0.0703125,-0.1147461,0.3632813,0.5615234,0,-1,0,-1,0,-1,-1,-2,-1,-6,-5,-29,-8,-13,-20,-1,-4,-4,-4,14.125,14.125,14.125,2.111226,2.973784,6.980216,5.91884,5.579475,5.413575,-0.1115406,-0.4507171,1.74707,0.2220927,0.2030589,1.2731,0.1029127,0.3557925,1.760939,-0.07112368,-0.4590091,1.696,0.1864626,0.2089528,1.284945,0.1020249,-0.09420285,1.771699,0.09851436,-0.4107054,1.749266,-0.06804983,0.1010388,1.793477,0.0172435,-0.4054112,1.728462,-0.1118114,-0.1630594,1.806366,0.2888812,0.04794013,1.445867,NA,NA,NotTracked,Unknown,
0.9453125,-0.28125,-0.07324219,-0.01464844,0.2768555,0.5263672,-1,-1,-3,-2,0,-1,-1,0,-2,-3,-1,-2,-4,-5,-3,-5,-0.5,-0.5,-0.5,23.25,23.25,23.25,2.098139,2.969071,6.990765,5.951263,5.483942,5.424121,-0.1114235,-0.4500378,1.746737,0.2212359,0.1726427,1.274259,0.1032382,0.3566422,1.760102,-0.07183591,-0.4327796,1.695647,0.1861114,0.1746333,1.279842,0.1021508,-0.09415763,1.771637,0.09832788,-0.4107234,1.749558,-0.06832658,0.1002303,1.793316,0.01704077,-0.405374,1.728871,-0.1117862,-0.1631342,1.806431,0.2927598,0.01831196,1.457391,NA,NA,NotTracked,Closed,
0.9291992,-0.3037109,-0.06201172,0.05517578,0.2729492,0.5336914,-2,-2,-1,0,-1,2,-1,-2,-5,-8,-5,-3,-5,-3,0,-5,-8.5,-8.5,-8.5,69.0625,69.0625,69.0625,2.089015,2.964648,6.987179,6.033166,5.299418,5.459638,-0.1159168,-0.4570107,1.7513,0.2150042,0.1115994,1.282105,0.1034801,0.3572028,1.75955,-0.08221724,-0.4684529,1.719187,0.170682,0.1286755,1.286615,0.1021309,-0.09456207,1.771553,0.0981207,-0.4132926,1.749933,-0.06916583,0.09974796,1.79278,0.01659378,-0.4073499,1.729387,-0.1116508,-0.1630899,1.806376,0.2959702,-0.02249356,1.475259,NA,NA,NotTracked,Unknown,
0.9892578,-0.3149414,-0.05957031,0.121582,0.4902344,0.6962891,1,-1,-1,-3,-1,-1,-1,0,-4,3,1,-1,3,5,31,7,9,9,9,86.4375,86.4375,86.4375,2.091996,2.965626,6.986619,6.17139,4.998097,5.490103,-0.1110358,-0.4516111,1.744271,0.2060823,0.005005511,1.299699,0.1038463,0.3577064,1.759188,-0.07141016,-0.4303797,1.694025,0.1957066,0.07278018,1.31375,0.1017262,-0.09617611,1.770612,0.09800835,-0.4170177,1.749099,-0.0703873,0.09923397,1.791285,0.01724491,-0.4104717,1.72806,-0.1116023,-0.1660739,1.805289,0.2955301,-0.04294761,1.493134,NA,NA,NotTracked,Unknown,
0.9711914,-0.2451172,-0.07177734,0.3911133,0.8286133,0.8686523,-1,0,-1,0,-1,-1,0,0,-1,-13,-3,-5,0,0,2,4,1.4375,1.4375,1.4375,121.6875,121.6875,121.6875,2.103737,2.963068,6.991643,6.412313,4.43586,5.487126,-0.1153212,-0.4635571,1.743625,0.2058909,-0.1341399,1.320309,0.1037414,0.3583159,1.758319,-0.08487975,-0.4857763,1.70875,0.2101607,-0.09987884,1.2885,0.1017501,-0.09568665,1.769753,0.09833442,-0.4159897,1.748717,-0.07162388,0.09935893,1.789591,0.01781274,-0.4094206,1.727257,-0.1111896,-0.1676752,1.804033,0.3375076,-0.09933221,1.535728,NA,NA,NotTracked,Unknown,
0.9404297,-0.2519531,-0.09667969,0.6889648,1.148438,0.3857422,-2,-1,0,1,1,-2,0,-2,0,10,-6,-2,-1,-2,-7,-4,5.125,5.125,5.125,85.125,85.125,85.125,2.104861,2.961354,6.996525,6.617621,3.955889,5.442898,-0.1137869,-0.473989,1.740366,0.2225609,-0.2768916,1.380178,0.1033289,0.3592522,1.756874,-0.07852148,-0.4500445,1.705882,0.2095492,-0.3085348,1.370278,0.1012687,-0.09519432,1.767379,0.09765048,-0.4154437,1.747557,-0.07317872,0.09881626,1.787937,0.01725458,-0.4084269,1.724896,-0.1109868,-0.169059,1.802417,0.3289343,-0.1276514,1.639222,NA,NA,NotTracked,Closed,
0.9594727,-0.2895508,-0.08300781,1.303711,0.8798828,0.4755859,-2,1,0,0,-1,-1,-1,1,-9,-38,-23,-6,-2,-5,-10,-4,-4.6875,-4.6875,-4.6875,-14.6875,-14.6875,-14.6875,2.061046,2.954151,7.033844,6.813493,3.498703,5.230637,-0.1134471,-0.470887,1.74047,0.2500301,-0.3810514,1.476022,0.1034047,0.360127,1.75514,-0.08034775,-0.468151,1.70425,0.2075354,-0.3833719,1.433243,0.1007395,-0.09482758,1.765097,0.09702343,-0.4152178,1.747028,-0.07433116,0.09865824,1.785259,0.01603675,-0.4075537,1.723518,-0.1108798,-0.169327,1.801052,0.3015526,-0.1266845,1.689292,NA,NA,NotTracked,Closed,
0.9873047,-0.2875977,-0.08935547,1.261719,0.6171875,0.1040039,-2,-3,-1,-1,-1,-1,-3,-6,-1,11,2,-2,-1,0,6,-5,-2.4375,-2.4375,-2.4375,8.1875,8.1875,8.1875,2.025677,2.948656,7.066548,7.284237,3.06047,4.694755,-0.1159655,-0.4659297,1.740896,0.2783523,-0.4432053,1.568208,0.1041086,0.3608975,1.752092,-0.08140639,-0.4730621,1.703946,0.2467401,-0.4507039,1.591833,0.1012997,-0.0942406,1.761665,0.09765137,-0.4147043,1.746049,-0.07503809,0.09890639,1.779494,0.01682163,-0.4070046,1.721866,-0.1112605,-0.1711064,1.79816,0.3002288,-0.1411024,1.691693,NA,NA,NotTracked,Unknown,
0.9428711,-0.2504883,-0.09375,1.122559,0.4746094,-0.04150391,2,-1,-2,-2,-2,-1,0,18,-1,-2,2,3,-1,-2,-10,-3,-10.125,-10.125,-10.125,4.5,4.5,4.5,1.971257,2.940979,7.120267,7.684081,2.925942,4.283024,-0.1173586,-0.4679588,1.738379,0.282969,-0.4603252,1.645213,0.1056439,0.3620055,1.748249,-0.08434315,-0.4807781,1.702944,0.2349283,-0.4344546,1.622019,0.1021017,-0.09421141,1.758334,0.09868398,-0.4146753,1.745192,-0.07537665,0.0993169,1.774372,0.01801093,-0.4071516,1.72045,-0.1116513,-0.1725671,1.795152,0.3019049,-0.1606642,1.706874,NA,NA,NotTracked,NotTracked,
0.9423828,-0.2773438,-0.07861328,0.9814453,0.8989258,0.3012695,0,-1,-1,-1,-1,-1,0,0,1,3,0,-1,0,-3,-2,-3,5.5,5.5,5.5,-26.625,-26.625,-26.625,1.940582,2.941211,7.144584,7.670353,2.914391,4.246547,-0.1177274,-0.473057,1.736112,0.29186,-0.4679756,1.670219,0.1073041,0.3623576,1.744317,-0.08103123,-0.4772765,1.69746,0.244718,-0.4456736,1.629143,0.1026421,-0.09427456,1.755856,0.09944919,-0.4147509,1.744844,-0.07494155,0.1004613,1.768432,0.01883397,-0.4073507,1.719723,-0.112154,-0.1735353,1.791342,0.3076453,-0.170254,1.73331,NA,NA,NotTracked,NotTracked,
0.9536133,-0.2705078,-0.08984375,0.8310547,0.3701172,0.3085938,0,-1,-1,-2,0,2,0,-1,-2,0,0,-2,1,1,3,1,-1.4375,-1.4375,-1.4375,-50.3125,-50.3125,-50.3125,1.927748,2.942305,7.161535,7.360363,2.957197,4.429565,-0.1187296,-0.4727584,1.731342,0.3093491,-0.4621788,1.686981,0.1088717,0.3628501,1.740107,-0.08150944,-0.4809648,1.693044,0.2736119,-0.4548523,1.660868,0.1036276,-0.09433462,1.753312,0.1002947,-0.4147271,1.744416,-0.0745229,0.1011154,1.763037,0.0198059,-0.4074586,1.718749,-0.1132915,-0.1738445,1.786813,0.3135788,-0.1708487,1.751794,NA,NA,NotTracked,NotTracked,
0.9399414,-0.2597656,-0.07128906,0.8808594,0.409668,0.2158203,-2,-1,0,0,0,-2,-4,-2,-1,-3,-3,-4,-4,0,0,-1,-23.1875,-23.1875,-23.1875,-27.5,-27.5,-27.5,1.92532,2.94139,7.1407,7.294227,3.004313,4.449668,-0.1177368,-0.4754146,1.726128,0.3152196,-0.4636633,1.687979,0.1099201,0.3632519,1.73844,-0.07620787,-0.4556979,1.6806,0.2743737,-0.4286767,1.669895,0.103786,-0.09397196,1.752038,0.100714,-0.4144185,1.743997,-0.07377072,0.1014113,1.758111,0.02030877,-0.4070876,1.717613,-0.1147104,-0.1730392,1.782197,0.3174855,-0.1704031,1.762179,NA,NA,NotTracked,NotTracked,
0.9702148,-0.2836914,-0.08251953,0.9228516,0.2651367,0.1298828,1,0,-1,-1,0,-1,-3,0,0,-1,-2,0,1,-2,-2,0,-15.75,-15.75,-15.75,-65.5625,-65.5625,-65.5625,1.941601,2.950736,7.067622,7.191448,3.038604,4.446956,-0.117037,-0.4749184,1.716012,0.3180686,-0.464795,1.683044,0.1110927,0.363812,1.737101,-0.07555559,-0.4656561,1.676973,0.299723,-0.4834607,1.643116,0.1042033,-0.09371949,1.750644,0.1014371,-0.4142537,1.742631,-0.07279371,0.1020818,1.753908,0.0210904,-0.4067286,1.714896,-0.1151119,-0.1750882,1.774423,0.3181574,-0.1705571,1.764554,NA,NA,NotTracked,NotTracked,
0.9711914,-0.2402344,-0.1137695,0.9516602,0.3022461,0.06298828,-2,-3,-1,-2,0,-2,-1,0,0,0,-1,-1,0,0,0,0,-3.3125,-3.3125,-3.3125,-16.6875,-16.6875,-16.6875,1.989233,2.966231,7.0079,7.092263,3.06952,4.480669,-0.1149321,-0.4735938,1.704916,0.3169894,-0.4637062,1.67484,0.1119946,0.3638366,1.736451,-0.0706818,-0.4476024,1.667539,0.3010813,-0.4707367,1.639459,0.1046332,-0.09338376,1.749494,0.1024806,-0.4140207,1.740782,-0.0725342,0.1021127,1.750755,0.02212593,-0.4064224,1.712126,-0.1159348,-0.1755791,1.769342,0.3180664,-0.170973,1.76456,NA,NA,NotTracked,NotTracked,
0.9589844,-0.2416992,-0.1010742,0.9277344,0.3017578,0.06054688,-2,-1,-2,0,-1,1,-2,-1,-1,1,0,2,1,1,2,-6,-3.25,-3.25,-3.25,-9.4375,-9.4375,-9.4375,2.06078,2.986852,6.928167,7.002511,3.092052,4.556858,-0.1118795,-0.4749752,1.694361,0.3141468,-0.4527463,1.669113,0.112605,0.3639574,1.736274,-0.06571182,-0.4565535,1.656654,0.2747961,-0.4313941,1.665241,0.1049055,-0.09315965,1.748917,0.1034369,-0.4137648,1.739549,-0.07212123,0.1027736,1.748875,0.02307316,-0.4060235,1.71006,-0.1166882,-0.1750279,1.764203,0.3178223,-0.1711643,1.763645,NA,NA,NotTracked,NotTracked,
0.9438477,-0.2539063,-0.07763672,0.9072266,0.3022461,0.06884766,0,-3,-1,-1,-1,-1,0,0,-2,0,-1,-1,0,-1,-1,-1,3.5625,3.5625,3.5625,14.5625,14.5625,14.5625,2.13466,3.00991,6.850023,6.931816,3.111318,4.649435,-0.1100991,-0.4753489,1.68604,0.3088336,-0.4486948,1.658716,0.1131263,0.3640142,1.736305,-0.06265835,-0.4573654,1.652222,0.2726763,-0.4261065,1.661911,0.105272,-0.09277549,1.748259,0.1044069,-0.4134432,1.738277,-0.07186041,0.1031572,1.74726,0.02379621,-0.4056748,1.708696,-0.1169245,-0.1744622,1.760687,0.3167806,-0.1700773,1.761235,NA,NA,NotTracked,NotTracked,
0.9418945,-0.2768555,-0.06054688,0.9091797,0.3305664,0.08691406,0,1,-2,-1,1,-2,-1,1,-3,-2,-2,-1,-2,0,-1,-1,3.8125,3.8125,3.8125,20.625,20.625,20.625,2.160565,3.017492,6.826495,6.889447,3.127315,4.732892,-0.1078395,-0.4746663,1.681549,0.3031383,-0.4439413,1.651663,0.1135417,0.3642895,1.736206,-0.06150152,-0.481452,1.644762,0.2661882,-0.4149047,1.651889,0.1056011,-0.09245935,1.747694,0.1050276,-0.4131508,1.737277,-0.07181294,0.1033467,1.746713,0.02422979,-0.4054155,1.707743,-0.1172747,-0.1732098,1.758802,0.3159255,-0.1684007,1.758755,NA,NA,NotTracked,NotTracked,
