ALX,ALY,ALZ,ARX,ARY,ARZ,EMG0L,EMG1L,EMG2L,EMG3L,EMG4L,EMG5L,EMG6L,EMG7L,EMG0R,EMG1R,EMG2R,EMG3R,EMG4R,EMG5R,EMG6R,EMG7R,GLX,GLY,GLZ,GRX,GRY,GRZ,ORL,OPL,OYL,ORR,OPR,OYR,LHNX,LHNY,LHNZ,RHNX,RHNY,RHNZ,HX,HY,HZ,LTX,LTY,LTZ,RTX,RTY,RTZ,SpineMidX,SpineMidY,SpineMidZ,SpineBaseX,SpineBaseY,SpineBaseZ,ShoulderLeftX,ShoulderLeftY,ShoulderLeftZ,ShoulderRightX,ShoulderRightY,ShoulderRightZ,ElbowLeftX,ElbowLeftY,ElbowLeftZ,ElbowRightX,ElbowRightY,ElbowRightZ,Myo_Pose_left,Myo_Pose_Right,Kinect_pose_left,Kinect_pose_right
0.9404297,-0.3232422,-0.05175781,0.9160156,0.3222656,0.05566406,-1,-2,-2,0,-1,0,-1,-1,0,-1,-1,-1,-3,0,-4,-2,5.375,5.375,5.375,-3.4375,-3.4375,-3.4375,2.277985,3.062243,6.515834,7.157054,3.090413,1.862366,-0.1040924,-0.4676365,1.662042,0.2832282,-0.4532319,1.638596,0.1027178,0.3625087,1.728599,-0.1511124,-0.4640952,1.67676,0.322861,-0.4298672,1.646857,0.09196503,-0.09553753,1.740846,0.08806919,-0.4147778,1.72735,-0.08274273,0.1021843,1.746848,0.004542005,-0.405472,1.697077,-0.1194527,-0.1730562,1.745566,0.3006432,-0.1676445,1.733475,NA,NA,NotTracked,NotTracked,
0.9321289,-0.3383789,-0.04345703,0.9082031,0.3476563,0.05273438,-1,2,-2,-1,-1,-2,-2,-2,-1,-1,0,-2,-1,0,0,-1,-1.5625,-1.5625,-1.5625,-3.25,-3.25,-3.25,2.287855,3.059083,6.505281,7.169684,3.087106,1.84754,-0.1030117,-0.4674512,1.662242,0.2837615,-0.4532045,1.640503,0.1028315,0.3624209,1.729207,-0.1464763,-0.4699021,1.66425,0.3210462,-0.4393682,1.644819,0.09208342,-0.09542656,1.741259,0.08826638,-0.4146297,1.72788,-0.08272247,0.1022426,1.747112,0.004734637,-0.4053346,1.697705,-0.1193039,-0.1730565,1.745565,0.3007149,-0.1674968,1.73356,NA,NA,NotTracked,NotTracked,
0.9321289,-0.3432617,-0.05517578,0.9174805,0.3349609,0.06933594,-2,0,-1,-1,0,-2,0,0,-1,0,-1,-2,-2,-2,1,0,-1.125,-1.125,-1.125,-2.5,-2.5,-2.5,2.288204,3.056849,6.501808,7.176084,3.082887,1.833059,-0.1022508,-0.467097,1.663329,0.2835535,-0.4535579,1.640813,0.1028475,0.3624448,1.729349,-0.1479796,-0.460479,1.671737,0.3270329,-0.4111694,1.658,0.0921858,-0.09533478,1.74152,0.08851083,-0.4145565,1.728259,-0.08263481,0.1022753,1.747213,0.004967231,-0.4053063,1.698045,-0.1191536,-0.1728797,1.745578,0.3007895,-0.1671568,1.733697,NA,NA,NotTracked,NotTracked,
0.9418945,-0.3413086,-0.05908203,0.9077148,0.3354492,0.07617188,0,1,-1,-1,1,1,-1,-2,0,-1,-2,-1,-1,0,3,2,3.3125,3.3125,3.3125,-2.8125,-2.8125,-2.8125,2.287661,3.053757,6.505871,7.17994,3.080853,1.823459,-0.1025747,-0.4669085,1.663889,0.278326,-0.4518025,1.642796,0.1028562,0.362452,1.729555,-0.1475943,-0.4594442,1.67252,0.319196,-0.4533278,1.644643,0.0923182,-0.09533019,1.741718,0.08877585,-0.4145364,1.728606,-0.08246142,0.1023139,1.74721,0.005175193,-0.4053145,1.698268,-0.1189477,-0.1729271,1.745597,0.3009215,-0.1670157,1.733865,NA,NA,NotTracked,NotTracked,
0.9365234,-0.340332,-0.04638672,0.9194336,0.3505859,0.07910156,-3,0,-1,1,-3,-2,-1,-1,-1,-1,0,-2,-1,-1,-1,-3,-0.375,-0.375,-0.375,1.8125,1.8125,1.8125,2.285292,3.051769,6.510217,7.181243,3.0808,1.822922,-0.1025826,-0.4652826,1.665486,0.2796337,-0.4529595,1.643648,0.1028146,0.362383,1.729628,-0.1470527,-0.4537996,1.676422,0.3198619,-0.4559939,1.643611,0.09244892,-0.09545459,1.741988,0.08899595,-0.4147371,1.729028,-0.08231561,0.1021904,1.747337,0.005374196,-0.4054993,1.698628,-0.1185816,-0.1730686,1.745912,0.3011317,-0.167174,1.73422,NA,NA,NotTracked,NotTracked,
0.9365234,-0.3481445,-0.046875,0.9301758,0.3520508,0.04833984,-4,0,-1,-4,-3,-3,-3,-2,-13,-5,0,-7,-2,-2,-2,-6,-0.5,-0.5,-0.5,-0.5,-0.5,-0.5,2.284943,3.051019,6.510904,7.176354,3.083925,1.828216,-0.1016914,-0.465199,1.663833,0.284181,-0.4549093,1.640765,0.1027161,0.3622232,1.729613,-0.1471482,-0.4657022,1.674996,0.3201215,-0.4511449,1.643,0.09249676,-0.09549753,1.742076,0.08917815,-0.4147896,1.729187,-0.08230828,0.1021751,1.747365,0.005532652,-0.4055932,1.698739,-0.1181854,-0.173328,1.746029,0.3012706,-0.1671296,1.734357,NA,NA,NotTracked,NotTracked,
0.9975586,-0.4033203,-0.08886719,1.005371,0.5351563,-0.07470703,-2,-1,-3,-16,-43,-20,-4,1,-1,-7,-6,-5,2,1,1,1,7.1875,7.1875,7.1875,-90.8125,-90.8125,-90.8125,2.304324,3.060729,6.492507,7.091194,3.161837,1.823367,-0.1016002,-0.4645571,1.66325,0.2842997,-0.4532296,1.639229,0.102643,0.3623349,1.729718,-0.1469756,-0.4602278,1.671553,0.3267245,-0.4279036,1.649167,0.09256124,-0.09547471,1.742239,0.08938623,-0.4147792,1.72943,-0.08227475,0.1021701,1.747398,0.005723269,-0.4056398,1.698963,-0.1179314,-0.1732409,1.746214,0.3020434,-0.16608,1.735351,NA,NA,NotTracked,NotTracked,
1.076172,-0.5380859,-0.02929688,1.070313,0.5048828,0.1542969,1,-2,-15,26,47,17,6,2,11,7,1,-2,-4,-1,1,3,83.75,83.75,83.75,-43.5625,-43.5625,-43.5625,2.507606,3.149395,6.370714,6.870391,3.285817,1.933102,-0.1010962,-0.4574202,1.652431,0.2834873,-0.4412008,1.626892,0.1026658,0.3622459,1.729913,-0.1486759,-0.4578168,1.654,0.3208748,-0.4325126,1.617,0.09267641,-0.09542577,1.742319,0.08963706,-0.4146758,1.729529,-0.08223107,0.1021752,1.747455,0.005953557,-0.4056035,1.699071,-0.1181826,-0.1714477,1.748466,0.3045994,-0.1640731,1.738979,NA,NA,NotTracked,NotTracked,
0.9638672,-0.456543,0.046875,0.8574219,0.5522461,0.2636719,-2,0,-1,15,112,28,5,-2,-15,19,7,2,1,11,11,5,-32,-32,-32,-57.375,-57.375,-57.375,2.742548,3.300958,6.152145,6.724204,3.488924,2.012736,-0.1042741,-0.4362383,1.631734,0.2882644,-0.4077018,1.598313,0.1026953,0.3622562,1.729899,-0.1437659,-0.4156806,1.608562,0.2998924,-0.3968946,1.557962,0.09288439,-0.09539705,1.742305,0.08983206,-0.4145975,1.729507,-0.08210953,0.1022307,1.747503,0.006139447,-0.405587,1.699104,-0.1209404,-0.168178,1.75348,0.3105048,-0.1598187,1.749034,NA,NA,NotTracked,NotTracked,
0.7563477,-0.753418,0.1494141,0.7294922,0.6137695,0.5205078,-1,-2,2,-15,7,-2,-5,-1,-12,-10,-3,-12,-8,-6,-8,-2,55.3125,55.3125,55.3125,-77.375,-77.375,-77.375,2.900673,3.608282,5.98433,6.57565,3.706546,2.065606,-0.1190211,-0.3974669,1.582644,0.2965458,-0.3726522,1.533117,0.1026721,0.3622176,1.72982,-0.1527727,-0.4145424,1.586167,0.3074716,-0.3456532,1.50916,0.09311014,-0.09530991,1.7423,0.09007557,-0.4144364,1.729477,-0.08191933,0.1024504,1.747727,0.006297856,-0.405546,1.699106,-0.1279027,-0.1558503,1.761179,0.319066,-0.1540046,1.757413,NA,NA,Unknown,Closed,
0.6245117,-0.7851563,0.2495117,0.4619141,0.4428711,0.5546875,5,2,-1,-2,-8,3,1,3,18,-6,-4,-11,-6,-6,-6,-2,64.6875,64.6875,64.6875,-117.5625,-117.5625,-117.5625,2.99119,3.845573,5.991014,6.323323,3.988499,2.096678,-0.1143705,-0.3540708,1.56724,0.2982655,-0.3249322,1.480227,0.1027961,0.362113,1.729591,-0.1425467,-0.3085431,1.532768,0.3312058,-0.313085,1.461686,0.09340605,-0.09515873,1.742292,0.09058261,-0.4139869,1.729375,-0.08122171,0.1037013,1.748195,0.006683262,-0.4053183,1.699062,-0.1337728,-0.1414283,1.767762,0.3246475,-0.1780257,1.734482,NA,NA,Unknown,Unknown,
0.3935547,-0.5849609,0.1582031,0.4150391,0.2851563,0.5629883,4,1,-1,0,-4,8,39,24,2,2,-5,-8,-8,-12,-22,-1,110.625,110.625,110.625,-70.3125,-70.3125,-70.3125,3.155299,4.085248,6.085692,6.146256,4.13764,2.110646,-0.1342783,-0.3030204,1.51726,0.3275984,-0.268858,1.47381,0.1028409,0.36215,1.729593,-0.127968,-0.3108624,1.472238,0.3669959,-0.240718,1.452143,0.09395715,-0.09469686,1.742661,0.09179696,-0.4129507,1.729692,-0.08024453,0.105497,1.749361,0.007896945,-0.4045568,1.699523,-0.1365267,-0.1298218,1.771687,0.3318054,-0.120374,1.771261,NA,NA,Unknown,Unknown,
0.6088867,-0.4697266,0.3969727,0.4960938,0.3852539,0.6523438,-3,6,-1,5,17,4,17,1,-36,-16,-6,-6,-2,-1,-3,-9,131.625,131.625,131.625,-34.0625,-34.0625,-34.0625,3.261912,4.115705,6.144374,6.033033,4.245283,2.139135,-0.1355106,-0.2624401,1.488359,0.3326669,-0.2411453,1.441372,0.102907,0.3621928,1.729612,-0.1565666,-0.2282111,1.459039,0.3850123,-0.2209712,1.421187,0.09423526,-0.09444294,1.742952,0.09214287,-0.4126469,1.729798,-0.0796596,0.1062661,1.749743,0.008231305,-0.4043241,1.699686,-0.1363471,-0.1246831,1.773242,0.3272797,-0.1663495,1.722734,NA,NA,Unknown,Unknown,
0.59375,-0.421875,0.6708984,0.5200195,0.3286133,0.7451172,-3,-3,2,-6,-8,-1,-6,-4,-1,6,2,9,6,5,-11,-2,52.9375,52.9375,52.9375,4,4,4,3.496801,4.101239,6.077785,5.955127,4.258331,2.218394,-0.150103,-0.2411834,1.474154,0.340306,-0.2341033,1.445981,0.1030108,0.3622234,1.729709,-0.1926408,-0.205966,1.43735,0.3938619,-0.2188018,1.413611,0.09442168,-0.09426588,1.743568,0.09219206,-0.4124542,1.730271,-0.07925666,0.1066148,1.750267,0.008324702,-0.4041172,1.700256,-0.1352763,-0.1223913,1.77408,0.3335294,-0.1264098,1.765835,NA,NA,Unknown,Unknown,
0.6416016,-0.6611328,0.4975586,0.5327148,0.4575195,0.7729492,0,-1,1,6,-5,2,-2,4,14,8,0,1,2,-4,-2,0,72.75,72.75,72.75,30.375,30.375,30.375,3.570396,4.14272,6.077441,5.927676,4.255979,2.347551,-0.1554553,-0.2322785,1.46428,0.3265716,-0.2329524,1.46029,0.1032395,0.3622122,1.730124,-0.2061185,-0.2054503,1.4268,0.3693961,-0.2200155,1.414036,0.09461815,-0.09403019,1.744061,0.09235834,-0.4122075,1.730596,-0.07890383,0.1068527,1.750545,0.008479671,-0.403864,1.700468,-0.1325773,-0.1224576,1.773801,0.3348328,-0.1265344,1.76611,NA,NA,Unknown,Unknown,
0.6064453,-0.5927734,0.6391602,0.4047852,0.6645508,0.6967773,-1,-2,0,-8,3,6,14,8,5,-1,2,4,1,1,-1,0,-1.875,-1.875,-1.875,27.8125,27.8125,27.8125,3.703893,4.127167,5.991484,5.924257,4.275623,2.516132,-0.1469964,-0.2329819,1.475334,0.2965019,-0.2309949,1.46556,0.1033448,0.3622293,1.73034,-0.1949254,-0.2074184,1.433438,0.3378389,-0.2217596,1.411,0.09481017,-0.09395442,1.74436,0.09258787,-0.4120771,1.730761,-0.07862631,0.1068544,1.750695,0.008664564,-0.4037768,1.700578,-0.130934,-0.1220191,1.773585,0.3291971,-0.1230008,1.766419,NA,NA,Unknown,Unknown,
0.5234375,-0.7412109,0.6181641,0.3017578,0.847168,0.6503906,-2,-1,-1,-1,-7,-7,-11,-12,-4,-3,2,0,3,8,7,-3,12.125,12.125,12.125,-32.25,-32.25,-32.25,3.733178,4.129697,5.921661,5.960172,4.324278,2.485527,-0.1355917,-0.2240823,1.476407,0.2772543,-0.2237017,1.441091,0.1035135,0.3624531,1.73053,-0.1935589,-0.2091836,1.437063,0.3241809,-0.2144537,1.418857,0.09494001,-0.09372679,1.744648,0.09282432,-0.4118394,1.730963,-0.07821061,0.1070532,1.750922,0.008905772,-0.4035893,1.700639,-0.1272968,-0.1211814,1.775011,0.316542,-0.1209758,1.770244,NA,NA,Unknown,Unknown,
0.390625,-0.765625,0.565918,0.3007813,0.5830078,0.6547852,0,-26,-1,-15,-2,1,-1,-5,-62,-13,-8,-14,-7,-9,-19,-31,73.125,73.125,73.125,-73.9375,-73.9375,-73.9375,3.818866,4.179225,5.97446,5.917567,4.362226,2.35483,-0.1509253,-0.2174727,1.48962,0.2893457,-0.2176995,1.459397,0.103738,0.3624257,1.730355,-0.219416,-0.2101693,1.458474,0.346033,-0.2104509,1.42644,0.09518005,-0.09363108,1.744683,0.093132,-0.411624,1.731141,-0.07777057,0.1072103,1.751193,0.009237698,-0.4034085,1.700782,-0.1195984,-0.1213926,1.777557,0.3156225,-0.1210437,1.770633,NA,NA,Unknown,Unknown,
0.4008789,-0.6494141,0.5019531,0.4345703,0.4194336,0.7163086,1,-9,-15,-17,8,-1,-4,7,0,4,-2,-10,-8,-1,5,-2,63.9375,63.9375,63.9375,-34.375,-34.375,-34.375,3.862599,4.212526,6.095004,5.898095,4.357076,2.203978,-0.1784915,-0.2113921,1.484612,0.3250846,-0.2195218,1.459723,0.1040922,0.3621069,1.729689,-0.2510254,-0.2127615,1.470846,0.3866751,-0.2167096,1.430737,0.09530786,-0.09363122,1.744692,0.09339002,-0.4115616,1.7313,-0.07736686,0.1071419,1.7517,0.0094804,-0.4033668,1.700884,-0.1028265,-0.1440052,1.792604,0.3160477,-0.1297287,1.773572,NA,NA,Unknown,Unknown,
0.4985352,-0.5522461,0.5327148,0.5058594,0.140625,0.9619141,-5,-6,8,12,7,1,-24,-9,-9,4,0,10,3,-6,-5,-15,-12.875,-12.875,-12.875,25.8125,25.8125,25.8125,3.835168,4.205936,6.163394,5.863072,4.30035,2.186196,-0.1857289,-0.2181299,1.484007,0.3405081,-0.2295137,1.46957,0.1043557,0.3618981,1.729154,-0.2460811,-0.2134853,1.471214,0.3875963,-0.2249368,1.460581,0.09549347,-0.09367117,1.744849,0.09357448,-0.4115339,1.731625,-0.07701552,0.1072541,1.752689,0.009693201,-0.403334,1.701279,-0.1027784,-0.1475669,1.796301,0.3154716,-0.1292543,1.775818,NA,NA,Lasso,Lasso,
0.5830078,-0.5185547,0.5839844,0.5214844,0.331543,0.9047852,-1,0,-5,0,-1,0,13,6,15,-5,0,-2,0,-2,0,4,-42.0625,-42.0625,-42.0625,84.625,84.625,84.625,3.806854,4.194577,6.175128,5.877446,4.246626,2.354247,-0.1713932,-0.2305753,1.494905,0.3358865,-0.2412981,1.476977,0.1043762,0.3618631,1.72865,-0.2250104,-0.219291,1.453714,0.3794994,-0.2360778,1.434139,0.09570642,-0.09362629,1.744916,0.09371968,-0.4113492,1.731909,-0.07682964,0.1078527,1.753454,0.009841423,-0.4031734,1.701648,-0.117868,-0.1334541,1.799344,0.3174863,-0.1244994,1.775542,NA,NA,Unknown,Unknown,
0.4677734,-0.5737305,0.7373047,0.4326172,0.6435547,0.7470703,-9,-3,-3,-1,-5,-7,-20,-22,-9,-6,-3,-1,-2,-5,-5,-10,-60.5625,-60.5625,-60.5625,93.75,93.75,93.75,3.702139,4.073539,5.891451,5.947952,4.234096,2.557363,-0.1431145,-0.2372717,1.494539,0.2995641,-0.2423131,1.49129,0.104502,0.3617085,1.727767,-0.1904444,-0.2235069,1.4449,0.3290237,-0.2326422,1.441,0.09576023,-0.09355608,1.744998,0.09359987,-0.4111402,1.732147,-0.0766333,0.108326,1.75372,0.009729756,-0.4029392,1.701851,-0.1247657,-0.12282,1.794748,0.3193849,-0.1221986,1.773052,NA,NA,Unknown,Unknown,
0.4682617,-0.8291016,0.5556641,0.390625,0.8886719,0.5883789,-7,-2,-1,-2,-4,-4,-10,-16,-3,0,-6,-13,-9,-9,-4,1,33.3125,33.3125,33.3125,-80.625,-80.625,-80.625,3.702786,4.071973,5.869855,6.005094,4.298217,2.513821,-0.1404627,-0.2383782,1.500456,0.2902601,-0.2384627,1.457823,0.1047615,0.3614551,1.727037,-0.1842173,-0.2310389,1.454222,0.3198016,-0.2292297,1.420369,0.09595282,-0.09349813,1.745025,0.09367404,-0.4110294,1.732214,-0.07645118,0.1086281,1.753675,0.009848775,-0.4027938,1.701875,-0.1223742,-0.1225087,1.792659,0.2952519,-0.1743793,1.73065,NA,NA,Unknown,Unknown,
0.4863281,-0.8041992,0.425293,0.409668,0.5170898,0.5927734,-1,-5,3,2,-2,-7,-26,-2,11,-18,-4,-4,-8,4,4,0,89.5625,89.5625,89.5625,-84,-84,-84,3.761512,4.105598,5.966682,5.913941,4.322041,2.357614,-0.1615768,-0.2354163,1.491175,0.3069019,-0.2348501,1.453347,0.1052605,0.3611899,1.726092,-0.2177956,-0.2335135,1.467125,0.3462366,-0.2255748,1.42244,0.09612314,-0.09354118,1.74502,0.09372847,-0.4110195,1.732278,-0.0761991,0.1087021,1.753741,0.009914536,-0.4027807,1.701957,-0.1171448,-0.1228846,1.789091,0.2929525,-0.1749449,1.731592,NA,NA,Unknown,Unknown,
0.5483398,-0.6875,0.4975586,0.5200195,0.293457,0.8691406,5,4,16,46,20,6,0,2,-4,-2,-3,-6,-1,-4,0,2,60.875,60.875,60.875,-6.1875,-6.1875,-6.1875,3.789098,4.127468,6.099037,5.898258,4.309499,2.199265,-0.1875366,-0.2355634,1.490708,0.3327101,-0.2369414,1.467366,0.1055638,0.360906,1.725651,-0.2499917,-0.2366416,1.475046,0.384102,-0.2299328,1.426806,0.09621932,-0.09355497,1.745129,0.09370866,-0.4109479,1.732661,-0.07603706,0.1087378,1.753917,0.009912238,-0.4026694,1.702409,-0.1156783,-0.1233128,1.788179,0.3100665,-0.1241511,1.771239,NA,NA,Lasso,Unknown,
0.6557617,-0.4345703,0.6630859,0.527832,0.1967773,0.9697266,-2,-4,-3,-12,-4,-3,0,-4,-46,-15,-1,5,0,-8,-2,-4,-22.6875,-22.6875,-22.6875,31.0625,31.0625,31.0625,3.787196,4.114262,6.192059,5.881254,4.281531,2.242914,-0.1899841,-0.2392205,1.496605,0.3432755,-0.2413526,1.470371,0.1057906,0.3608882,1.725373,-0.2404684,-0.2275811,1.501368,0.3956615,-0.2336139,1.425077,0.09635197,-0.0935587,1.745196,0.09370117,-0.4109073,1.73285,-0.07589091,0.108856,1.754212,0.009912492,-0.4026146,1.702587,-0.1156926,-0.1233702,1.78798,0.3105147,-0.1240405,1.770969,NA,NA,Unknown,Lasso,
0.6503906,-0.3916016,0.7392578,0.4980469,0.3198242,0.8632813,0,-4,-1,7,-5,2,1,-2,-22,-27,-3,-1,-1,1,3,4,-63.5625,-63.5625,-63.5625,63.3125,63.3125,63.3125,3.757442,4.067829,6.080023,5.873893,4.25841,2.399297,-0.1742032,-0.2440253,1.494627,0.3258135,-0.2421404,1.469324,0.1059743,0.3609191,1.725148,-0.2237664,-0.2360374,1.466303,0.3693849,-0.2324864,1.415684,0.09652692,-0.09354423,1.745206,0.09372614,-0.4108538,1.732894,-0.07572788,0.1091088,1.754241,0.009945985,-0.4025238,1.702611,-0.1167274,-0.1224503,1.787489,0.312609,-0.1237545,1.770078,NA,NA,Lasso,Lasso,
0.5244141,-0.5478516,0.6982422,0.4384766,0.6118164,0.7055664,-4,-6,-7,-6,-1,-4,-15,-7,3,3,2,1,2,-1,0,4,-49,-49,-49,68.1875,68.1875,68.1875,3.760705,4.045097,5.928006,5.915854,4.257161,2.57938,-0.1525603,-0.2453297,1.50212,0.2919376,-0.2423111,1.484549,0.1064049,0.3609416,1.724954,-0.1982142,-0.2389686,1.445375,0.3227879,-0.2302532,1.417632,0.09668182,-0.09357177,1.745189,0.09372064,-0.4108594,1.732892,-0.07559858,0.1091285,1.754156,0.009939236,-0.4025201,1.702609,-0.117063,-0.1223799,1.787219,0.3143748,-0.1227202,1.769599,NA,NA,Unknown,Unknown,
0.4555664,-0.7641602,0.5893555,0.3930664,0.815918,0.6318359,5,2,1,3,1,3,9,12,1,-4,5,33,11,-12,1,2,26.3125,26.3125,26.3125,-41.625,-41.625,-41.625,3.786389,4.050454,5.862635,5.961287,4.296315,2.568055,-0.1290242,-0.2439813,1.490951,0.2750582,-0.2394838,1.459133,0.1065883,0.3609065,1.724846,-0.1842821,-0.241641,1.455968,0.3070648,-0.2269536,1.415929,0.09677503,-0.09354861,1.745132,0.09367764,-0.4108355,1.732886,-0.07546631,0.1091929,1.753954,0.009911521,-0.4024592,1.702537,-0.1154215,-0.12326,1.785582,0.2912955,-0.1762155,1.731702,NA,NA,Unknown,Unknown,
0.5195313,-0.8120117,0.4775391,0.3994141,0.6298828,0.6386719,-5,-1,7,8,-1,-5,-7,-11,23,3,-3,-12,-4,-2,-4,0,56.75,56.75,56.75,-81.9375,-81.9375,-81.9375,3.821113,4.074411,5.92029,5.91597,4.313292,2.433682,-0.1431934,-0.2418724,1.492913,0.2792921,-0.2384118,1.446517,0.106745,0.3608542,1.724376,-0.2036215,-0.2473046,1.461909,0.3253804,-0.2261827,1.423429,0.09683628,-0.09355212,1.744907,0.0936114,-0.4108241,1.732774,-0.07522399,0.1091333,1.753533,0.00985912,-0.4024192,1.702423,-0.1056797,-0.126604,1.777562,0.2894879,-0.1765752,1.730638,NA,NA,Unknown,Unknown,
0.5449219,-0.7490234,0.4912109,0.4677734,0.465332,0.7373047,1,0,1,3,1,1,-1,-2,-9,1,1,15,4,5,0,-2,50.6875,50.6875,50.6875,-37.1875,-37.1875,-37.1875,3.829525,4.104683,6.026871,5.894357,4.308039,2.282976,-0.1676702,-0.2352673,1.486545,0.3265444,-0.238835,1.452985,0.106734,0.3611446,1.723258,-0.2301758,-0.2383791,1.4697,0.3635499,-0.2307071,1.422957,0.09688749,-0.09352209,1.744819,0.09359443,-0.4107859,1.732784,-0.0749548,0.109181,1.753193,0.009844043,-0.4023495,1.702435,-0.1056936,-0.1264281,1.777562,0.2888038,-0.1770976,1.730605,NA,NA,Unknown,Unknown,
0.5195313,-0.6137695,0.5830078,0.5219727,0.3701172,0.7822266,-1,-3,-1,-12,-11,-5,-15,3,-7,-2,1,6,0,-1,-1,-2,18.3125,18.3125,18.3125,-11.9375,-11.9375,-11.9375,3.810375,4.134909,6.132523,5.907036,4.27676,2.132046,-0.1928083,-0.2293724,1.484159,0.3412002,-0.2439724,1.470811,0.1066161,0.3612764,1.722663,-0.2585385,-0.231222,1.470563,0.3936732,-0.2319309,1.436176,0.09692758,-0.0935087,1.744685,0.09360844,-0.4107928,1.732784,-0.07494963,0.1090936,1.75309,0.009857033,-0.4023662,1.702479,-0.1069629,-0.1262532,1.778358,0.3069917,-0.1268421,1.767337,NA,NA,Lasso,Unknown,
0.5751953,-0.5136719,0.6577148,0.4511719,0.2719727,0.7509766,-2,-9,-7,3,12,7,6,1,20,-5,-3,-4,-3,-5,-5,-12,2.3125,2.3125,2.3125,43.4375,43.4375,43.4375,3.762161,4.149358,6.25128,5.944774,4.235891,2.075785,-0.2080366,-0.2323264,1.48611,0.3587169,-0.2508556,1.472519,0.1062793,0.3614235,1.722157,-0.2644534,-0.2199166,1.486385,0.4139999,-0.238542,1.43319,0.0969675,-0.09354399,1.744478,0.0936154,-0.410811,1.732731,-0.07486457,0.1091076,1.752872,0.009854831,-0.4023841,1.702431,-0.1116682,-0.1255623,1.779727,0.3078751,-0.1267789,1.767334,NA,NA,Lasso,Unknown,
0.5693359,-0.440918,0.6328125,0.3149414,0.4658203,0.6074219,1,-3,-5,-2,-14,-6,1,13,1,-3,-3,-7,-23,-18,-3,7,-46.625,-46.625,-46.625,159.1875,159.1875,159.1875,3.710507,4.126987,6.310757,6.255109,4.160848,1.990742,-0.2113484,-0.2382958,1.479789,0.3543712,-0.2683801,1.476431,0.105928,0.3615029,1.721503,-0.2661425,-0.2195326,1.486524,0.3893357,-0.2367557,1.443838,0.09690337,-0.09357659,1.744257,0.09358168,-0.4108516,1.732701,-0.07500833,0.1090894,1.752742,0.009823652,-0.4024243,1.702409,-0.1123457,-0.138501,1.787725,0.3097198,-0.1278633,1.767354,NA,NA,Lasso,Unknown,
0.5273438,-0.5942383,0.6606445,0.4472656,0.4389648,0.4995117,-4,-4,-1,1,4,-7,-11,-5,-1,7,9,6,20,13,0,23,-94.75,-94.75,-94.75,169.375,169.375,169.375,3.573093,4.119974,6.338486,6.551723,4.039376,1.944953,-0.19343,-0.2602281,1.497687,0.3425736,-0.3152514,1.486107,0.1056454,0.3615244,1.721102,-0.223216,-0.2199996,1.442375,0.3429529,-0.2752176,1.432,0.09683527,-0.09360118,1.743777,0.0935863,-0.4108965,1.732538,-0.07528045,0.1091617,1.752455,0.009818643,-0.4024646,1.70225,-0.1178797,-0.1331868,1.787359,0.312245,-0.1296026,1.766047,NA,NA,Unknown,Unknown,
0.4047852,-0.4511719,0.5737305,0.6552734,0.6503906,0.28125,-6,-6,-16,-5,-13,3,2,6,-1,-1,-4,6,14,4,8,7,-121.9375,-121.9375,-121.9375,166.9375,166.9375,166.9375,3.449816,4.116165,6.339529,6.825814,3.814432,1.959432,-0.1706083,-0.314187,1.500776,0.3308886,-0.3668438,1.509678,0.105344,0.361823,1.720782,-0.1429214,-0.2856665,1.472,0.3633335,-0.3841399,1.491867,0.09655799,-0.09352827,1.743453,0.09347192,-0.4108949,1.732371,-0.07571104,0.1094117,1.751856,0.009705164,-0.4024912,1.70205,-0.1239873,-0.1301599,1.78208,0.3204316,-0.1432617,1.752991,NA,NA,Unknown,Closed,
0.6015625,-0.6337891,0.2192383,1.095703,0.5644531,0.246582,-9,-3,3,-3,11,-3,-19,42,-1,-2,-2,-2,-6,-4,-13,2,-173.5,-173.5,-173.5,-2.1875,-2.1875,-2.1875,3.092441,3.892238,6.238856,6.950963,3.544488,1.933123,-0.1526262,-0.3780236,1.530605,0.3237364,-0.4107552,1.553705,0.104765,0.3618659,1.72061,-0.1171311,-0.3730905,1.50763,0.3605625,-0.4284338,1.544733,0.09614302,-0.09372148,1.742971,0.09302311,-0.411318,1.731767,-0.07639968,0.1092216,1.751105,0.009278298,-0.4028197,1.701505,-0.1269809,-0.1421675,1.768222,0.3220907,-0.1529886,1.742893,NA,NA,Unknown,Unknown,
0.8286133,-0.96875,0.2568359,1.04834,0.5239258,0.08398438,6,-1,-3,-1,8,3,2,51,3,-2,-1,1,1,3,6,-1,-80.9375,-80.9375,-80.9375,7.8125,7.8125,7.8125,2.967591,3.729205,6.233171,7.043907,3.340981,1.801631,-0.1431364,-0.4307013,1.570143,0.3174806,-0.4458445,1.590889,0.1043508,0.3619574,1.720697,-0.110671,-0.4276584,1.542509,0.3552568,-0.4434466,1.592875,0.09557389,-0.09401294,1.742585,0.09229782,-0.4121302,1.7314,-0.07733819,0.1084218,1.750393,0.008709307,-0.4034927,1.701033,-0.1232448,-0.1556528,1.754404,0.3183981,-0.1607618,1.736057,NA,NA,Unknown,Unknown,
1.060059,-0.4399414,-0.05517578,0.9536133,0.402832,0.04345703,0,-2,-1,-3,-1,-1,-3,-11,1,-2,-2,-1,1,-4,-6,8,-14.6875,-14.6875,-14.6875,-49.1875,-49.1875,-49.1875,2.890631,3.301461,6.458703,7.161331,3.171513,1.572252,-0.1335572,-0.4700222,1.615076,0.3115893,-0.4612089,1.620398,0.1041296,0.3619936,1.720802,-0.1006373,-0.4709061,1.591693,0.3237427,-0.4763789,1.582365,0.09507446,-0.09440552,1.742141,0.09145272,-0.4130423,1.731002,-0.07811297,0.107009,1.74908,0.008092101,-0.4042196,1.700732,-0.1188287,-0.1686437,1.745031,0.3131022,-0.1637727,1.734125,NA,NA,Unknown,NotTracked,
1.032715,-0.7495117,-0.04345703,0.9389648,0.4208984,0.05664063,0,-1,-1,-1,-3,-8,0,4,-1,-2,-2,-3,-2,1,3,-4,-10.1875,-10.1875,-10.1875,19.6875,19.6875,19.6875,2.625327,3.099318,6.687731,7.232359,3.105119,1.503509,-0.1086898,-0.4832273,1.653523,0.2991133,-0.4644154,1.64554,0.1038057,0.3622548,1.721084,-0.06282783,-0.4572643,1.633065,0.339597,-0.4740123,1.638632,0.0944413,-0.09459852,1.741523,0.0902314,-0.413463,1.730405,-0.07872827,0.1061563,1.747811,0.006970329,-0.4044075,1.700192,-0.1165282,-0.1751813,1.741064,0.309403,-0.1659764,1.734508,NA,NA,NotTracked,NotTracked,
1.012207,-0.08398438,-0.2167969,0.8823242,0.4492188,0.07421875,-3,1,0,0,1,-3,0,-6,0,-3,-1,-1,0,-3,-1,-2,1.4375,1.4375,1.4375,-0.375,-0.375,-0.375,2.390321,2.980224,6.964408,7.285563,3.07748,1.467217,-0.104743,-0.4739619,1.673569,0.2973034,-0.4641634,1.655671,0.1034575,0.3625717,1.720845,-0.06097956,-0.4693363,1.632568,0.3381894,-0.4821255,1.657636,0.09388179,-0.09457139,1.740869,0.0897219,-0.4135787,1.730069,-0.07954469,0.1051913,1.746168,0.006446866,-0.4044157,1.699958,-0.1155365,-0.1768005,1.740596,0.3066124,-0.1670179,1.735989,NA,NA,NotTracked,NotTracked,
0.9453125,-0.5537109,-0.02587891,0.8891602,0.4135742,0.0234375,-4,-1,-1,-2,-2,-1,0,-2,1,0,0,0,1,-1,-1,-3,-113.875,-113.875,-113.875,-22.9375,-22.9375,-22.9375,2.07775,2.947448,7.056807,7.338608,3.064689,1.384806,-0.1075446,-0.4800682,1.678239,0.2971166,-0.4625537,1.661074,0.1033212,0.362723,1.720608,-0.06123329,-0.4782121,1.631447,0.3375241,-0.4687864,1.6663,0.0936486,-0.09465557,1.740418,0.08942483,-0.41373,1.730009,-0.07994843,0.1045906,1.74453,0.00613901,-0.4045365,1.699869,-0.1153613,-0.1772102,1.742102,0.3049583,-0.1679524,1.737362,NA,NA,NotTracked,NotTracked,
0.9018555,-0.4575195,0.03320313,0.9321289,0.3330078,0.02294922,0,-3,-3,-2,-1,-1,-2,-1,-1,1,0,-1,-1,1,0,0,-49.25,-49.25,-49.25,-6.125,-6.125,-6.125,2.11048,2.975301,6.91263,7.36658,3.056345,1.329998,-0.1113571,-0.4778737,1.682507,0.298954,-0.4637935,1.665269,0.1030201,0.3628506,1.720285,-0.06561702,-0.4648493,1.637829,0.339343,-0.4559746,1.671857,0.09341042,-0.09468106,1.740028,0.08937413,-0.4137762,1.729889,-0.08045156,0.1042004,1.744003,0.006076697,-0.4045895,1.699676,-0.116483,-0.1773673,1.746822,0.3040878,-0.1685846,1.738416,NA,NA,NotTracked,NotTracked,
0.921875,-0.3818359,0.03662109,0.9316406,0.3349609,0.06103516,-1,0,-1,1,0,-2,-1,-1,-2,0,0,0,-2,-2,-3,0,-18.875,-18.875,-18.875,12.875,12.875,12.875,2.167244,3.007042,6.806301,7.383743,3.061558,1.333025,-0.1140435,-0.4751557,1.680216,0.2996462,-0.4636756,1.664174,0.1027246,0.3629231,1.720093,-0.06738431,-0.4570457,1.639833,0.3379773,-0.4524781,1.665319,0.09331451,-0.09470238,1.739821,0.0893162,-0.4138069,1.729826,-0.08068757,0.1040961,1.743788,0.006002678,-0.4046497,1.699568,-0.1180666,-0.1759978,1.748932,0.3037178,-0.1688571,1.739394,NA,NA,NotTracked,NotTracked,
0.9394531,-0.2939453,-0.01220703,0.9155273,0.3344727,0.06347656,-4,-4,-2,-2,-2,-2,-1,-2,-1,-2,-1,0,0,-2,-1,-1,10.4375,10.4375,10.4375,2.75,2.75,2.75,2.232605,3.04004,6.753219,7.363969,3.073784,1.36371,-0.1171595,-0.4779105,1.675995,0.3008425,-0.4628432,1.661749,0.1025836,0.3630191,1.719978,-0.06585632,-0.4710391,1.639238,0.3432403,-0.4334363,1.666778,0.09319224,-0.09467727,1.73957,0.08930547,-0.413825,1.7296,-0.08073834,0.1041137,1.743494,0.006002188,-0.4047,1.699273,-0.1190077,-0.1754906,1.749845,0.3037122,-0.1692683,1.739958,NA,NA,NotTracked,NotTracked,
