ALX,ALY,ALZ,ARX,ARY,ARZ,EMG0L,EMG1L,EMG2L,EMG3L,EMG4L,EMG5L,EMG6L,EMG7L,EMG0R,EMG1R,EMG2R,EMG3R,EMG4R,EMG5R,EMG6R,EMG7R,GLX,GLY,GLZ,GRX,GRY,GRZ,ORL,OPL,OYL,ORR,OPR,OYR,LHNX,LHNY,LHNZ,RHNX,RHNY,RHNZ,HX,HY,HZ,LTX,LTY,LTZ,RTX,RTY,RTZ,SpineMidX,SpineMidY,SpineMidZ,SpineBaseX,SpineBaseY,SpineBaseZ,ShoulderLeftX,ShoulderLeftY,ShoulderLeftZ,ShoulderRightX,ShoulderRightY,ShoulderRightZ,ElbowLeftX,ElbowLeftY,ElbowLeftZ,ElbowRightX,ElbowRightY,ElbowRightZ,Myo_Pose_left,Myo_Pose_Right,Kinect_pose_left,Kinect_pose_right
0.9423828,-0.3320313,-0.05517578,0.9199219,0.3222656,0.07177734,0,-1,-1,-2,-1,0,-1,1,-1,1,-2,-1,-1,-1,2,1,0,0,0,-0.5625,-0.5625,-0.5625,2.239076,3.047113,9.695275,7.136715,3.046072,3.836157,-0.09449853,-0.464023,1.678952,0.2903288,-0.4461818,1.665195,0.114722,0.3642747,1.756995,-0.1429889,-0.4591778,1.692574,0.2538504,-0.4316406,1.649211,0.1020893,-0.09189513,1.764174,0.0936043,-0.4115753,1.753209,-0.0717903,0.1040265,1.760219,0.01037671,-0.4024813,1.721484,-0.1103607,-0.1699349,1.760204,0.3101275,-0.159545,1.754567,NA,NA,NotTracked,NotTracked,
0.9399414,-0.3320313,-0.05419922,0.9135742,0.3188477,0.07080078,-2,-2,-3,0,-1,0,0,-2,-2,-1,-2,-1,1,0,2,0,1.125,1.125,1.125,0.625,0.625,0.625,2.239641,3.047632,9.696167,7.136674,3.04642,3.836112,-0.09481157,-0.4673292,1.679397,0.2901436,-0.4470832,1.665469,0.1148496,0.364203,1.757271,-0.1435999,-0.4598609,1.694411,0.2531608,-0.4289958,1.650513,0.102201,-0.09201328,1.764461,0.09360832,-0.4116378,1.753416,-0.07163192,0.1039072,1.760847,0.01038645,-0.4025585,1.721713,-0.1103177,-0.1698834,1.76044,0.3102263,-0.1595895,1.755043,NA,NA,NotTracked,NotTracked,
0.9384766,-0.3330078,-0.05175781,0.9243164,0.3242188,0.07910156,1,-3,-2,-2,0,-2,-1,-2,-1,-2,-1,0,-1,-1,1,0,2.6875,2.6875,2.6875,-0.1875,-0.1875,-0.1875,2.240949,3.04809,9.697626,7.136674,3.04642,3.836112,-0.09463261,-0.4643759,1.679448,0.2903987,-0.4472122,1.665055,0.1150936,0.3642438,1.757323,-0.1425364,-0.4601291,1.692179,0.2567053,-0.4380229,1.64554,0.1022097,-0.09202529,1.764559,0.09364174,-0.4116167,1.753526,-0.07155963,0.1038965,1.761019,0.01042773,-0.402546,1.721817,-0.1101615,-0.1700272,1.760786,0.3102086,-0.1596166,1.755217,NA,NA,NotTracked,NotTracked,
0.9335938,-0.3334961,-0.06152344,0.9228516,0.3168945,0.07861328,-1,-1,-1,0,-1,-1,-1,-1,-2,-2,1,0,-1,-1,-5,-2,0.9375,0.9375,0.9375,1,1,1,2.240481,3.04711,9.699833,7.136142,3.046054,3.837374,-0.09460405,-0.4676047,1.679787,0.2897715,-0.4480716,1.665345,0.1152445,0.3642448,1.757521,-0.1425046,-0.4582456,1.692779,0.2536382,-0.4308284,1.650685,0.1023053,-0.09210052,1.764819,0.09374306,-0.4116797,1.753884,-0.07146438,0.1036585,1.761349,0.01053104,-0.4026125,1.722209,-0.1098741,-0.1698166,1.761223,0.3103192,-0.1596939,1.755493,NA,NA,NotTracked,NotTracked,
0.9414063,-0.3349609,-0.05761719,0.9140625,0.3227539,0.07519531,0,0,0,-2,-2,-2,-3,-2,-2,-1,-1,-1,-3,-3,-2,-1,1.625,1.625,1.625,0,0,0,2.237959,3.046219,9.70507,7.137066,3.045967,3.838124,-0.09414102,-0.4639463,1.680393,0.2903686,-0.4468018,1.666035,0.1153921,0.3643416,1.757628,-0.1414361,-0.46472,1.691105,0.2527342,-0.4186738,1.656636,0.1023771,-0.09211574,1.764966,0.09378189,-0.4116795,1.75411,-0.07134625,0.1035758,1.761601,0.01056929,-0.4025923,1.722385,-0.1097974,-0.1699928,1.761327,0.3103976,-0.1597588,1.755677,NA,NA,NotTracked,NotTracked,
0.9355469,-0.3364258,-0.05712891,0.925293,0.3164063,0.07958984,-1,-1,-2,-1,-2,-1,-2,0,0,-2,0,-1,-1,0,0,0,1.1875,1.1875,1.1875,0.4375,0.4375,0.4375,2.23434,3.04514,9.711288,7.137066,3.045967,3.838124,-0.0942187,-0.465027,1.681249,0.290182,-0.4481336,1.666476,0.1154903,0.3644235,1.757671,-0.1442029,-0.4639886,1.69935,0.2536805,-0.4316238,1.651198,0.1024086,-0.09212391,1.765113,0.09383352,-0.4116428,1.754374,-0.0712387,0.1035927,1.761796,0.01060391,-0.4025398,1.72263,-0.1097797,-0.1698845,1.761713,0.3104736,-0.1598395,1.75585,NA,NA,NotTracked,NotTracked,
0.9379883,-0.3334961,-0.05664063,0.9169922,0.3188477,0.07470703,-2,-1,-1,-1,0,1,-1,0,0,0,1,0,0,-1,1,0,1.8125,1.8125,1.8125,-1.3125,-1.3125,-1.3125,2.233603,3.044902,9.714005,7.136555,3.046501,3.839034,-0.09381796,-0.4677395,1.680483,0.2901098,-0.4488052,1.665555,0.1156776,0.3644974,1.757596,-0.1412991,-0.466105,1.693255,0.2541446,-0.4317668,1.651258,0.1024674,-0.09218894,1.765218,0.09381011,-0.4117224,1.754603,-0.07111134,0.103587,1.761904,0.01057967,-0.4025683,1.722924,-0.1097183,-0.1697156,1.761814,0.3105589,-0.1598631,1.755985,NA,NA,NotTracked,NotTracked,
0.9331055,-0.340332,-0.05810547,0.921875,0.3144531,0.07226563,-2,0,-1,-1,-2,-3,0,-1,0,-2,-1,-1,0,1,-3,-1,0.3125,0.3125,0.3125,-0.1875,-0.1875,-0.1875,2.234132,3.045759,9.714009,7.13466,3.04668,3.839698,-0.09417836,-0.4681043,1.680185,0.2902271,-0.4484541,1.665488,0.1157108,0.3644688,1.75766,-0.1435648,-0.4642755,1.703,0.2565388,-0.4424884,1.644471,0.1025063,-0.09219759,1.765316,0.09380235,-0.4117117,1.754794,-0.07101856,0.1036681,1.762153,0.01058672,-0.4025159,1.723137,-0.1095951,-0.1697517,1.761945,0.3106486,-0.1601037,1.756144,NA,NA,NotTracked,NotTracked,
0.9389648,-0.3339844,-0.05273438,1.078613,0.3789063,0.07080078,-2,-3,-3,-2,-2,0,0,-1,-8,-31,3,6,7,3,-8,19,0.75,0.75,0.75,7.25,7.25,7.25,2.234195,3.045577,9.713834,7.139324,3.048246,3.841987,-0.09397096,-0.4681407,1.679494,0.2902222,-0.4478046,1.664453,0.115777,0.3645288,1.75768,-0.1415977,-0.4588121,1.694776,0.2530434,-0.4281312,1.652431,0.1025669,-0.09218496,1.765444,0.09388098,-0.411737,1.754958,-0.07092287,0.1036585,1.762359,0.01065027,-0.4025302,1.723253,-0.1094638,-0.1698699,1.761961,0.3106906,-0.160183,1.756272,NA,NA,NotTracked,NotTracked,
0.9667969,-0.2285156,-0.1601563,1.018066,0.5839844,0.1474609,-1,-3,-1,-2,-2,-2,-3,-2,4,-1,-6,-7,-7,-5,-2,6,-99.5,-99.5,-99.5,67.5625,67.5625,67.5625,2.205164,3.022636,9.656036,6.92905,3.139565,4.184306,-0.09417555,-0.4562672,1.682179,0.289287,-0.4407018,1.66103,0.1158212,0.3645438,1.757815,-0.1430831,-0.4630077,1.698146,0.2500276,-0.4120192,1.651765,0.1026098,-0.09218693,1.765543,0.09385337,-0.4117013,1.754997,-0.07095383,0.1037583,1.762456,0.01060911,-0.40248,1.723352,-0.1093886,-0.1696602,1.761923,0.3111092,-0.1591671,1.756787,NA,NA,NotTracked,NotTracked,
0.8481445,-0.5600586,-0.08154297,0.9848633,0.8300781,0.6328125,-1,0,-1,-4,-4,-3,-1,-1,-25,-13,-8,-2,-5,-4,2,-25,-174.5,-174.5,-174.5,35.3125,35.3125,35.3125,2.07603,3.032585,9.488227,6.71953,3.376349,4.518489,-0.09502616,-0.4571902,1.678101,0.2617255,-0.4175989,1.638265,0.1158605,0.3646157,1.758165,-0.1410683,-0.4489443,1.6787,0.2200746,-0.3724394,1.631789,0.1024717,-0.09203843,1.765729,0.09357604,-0.4113902,1.754956,-0.07120106,0.1039652,1.76265,0.01030936,-0.4021223,1.723296,-0.1100415,-0.1675145,1.76056,0.3150143,-0.1530786,1.759405,NA,NA,NotTracked,NotTracked,
0.8735352,-0.4077148,-0.04931641,0.621582,0.9819336,0.7880859,1,0,-3,-2,-1,2,0,0,-1,-4,-3,-2,8,-7,-8,-3,-139.125,-139.125,-139.125,67.625,67.625,67.625,2.012445,3.056685,9.306567,6.563517,3.757854,4.791657,-0.0959802,-0.456782,1.669278,0.2028962,-0.3728643,1.604952,0.1159704,0.3644642,1.7586,-0.1440249,-0.4542778,1.6625,0.1778724,-0.3530177,1.547579,0.1020231,-0.09192709,1.766075,0.09233478,-0.4111353,1.754793,-0.07165691,0.1041601,1.762854,0.009113198,-0.4015819,1.723032,-0.1115393,-0.1606218,1.755073,0.3218107,-0.1314761,1.761551,NA,NA,NotTracked,Unknown,
0.9931641,-0.3432617,-0.01904297,0.3369141,0.6367188,0.8325195,1,-1,-2,-2,-2,-2,-1,-3,10,17,5,23,11,1,12,5,-177.5,-177.5,-177.5,58.875,58.875,58.875,1.869566,3.07368,9.08449,6.486574,4.369209,5.131918,-0.0908711,-0.4612319,1.657301,0.1560182,-0.2853088,1.534453,0.116037,0.3640311,1.759622,-0.1340099,-0.4574013,1.63149,0.1477584,-0.2701219,1.476843,0.1018992,-0.09192464,1.766511,0.09183247,-0.4110391,1.754538,-0.07016596,0.1035644,1.759186,0.008856118,-0.4013985,1.722726,-0.1117029,-0.1568176,1.744392,0.329479,-0.1230356,1.737282,NA,NA,NotTracked,Closed,
0.9423828,-0.4155273,-0.05126953,0.1552734,0.546875,0.7949219,6,0,0,-1,0,-2,-5,-1,-5,-3,-2,-3,-9,-10,-14,1,-196.3125,-196.3125,-196.3125,94,94,94,1.675752,3.075192,8.92455,6.541739,4.768846,5.428665,-0.08138381,-0.4635395,1.645165,0.09282138,-0.1834599,1.519679,0.1164776,0.3639964,1.76104,-0.1226639,-0.4603338,1.615169,0.1094881,-0.1720843,1.476837,0.103344,-0.0914674,1.767662,0.09423007,-0.4100339,1.754084,-0.06924813,0.1040168,1.758197,0.0116133,-0.4007438,1.72177,-0.1087291,-0.1499947,1.729458,0.3176025,-0.1207124,1.693106,NA,NA,NotTracked,Unknown,
0.9926758,-0.3081055,-0.1254883,0.1362305,0.4672852,0.7177734,-2,0,-3,-4,-1,-1,1,4,-21,-16,-5,-4,-20,-7,-5,-16,-169.875,-169.875,-169.875,91.625,91.625,91.625,1.510872,3.078905,8.789726,6.675106,5.030974,5.719295,-0.06627251,-0.4652929,1.631118,0.03901699,-0.1062293,1.52034,0.1181029,0.3638083,1.762823,-0.1125532,-0.4951181,1.594714,0.04380177,-0.09118418,1.486815,0.1051779,-0.09074157,1.768931,0.09801869,-0.4081228,1.752878,-0.06742657,0.1042762,1.755667,0.01605919,-0.3993778,1.719505,-0.09360331,-0.1626378,1.700615,0.2865309,-0.1043672,1.637718,NA,NA,Unknown,Unknown,
0.9355469,-0.2333984,-0.1923828,0.2290039,0.5727539,0.4868164,-5,-3,-7,-8,-2,-2,-3,-14,-5,0,-1,2,10,23,3,-11,-77.125,-77.125,-77.125,46.4375,46.4375,46.4375,1.472601,3.09175,8.640643,6.832523,5.153686,6.065498,-0.04699356,-0.4585935,1.620175,-0.02240765,-0.05960346,1.534591,0.1209093,0.3639183,1.765812,-0.07766835,-0.4592791,1.576789,-0.0492303,-0.08652212,1.507667,0.1079128,-0.08981744,1.769817,0.1035636,-0.4062049,1.750812,-0.06463502,0.1042263,1.751541,0.02194572,-0.3983843,1.715702,-0.08295695,-0.1714228,1.68475,0.2694265,-0.09181163,1.616099,NA,NA,Unknown,Unknown,
0.9536133,-0.1738281,-0.3334961,0.3706055,0.6484375,0.4042969,-2,4,5,-1,-1,-1,-1,-9,1,0,0,-7,-10,-3,0,-2,-65.875,-65.875,-65.875,1.625,1.625,1.625,1.431143,3.114341,8.513845,6.880575,5.146911,6.266639,-0.02786266,-0.4521686,1.614577,-0.06361382,-0.04435351,1.569089,0.1233612,0.3640086,1.768707,-0.05327118,-0.4559328,1.564543,-0.07049257,-0.0007163537,1.6355,0.110699,-0.08834682,1.770711,0.1074889,-0.4041869,1.749642,-0.0586518,0.1098605,1.74804,0.025196,-0.3969191,1.714439,-0.07486065,-0.1586793,1.666344,0.2437748,-0.08290239,1.603627,NA,NA,Unknown,Unknown,
0.9179688,-0.2587891,-0.2734375,0.3422852,0.8457031,0.1791992,5,0,-3,-2,-2,-1,1,9,-5,-1,1,-1,3,0,-4,-4,-7.875,-7.875,-7.875,-18.6875,-18.6875,-18.6875,1.395776,3.137298,8.48238,6.88064,5.085797,6.414175,-0.02088347,-0.4488758,1.612459,-0.06610002,-0.04519524,1.592427,0.1249653,0.3638903,1.770716,-0.04635475,-0.4564998,1.559892,-0.02633773,-0.02948794,1.641833,0.1113585,-0.08787891,1.77077,0.1081496,-0.4036351,1.748803,-0.05561747,0.1123214,1.74697,0.02550686,-0.3967048,1.713942,-0.08693996,-0.1063261,1.660451,0.2136063,-0.07647917,1.599781,NA,NA,Unknown,Unknown,
0.9111328,-0.2211914,-0.2368164,0.2177734,0.953125,0.168457,1,-1,-3,1,-2,2,-2,2,11,4,0,-1,3,-4,10,10,35.25,35.25,35.25,-21.375,-21.375,-21.375,1.462624,3.152079,8.444188,6.868964,5.028334,6.520866,-0.01987289,-0.4475319,1.610178,-0.06690959,-0.05802561,1.637301,0.1254907,0.3639657,1.771707,-0.05153686,-0.4566678,1.561183,-0.02928157,-0.009000232,1.661058,0.1120853,-0.08741722,1.770612,0.1086116,-0.4033262,1.747903,-0.0558405,0.1110256,1.746189,0.02562163,-0.3967752,1.713692,-0.09012368,-0.105844,1.660121,0.2068462,-0.07656179,1.600514,NA,NA,Unknown,Unknown,
0.9287109,-0.2055664,-0.1704102,-0.01611328,0.9931641,0.3515625,0,-2,-5,-12,-5,-1,0,2,15,4,2,-1,0,-1,1,10,36.25,36.25,36.25,10.5,10.5,10.5,1.498176,3.151601,8.476008,6.883578,4.986563,6.56326,-0.02058556,-0.4460728,1.611845,-0.07351324,-0.05134119,1.653453,0.1258085,0.3640944,1.772333,-0.05014474,-0.4521235,1.561166,-0.06478815,-0.1292587,1.6395,0.1122516,-0.08727366,1.770487,0.1088102,-0.403331,1.747413,-0.05624048,0.1098268,1.745684,0.02567814,-0.3969926,1.713555,-0.08745389,-0.1165914,1.661584,0.2061514,-0.07804933,1.600741,NA,NA,Unknown,Unknown,
0.9086914,-0.3320313,-0.1953125,-0.05664063,1.008301,0.4492188,-2,-1,0,2,1,0,0,0,8,2,1,3,-1,-2,-2,0,22.3125,22.3125,22.3125,-7.6875,-7.6875,-7.6875,1.514268,3.141824,8.503258,6.8896,4.969619,6.533807,-0.02387637,-0.445789,1.619158,-0.0682789,-0.07208329,1.63921,0.1256743,0.3642058,1.772541,-0.06023261,-0.4530692,1.57579,-0.04913855,-0.1353132,1.642562,0.1122846,-0.08722135,1.77045,0.108712,-0.403412,1.747272,-0.05663881,0.1090162,1.745613,0.02549089,-0.3972832,1.7138,-0.08586189,-0.1248168,1.662995,0.2069759,-0.07912204,1.601413,NA,NA,Unknown,Unknown,
0.8974609,-0.3618164,-0.2841797,0.05078125,0.8876953,0.5205078,1,-1,-2,0,-1,-4,-5,0,-23,-3,0,-1,-10,-13,-9,-20,-0.625,-0.625,-0.625,-9.4375,-9.4375,-9.4375,1.497699,3.140204,8.578436,6.862197,4.961061,6.494136,-0.02735332,-0.4460638,1.622465,-0.06547224,-0.08443007,1.644676,0.1254141,0.3641013,1.772838,-0.06758574,-0.4546458,1.579115,-0.05121749,-0.1571246,1.644144,0.1122903,-0.08720556,1.770473,0.1085331,-0.4035204,1.747286,-0.05707573,0.1082425,1.745649,0.02519301,-0.3975894,1.714153,-0.08466085,-0.1313377,1.66379,0.2162645,-0.08266489,1.60182,NA,NA,Unknown,Unknown,
0.9057617,-0.355957,-0.2089844,0.2573242,0.784668,0.3608398,1,1,-3,-1,-3,-3,-1,2,-1,0,-1,-6,1,2,-1,-1,22.6875,22.6875,22.6875,-48.875,-48.875,-48.875,1.514556,3.144027,8.575622,6.802214,4.968892,6.419471,-0.02911724,-0.4459912,1.621702,-0.06305147,-0.08196478,1.628803,0.124975,0.3642073,1.772947,-0.07567783,-0.4603389,1.58855,-0.04602828,-0.1473031,1.641784,0.1122069,-0.08708217,1.770649,0.1081755,-0.4034409,1.747519,-0.05737886,0.1077097,1.745746,0.02481029,-0.3976657,1.714723,-0.08129317,-0.1412967,1.662994,0.2212095,-0.08437823,1.603117,NA,NA,Unknown,Unknown,
0.8886719,-0.2519531,-0.1655273,0.08251953,0.8364258,0.4990234,6,-1,-1,-5,-1,0,0,-1,-10,-10,-5,-17,-6,5,6,-8,53,53,53,-51.5,-51.5,-51.5,1.599222,3.14676,8.570141,6.739181,4.980792,6.350413,-0.03100087,-0.4561799,1.622256,-0.04605698,-0.07885263,1.618286,0.1238366,0.3647073,1.773034,-0.07652124,-0.4752162,1.583656,-0.03489454,-0.1405188,1.644894,0.1121119,-0.08680728,1.771004,0.1078691,-0.4030101,1.748255,-0.05837401,0.1081164,1.748028,0.02462901,-0.39724,1.715674,-0.07175426,-0.1828458,1.675135,0.2370215,-0.09145694,1.612757,NA,NA,Unknown,Unknown,
0.8657227,-0.3847656,-0.1811523,-0.1455078,0.9399414,0.8808594,-4,3,-1,-2,-2,-3,-1,-2,-1,-18,-9,1,7,7,3,3,64.75,64.75,64.75,2.6875,2.6875,2.6875,1.683646,3.143814,8.630013,6.62375,4.983892,6.152199,-0.03566843,-0.4518765,1.627987,-0.02538643,-0.08246097,1.613835,0.1224638,0.3648162,1.773331,-0.08443527,-0.4774894,1.595257,-0.004563588,-0.144513,1.647773,0.111807,-0.08654175,1.771322,0.1074151,-0.402576,1.748841,-0.06135638,0.107232,1.750447,0.02443132,-0.3969326,1.71601,-0.07567928,-0.177734,1.680313,0.2527295,-0.09458292,1.622197,NA,NA,Unknown,Unknown,
0.890625,-0.4599609,-0.234375,-0.3530273,0.9736328,0.7685547,1,0,-5,-6,-1,-1,-5,-3,10,4,-14,0,-7,-11,-7,-4,-30.6875,-30.6875,-30.6875,8.25,8.25,8.25,1.617287,3.137048,8.701991,6.616995,5.023437,6.153824,-0.04259957,-0.4545128,1.630765,-0.006519217,-0.0817744,1.619442,0.1208292,0.3648065,1.773134,-0.09176779,-0.4774402,1.598407,0.003891327,-0.1439739,1.648424,0.1112317,-0.08639122,1.771592,0.1064853,-0.402336,1.749392,-0.06281935,0.1058786,1.750317,0.02383077,-0.3966754,1.716238,-0.07717568,-0.1765063,1.683835,0.2679079,-0.09608052,1.629574,NA,NA,Unknown,Unknown,
0.9487305,-0.4321289,-0.2241211,-0.3178711,0.9277344,0.5693359,1,4,-4,1,-2,-1,-1,-2,13,5,3,6,-15,-2,9,6,-7.5,-7.5,-7.5,28.9375,28.9375,28.9375,1.577742,3.145863,8.717326,6.640087,5.258068,6.141933,-0.04296762,-0.4556333,1.627801,0.01515086,-0.06014774,1.630056,0.1194345,0.3648258,1.773191,-0.08956877,-0.4619862,1.595524,0.01990878,-0.1295147,1.650894,0.1107237,-0.08637026,1.771876,0.1055475,-0.4022329,1.750024,-0.06477828,0.1047536,1.750564,0.02314482,-0.3966433,1.716561,-0.07902004,-0.1671648,1.688691,0.2783233,-0.09643903,1.635411,NA,NA,Unknown,Unknown,
0.9316406,-0.3383789,-0.1831055,-0.4052734,1.049316,0.5258789,-1,0,2,0,0,-2,0,-2,3,0,-3,0,-27,-15,-1,9,-1.8125,-1.8125,-1.8125,6.9375,6.9375,6.9375,1.643261,3.159533,8.645047,6.68504,5.509016,6.139743,-0.03705102,-0.4514275,1.622723,0.01288028,-0.02179912,1.635031,0.1190658,0.3648343,1.773276,-0.07721173,-0.455337,1.584334,0.004660109,-0.0859383,1.657477,0.110398,-0.08630365,1.772007,0.1053698,-0.4021362,1.750121,-0.06555144,0.1045995,1.750238,0.02300037,-0.3965592,1.716576,-0.07949954,-0.1613821,1.690129,0.2785354,-0.09638845,1.635619,NA,NA,Unknown,Unknown,
0.9018555,-0.3198242,-0.1669922,-0.6020508,0.574707,0.4443359,2,-2,-5,-12,-3,0,-3,-2,94,48,10,0,-12,-7,-2,8,-16.6875,-16.6875,-16.6875,-16.4375,-16.4375,-16.4375,1.700199,3.165812,8.572874,6.637336,5.827942,6.195113,-0.03375134,-0.4450676,1.62159,0.01805103,0.01851253,1.637858,0.1189317,0.3646195,1.773491,-0.0696454,-0.452021,1.583228,0.004479473,-0.03834013,1.660013,0.1103455,-0.08635849,1.77155,0.1055016,-0.402087,1.750169,-0.0647059,0.1038129,1.747981,0.0230992,-0.3965292,1.716621,-0.07967243,-0.1515922,1.69172,0.2759292,-0.09516451,1.634319,NA,NA,Unknown,Closed,
0.8916016,-0.3505859,-0.1972656,-0.5996094,0.5771484,0.3916016,3,3,-2,-3,-2,1,-1,-2,50,89,62,22,25,7,-1,-7,-21.6875,-21.6875,-21.6875,5.125,5.125,5.125,1.682584,3.167853,8.549117,6.704848,6.019184,6.300396,-0.03183805,-0.4448061,1.621295,0.008961366,0.06937899,1.642244,0.119114,0.364565,1.77377,-0.06865601,-0.4516006,1.582913,0.05800028,0.1052607,1.684,0.110379,-0.08643962,1.771439,0.1056142,-0.4022895,1.750158,-0.06309877,0.1029996,1.745272,0.02306595,-0.3967861,1.71637,-0.07869517,-0.1475511,1.691299,0.2667239,-0.09132847,1.625525,NA,NA,Unknown,Unknown,
0.9306641,-0.3432617,-0.2055664,-0.6142578,0.5649414,0.3569336,0,0,-1,0,1,-2,-1,-3,-1,4,-2,0,10,-5,0,8,-0.125,-0.125,-0.125,-20.1875,-20.1875,-20.1875,1.646595,3.160282,8.554875,6.812647,6.116674,6.445595,-0.03109277,-0.4449098,1.622078,-0.002176403,0.0898288,1.650339,0.1197504,0.3642679,1.774004,-0.06848592,-0.4508819,1.582918,-0.01639926,0.04635745,1.675224,0.1104707,-0.08666037,1.771834,0.1058399,-0.4027568,1.750253,-0.0621894,0.1026065,1.743641,0.02308454,-0.3971829,1.716284,-0.08222652,-0.127228,1.694528,0.2553501,-0.0841613,1.610611,NA,NA,Unknown,NotTracked,
0.9086914,-0.340332,-0.1826172,-0.5673828,0.5537109,0.3540039,-2,-3,0,0,-2,-1,-3,-1,-2,-1,-1,0,18,16,3,-3,-2.1875,-2.1875,-2.1875,-36.0625,-36.0625,-36.0625,1.662227,3.159011,8.539083,6.769501,6.085832,6.482299,-0.03003781,-0.4451788,1.621523,-0.01313371,0.1026603,1.647028,0.1212668,0.3640032,1.77439,-0.0664597,-0.4507668,1.581154,-0.02245696,0.06448465,1.677693,0.1108038,-0.08684651,1.77213,0.1065366,-0.4032958,1.750294,-0.06038384,0.1012753,1.740536,0.02350835,-0.3978012,1.716113,-0.08060326,-0.1319509,1.692943,0.2330403,-0.07317816,1.597617,NA,NA,Unknown,NotTracked,
0.9003906,-0.3505859,-0.1987305,-0.5161133,0.6074219,0.4248047,-1,-4,-3,-4,-4,-2,-3,-2,13,-5,-6,1,30,14,2,3,-3.6875,-3.6875,-3.6875,-34.4375,-34.4375,-34.4375,1.657592,3.160095,8.538099,6.706691,6.008524,6.49929,-0.02871414,-0.4441536,1.620817,-0.01791119,0.1001203,1.631275,0.1229951,0.3636271,1.774804,-0.0649718,-0.4516181,1.58051,-0.03131013,0.07415825,1.678445,0.1110858,-0.08684476,1.772244,0.1069778,-0.4033798,1.750151,-0.05948523,0.09944396,1.738695,0.02377173,-0.3979027,1.715898,-0.08251511,-0.1282006,1.695234,0.21772,-0.06562454,1.5915,NA,NA,Unknown,NotTracked,
0.9072266,-0.355957,-0.2182617,-0.3305664,0.6166992,0.4052734,0,0,0,-4,1,0,-1,-2,10,3,0,0,7,1,-2,-2,-3.1875,-3.1875,-3.1875,2.625,2.625,2.625,1.636538,3.162804,8.554817,6.66284,5.851014,6.489127,-0.02872971,-0.4413683,1.622277,-0.0548649,0.1113446,1.642106,0.1239008,0.3634618,1.775038,-0.06601125,-0.4526656,1.581244,-0.06855611,0.06346148,1.686365,0.1114635,-0.08681983,1.771674,0.107457,-0.4032734,1.750194,-0.0588512,0.09765282,1.738338,0.02419478,-0.3979082,1.716322,-0.0813145,-0.1300254,1.694796,0.2068805,-0.06395316,1.593165,NA,NA,Unknown,NotTracked,
0.9145508,-0.3374023,-0.2109375,-0.1728516,0.7211914,0.4379883,-2,0,-2,-3,-2,-1,-1,0,-5,-3,-2,4,-16,-7,-2,-4,6.75,6.75,6.75,14.375,14.375,14.375,1.636619,3.166764,8.564344,6.675496,5.684225,6.478193,-0.0281233,-0.4416575,1.621721,-0.05516553,0.07460735,1.63842,0.1247816,0.3634831,1.775271,-0.06546439,-0.4501384,1.581859,-0.07006265,0.02945234,1.684447,0.1116665,-0.08676984,1.771075,0.1077127,-0.403068,1.75003,-0.0582995,0.09839827,1.738948,0.02451784,-0.3977044,1.716895,-0.08013688,-0.1293764,1.695647,0.2049356,-0.06450598,1.593491,NA,NA,Unknown,NotTracked,
0.9047852,-0.3334961,-0.2036133,-0.1738281,0.7084961,0.421875,-1,-3,-1,3,0,-1,-3,1,12,-2,-6,-15,-25,-11,-5,0,9.8125,9.8125,9.8125,18.8125,18.8125,18.8125,1.647827,3.17,8.569537,6.684743,5.480759,6.458215,-0.02773598,-0.4417761,1.620833,-0.06991346,0.03489276,1.615023,0.1252765,0.3635488,1.775608,-0.06510977,-0.4485156,1.580811,-0.03017454,0.05727271,1.663934,0.1118555,-0.08665451,1.771192,0.107845,-0.4027867,1.749725,-0.05817858,0.1009432,1.740599,0.02461124,-0.3975555,1.716972,-0.07627986,-0.137946,1.692744,0.2032781,-0.06676216,1.595651,NA,NA,Unknown,Unknown,
0.8984375,-0.3554688,-0.1982422,-0.125,0.8359375,0.519043,-1,-2,0,-1,-1,-1,1,0,-31,-9,0,11,37,21,3,-7,8.5,8.5,8.5,3.5625,3.5625,3.5625,1.65782,3.172098,8.576159,6.682245,5.166723,6.393471,-0.02826952,-0.4412906,1.621931,-0.07295676,-0.02198197,1.637844,0.1254125,0.363519,1.775758,-0.06763846,-0.4513049,1.582317,-0.01628976,0.02871035,1.671683,0.111956,-0.08654316,1.77127,0.107697,-0.402634,1.749364,-0.05814514,0.107282,1.745365,0.0245358,-0.3974008,1.716989,-0.07522207,-0.1421891,1.68478,0.2069008,-0.0717497,1.599193,NA,NA,Unknown,Unknown,
0.9023438,-0.3427734,-0.1928711,0.03759766,0.9692383,0.5927734,0,-1,3,2,-2,-1,-2,-2,-26,-11,-6,2,-3,-8,-2,-3,15.25,15.25,15.25,17.4375,17.4375,17.4375,1.665415,3.175881,8.591911,6.683838,4.945641,6.297001,-0.02951408,-0.4418133,1.623326,-0.05944123,-0.07665583,1.617674,0.1254458,0.363442,1.775854,-0.06964747,-0.4482787,1.584651,-0.02679667,-0.05993031,1.559067,0.1119973,-0.0865503,1.771345,0.1075798,-0.4027571,1.749197,-0.05842451,0.1068388,1.745879,0.02448267,-0.3973861,1.716979,-0.07565546,-0.1563073,1.675326,0.2225088,-0.08539446,1.610376,NA,NA,Unknown,Unknown,
0.8979492,-0.3310547,-0.2094727,0.09960938,1.15625,0.6181641,0,-2,-3,2,-1,-1,-2,-1,-14,-8,-2,15,13,-3,-2,-5,1.875,1.875,1.875,19.6875,19.6875,19.6875,1.672204,3.175456,8.603159,6.724076,4.766879,6.239738,-0.03073647,-0.4444084,1.624565,-0.04613271,-0.1067738,1.61828,0.1251944,0.3635116,1.775877,-0.07012717,-0.4509637,1.583589,-0.07202663,-0.08799459,1.57772,0.111921,-0.08645654,1.771455,0.1072119,-0.4025584,1.749055,-0.0589696,0.1080902,1.749393,0.02418185,-0.3970079,1.717001,-0.07679373,-0.159085,1.671212,0.2296355,-0.09167005,1.618043,NA,NA,Unknown,Unknown,
0.8769531,-0.40625,-0.1835938,0.1899414,1.280273,0.7348633,-1,-1,-1,-1,0,-1,-2,-2,-11,-1,3,3,5,2,0,-2,-3.5625,-3.5625,-3.5625,-41.25,-41.25,-41.25,1.676,3.170329,8.594054,6.695129,4.691864,6.207667,-0.03268972,-0.4446237,1.62518,-0.04035696,-0.1373474,1.616477,0.124958,0.3635756,1.775809,-0.07542433,-0.4500227,1.588455,-0.01380952,-0.07429396,1.6595,0.1118077,-0.08642569,1.771593,0.1068925,-0.4024645,1.749075,-0.05942217,0.1084299,1.75077,0.02391322,-0.3968078,1.717107,-0.07830878,-0.1554612,1.674364,0.2347447,-0.09485181,1.62218,NA,NA,Unknown,Unknown,
0.9414063,-0.3813477,-0.2050781,0.02099609,0.8203125,0.5302734,2,0,0,3,-2,-1,-3,-4,-11,-3,-2,-13,-15,-4,-1,-2,-9.375,-9.375,-9.375,7.25,7.25,7.25,1.675684,3.16472,8.574813,6.634201,4.789647,6.178731,-0.03220697,-0.4452557,1.624109,-0.03938744,-0.1322318,1.61807,0.1244158,0.3634749,1.775625,-0.07128227,-0.4505295,1.584696,-0.002483485,-0.05663965,1.656,0.1116614,-0.08631776,1.771682,0.1066477,-0.4022508,1.749001,-0.05992267,0.108517,1.751276,0.02370766,-0.39636,1.716958,-0.07833149,-0.1554108,1.674452,0.2380879,-0.09558402,1.625941,NA,NA,Unknown,Unknown,
0.9165039,-0.3588867,-0.1850586,0.1098633,0.8212891,0.4614258,2,-2,-1,1,2,0,-1,-3,6,5,4,4,12,1,1,0,-12.8125,-12.8125,-12.8125,14.125,14.125,14.125,1.703107,3.164895,8.526273,6.651607,4.836502,6.169256,-0.03067627,-0.4449082,1.621608,-0.04143501,-0.1223791,1.615444,0.1237997,0.3634387,1.775104,-0.06945816,-0.4509283,1.583238,-0.008010433,-0.05557968,1.657528,0.1114967,-0.08610413,1.77183,0.1065135,-0.4016998,1.749183,-0.06015726,0.1086512,1.751285,0.02368304,-0.3958409,1.716901,-0.07836111,-0.1585388,1.67155,0.2386135,-0.0957608,1.627778,NA,NA,Unknown,Unknown,
0.90625,-0.340332,-0.1870117,0.1845703,0.7451172,0.3950195,-1,-4,-2,-2,-1,-1,0,-1,1,-13,-6,-1,18,11,4,7,3.0625,3.0625,3.0625,-8.1875,-8.1875,-8.1875,1.728707,3.167048,8.486064,6.660732,4.861071,6.141725,-0.02962661,-0.457703,1.621548,-0.04391582,-0.1164659,1.610767,0.1231823,0.3634448,1.774801,-0.07370965,-0.4703689,1.587043,-0.01039176,-0.04817797,1.656444,0.1113646,-0.08608366,1.771937,0.1064501,-0.401696,1.749219,-0.0603139,0.1087794,1.751262,0.02364192,-0.3958439,1.716891,-0.0747401,-0.1766422,1.660537,0.2378657,-0.09598109,1.62874,NA,NA,Unknown,Unknown,
0.8959961,-0.3017578,-0.1816406,0.1621094,0.6425781,0.3193359,-1,-1,-2,-1,-2,-4,-2,-2,1,8,3,1,-10,1,1,3,22.0625,22.0625,22.0625,-33,-33,-33,1.754001,3.167718,8.489524,6.616868,4.79038,6.081332,-0.02905409,-0.4595432,1.621988,-0.04330899,-0.1164565,1.606194,0.1226134,0.3635114,1.77451,-0.07569246,-0.4837353,1.589541,-0.008270361,-0.05402124,1.658019,0.1110235,-0.08592876,1.772115,0.1063831,-0.4015993,1.7493,-0.06072499,0.1090731,1.751363,0.02359244,-0.3957359,1.71694,-0.0738317,-0.1813189,1.659306,0.23788,-0.09663461,1.629851,NA,NA,Unknown,Unknown,
0.8803711,-0.3769531,-0.2299805,0.3466797,0.6557617,0.4438477,-1,-1,-1,1,-1,-1,0,-1,5,2,-2,5,5,-4,-5,-5,60.125,60.125,60.125,-38.75,-38.75,-38.75,1.775786,3.174324,8.538516,6.57484,4.685925,5.995051,-0.03255241,-0.4498972,1.623735,-0.04290035,-0.1482767,1.586707,0.1217722,0.3635769,1.774283,-0.07921731,-0.4554592,1.59446,-0.06727822,-0.2165699,1.615,0.1107441,-0.08590668,1.772153,0.1063128,-0.4015602,1.749333,-0.06130464,0.1091719,1.751513,0.02352948,-0.3957159,1.716928,-0.07876549,-0.1675144,1.669832,0.2424662,-0.09863365,1.6339,NA,NA,Unknown,Unknown,
