ALX,ALY,ALZ,ARX,ARY,ARZ,EMG0L,EMG1L,EMG2L,EMG3L,EMG4L,EMG5L,EMG6L,EMG7L,EMG0R,EMG1R,EMG2R,EMG3R,EMG4R,EMG5R,EMG6R,EMG7R,GLX,GLY,GLZ,GRX,GRY,GRZ,ORL,OPL,OYL,ORR,OPR,OYR,LHNX,LHNY,LHNZ,RHNX,RHNY,RHNZ,HX,HY,HZ,LTX,LTY,LTZ,RTX,RTY,RTZ,SpineMidX,SpineMidY,SpineMidZ,SpineBaseX,SpineBaseY,SpineBaseZ,ShoulderLeftX,ShoulderLeftY,ShoulderLeftZ,ShoulderRightX,ShoulderRightY,ShoulderRightZ,ElbowLeftX,ElbowLeftY,ElbowLeftZ,ElbowRightX,ElbowRightY,ElbowRightZ,Myo_Pose_left,Myo_Pose_Right,Kinect_pose_left,Kinect_pose_right
0.934082,-0.3339844,-0.1020508,0.9287109,0.3012695,0.01806641,-19,-1,7,0,-1,-1,-2,-4,-1,-1,-1,-3,0,-2,-4,0,-2.8125,-2.8125,-2.8125,-4.5,-4.5,-4.5,2.054632,3.071654,7.97413,7.314443,3.016392,2.526937,-0.08041356,-0.4363534,1.679801,0.2930083,-0.4373095,1.667942,0.1154145,0.3689155,1.74895,-0.1302141,-0.4632137,1.679833,0.3388259,-0.431686,1.663966,0.1096157,-0.0916762,1.766899,0.1068601,-0.4143627,1.764488,-0.06704989,0.1073575,1.767084,0.02273791,-0.4065456,1.73265,-0.1016274,-0.1610458,1.761432,0.312516,-0.1614677,1.759003,NA,NA,NotTracked,NotTracked,
0.9326172,-0.3383789,-0.09619141,0.921875,0.3198242,0.02539063,7,-1,9,1,-2,-1,0,-1,1,-1,1,0,-3,1,0,-1,-6.25,-6.25,-6.25,-7.125,-7.125,-7.125,2.048765,3.071244,7.97134,7.310333,3.016647,2.521009,-0.08080535,-0.436923,1.679592,0.2924667,-0.4378378,1.669628,0.1155452,0.3689474,1.749259,-0.1305273,-0.4661725,1.681,0.3379712,-0.4360832,1.66437,0.1097245,-0.09155986,1.767099,0.1070152,-0.4142501,1.764535,-0.06688508,0.1074716,1.767234,0.02284444,-0.4064654,1.732733,-0.1015278,-0.1613306,1.761449,0.3125594,-0.1612433,1.759045,NA,NA,NotTracked,NotTracked,
0.9291992,-0.34375,-0.1049805,0.9233398,0.3115234,0.05273438,-1,0,11,3,-2,-2,0,0,0,-1,-2,0,-1,-1,-1,0,-4.25,-4.25,-4.25,-4.8125,-4.8125,-4.8125,2.04259,3.071611,7.969417,7.300149,3.019556,2.518059,-0.08090182,-0.4367281,1.679864,0.292348,-0.4378564,1.670589,0.1157781,0.3689275,1.74945,-0.1307759,-0.4613931,1.67947,0.338415,-0.4358789,1.665365,0.1098144,-0.09153408,1.767307,0.1070763,-0.4142401,1.764569,-0.06678578,0.1074586,1.767281,0.02287366,-0.4064651,1.732769,-0.1013292,-0.1609887,1.761695,0.3126007,-0.1610558,1.759127,NA,NA,NotTracked,NotTracked,
0.9384766,-0.3271484,-0.1005859,0.9248047,0.3120117,0.04443359,-6,0,4,6,-1,-2,-2,0,-3,-2,-1,-1,0,-2,-1,-1,-4.6875,-4.6875,-4.6875,-4.1875,-4.1875,-4.1875,2.034722,3.072198,7.966116,7.295446,3.01969,2.515091,-0.08135091,-0.4364714,1.678612,0.2922025,-0.438084,1.670681,0.1161927,0.3689217,1.749746,-0.1318196,-0.4572174,1.679157,0.3383399,-0.4363189,1.665425,0.1098562,-0.09152167,1.767442,0.107083,-0.4142283,1.764578,-0.06664944,0.1074646,1.767328,0.02286528,-0.406446,1.732746,-0.1012966,-0.1606997,1.761576,0.3125797,-0.1609745,1.759322,NA,NA,NotTracked,NotTracked,
0.9379883,-0.3198242,-0.1044922,0.9296875,0.3134766,0.04833984,0,-3,3,-3,-1,-1,0,-2,-2,-1,0,-2,1,0,1,0,-2.3125,-2.3125,-2.3125,-0.375,-0.375,-0.375,2.033159,3.070697,7.962234,7.293843,3.019125,2.513213,-0.08130997,-0.4367703,1.678139,0.2918125,-0.4376024,1.671106,0.1165248,0.3690124,1.749981,-0.1312881,-0.4594783,1.677441,0.3353114,-0.4422876,1.6615,0.1098656,-0.09149122,1.767487,0.1071121,-0.4142103,1.764584,-0.06657071,0.1075123,1.767215,0.02289631,-0.4064024,1.732687,-0.101306,-0.1599222,1.76121,0.3124982,-0.160996,1.759486,NA,NA,NotTracked,NotTracked,
0.9301758,-0.3178711,-0.1079102,0.921875,0.3203125,0.03955078,-2,0,1,0,-1,-1,-1,-2,-1,-1,0,-3,-2,-2,-2,-1,-1.6875,-1.6875,-1.6875,1.1875,1.1875,1.1875,2.032095,3.069162,7.960505,7.295577,3.020147,2.512166,-0.08191162,-0.4370829,1.67916,0.291874,-0.4382002,1.671999,0.1167389,0.3690801,1.750287,-0.1332422,-0.4585423,1.68305,0.3377419,-0.4374231,1.664875,0.1099094,-0.09150415,1.767676,0.1071388,-0.4142072,1.764616,-0.06655364,0.1074847,1.767177,0.02289765,-0.4063926,1.732698,-0.1016286,-0.1600327,1.761044,0.3124406,-0.1611166,1.759803,NA,NA,NotTracked,NotTracked,
0.9399414,-0.3212891,-0.1035156,0.9248047,0.3178711,0.03564453,-2,-1,-2,7,-2,0,-1,-3,-2,0,0,1,-1,-3,-3,-2,2.9375,2.9375,2.9375,0.25,0.25,0.25,2.033914,3.066715,7.962317,7.297501,3.021306,2.510928,-0.08152956,-0.4375256,1.678884,0.29178,-0.4374026,1.671688,0.1167975,0.3690946,1.750419,-0.1323505,-0.4542677,1.678852,0.3359543,-0.4416973,1.662151,0.1098961,-0.09150012,1.767714,0.1071503,-0.4142108,1.764635,-0.06656604,0.1075076,1.767162,0.02290325,-0.4063911,1.732716,-0.1016273,-0.1599353,1.761031,0.3124372,-0.1611465,1.759899,NA,NA,NotTracked,NotTracked,
0.9306641,-0.3452148,-0.09912109,0.9243164,0.309082,0.04101563,-1,-1,0,1,0,-1,-4,-1,-1,-1,0,0,1,-1,2,0,3.4375,3.4375,3.4375,2.75,2.75,2.75,2.040868,3.066816,7.959411,7.301299,3.023088,2.510181,-0.0816521,-0.4365979,1.678824,0.2917636,-0.4376993,1.670923,0.1167467,0.3690405,1.750454,-0.1325825,-0.4518219,1.677697,0.3364004,-0.4416411,1.66306,0.1098608,-0.09149863,1.76773,0.1071849,-0.4142172,1.764601,-0.06664682,0.1074383,1.767106,0.0229337,-0.4064229,1.732639,-0.1018141,-0.1609361,1.76072,0.3124217,-0.1611022,1.759969,NA,NA,NotTracked,NotTracked,
0.9375,-0.3393555,-0.09326172,0.9208984,0.3032227,0.04003906,2,-2,-2,0,-2,0,-2,1,-1,-3,0,0,-4,-2,-2,0,2.875,2.875,2.875,0.75,0.75,0.75,2.049321,3.067635,7.957658,7.30502,3.022917,2.509949,-0.0818774,-0.436745,1.678931,0.2916984,-0.4374506,1.670234,0.1166648,0.3690594,1.750526,-0.1326858,-0.4497035,1.677922,0.3359931,-0.4412157,1.662651,0.1097768,-0.09149906,1.767795,0.1071731,-0.4142246,1.764598,-0.06674376,0.1074435,1.767121,0.02291162,-0.4064457,1.73262,-0.1019437,-0.1608893,1.76082,0.3124017,-0.1611623,1.75995,NA,NA,NotTracked,NotTracked,
0.9355469,-0.3422852,-0.09326172,0.9213867,0.309082,0.02929688,1,0,5,1,0,-1,0,-2,-1,-1,-1,-1,1,-1,-2,1,1.9375,1.9375,1.9375,1,1,1,2.054092,3.068198,7.95582,7.309253,3.022951,2.508505,-0.08195394,-0.436684,1.679897,0.2914397,-0.4375971,1.670037,0.1163379,0.3690769,1.750589,-0.1326629,-0.449661,1.678303,0.3364473,-0.4474361,1.665702,0.1097208,-0.09147033,1.767832,0.1071827,-0.4142052,1.764615,-0.0670077,0.1076146,1.767624,0.02291264,-0.4064368,1.732649,-0.1020947,-0.1611789,1.760956,0.3123392,-0.1612261,1.75994,NA,NA,NotTracked,NotTracked,
0.934082,-0.3364258,-0.1005859,0.9228516,0.3076172,0.02783203,5,0,-11,2,-1,-1,0,1,0,-2,-2,-1,-1,-1,-3,-2,0.1875,0.1875,0.1875,-0.9375,-0.9375,-0.9375,2.055285,3.068151,7.955465,7.309893,3.022803,2.507866,-0.08223635,-0.4374465,1.679915,0.2913257,-0.4375482,1.670812,0.1159922,0.3691838,1.750704,-0.1331869,-0.4489314,1.679707,0.3352465,-0.4365411,1.663205,0.1096214,-0.09143179,1.767968,0.107191,-0.4142084,1.764656,-0.06716605,0.1075967,1.767735,0.02293297,-0.4064863,1.732757,-0.10229,-0.1615063,1.760893,0.3123202,-0.1612752,1.759936,NA,NA,NotTracked,NotTracked,
0.9370117,-0.3393555,-0.09179688,0.9174805,0.3105469,0.03173828,-3,0,-2,-2,-1,0,0,-1,1,0,0,-1,-2,1,0,0,-0.9375,-0.9375,-0.9375,-2.375,-2.375,-2.375,2.055397,3.068217,7.955492,7.311707,3.022892,2.503122,-0.0822429,-0.4369404,1.679323,0.2913478,-0.4375444,1.670447,0.1156517,0.3691546,1.750694,-0.1326818,-0.4426023,1.677173,0.3356916,-0.442753,1.662846,0.1095109,-0.09144733,1.768009,0.1071739,-0.414221,1.764662,-0.0675507,0.107429,1.767827,0.02291109,-0.4065269,1.732784,-0.1024289,-0.1617571,1.760882,0.312267,-0.1613579,1.759959,NA,NA,NotTracked,NotTracked,
0.9345703,-0.3422852,-0.09521484,0.921875,0.3173828,0.04052734,-3,-4,-7,5,0,-1,1,-1,0,-1,-1,-2,-2,-2,-3,1,-0.9375,-0.9375,-0.9375,-1.4375,-1.4375,-1.4375,2.055397,3.068217,7.955492,7.31067,3.022761,2.500674,-0.08211253,-0.437498,1.680122,0.2914704,-0.4374325,1.671306,0.1155163,0.3691414,1.750647,-0.1327827,-0.4487575,1.679568,0.3365657,-0.4415455,1.664475,0.1093772,-0.09146893,1.768094,0.1071347,-0.4141999,1.764715,-0.06768604,0.107429,1.767807,0.02288482,-0.4065198,1.73284,-0.1025776,-0.1618041,1.760864,0.3122462,-0.1613821,1.760073,NA,NA,NotTracked,NotTracked,
0.9326172,-0.3344727,-0.09814453,0.9282227,0.3149414,0.04345703,-5,-2,-6,-2,-1,-2,0,-1,-1,-1,-2,-1,-4,-1,-3,-6,-1.5,-1.5,-1.5,-1.25,-1.25,-1.25,2.054801,3.067699,7.95176,7.30615,3.023417,2.500583,-0.08169224,-0.4374948,1.678567,0.3024308,-0.4465384,1.669236,0.1153385,0.3691544,1.750581,-0.1324634,-0.4481301,1.677355,0.3223296,-0.4420872,1.7033,0.1093135,-0.09148987,1.768132,0.1071339,-0.4142044,1.764711,-0.06777799,0.1074242,1.767786,0.02288697,-0.4065365,1.73284,-0.1026246,-0.1618654,1.760898,0.3122331,-0.1613323,1.760111,NA,NA,NotTracked,NotTracked,
0.9267578,-0.3286133,-0.1000977,0.9140625,0.3149414,0.03125,0,0,1,2,0,-3,-1,-1,-1,-1,-1,-2,-3,-1,-1,-1,-0.75,-0.75,-0.75,-1.5625,-1.5625,-1.5625,2.054326,3.067502,7.951537,7.305938,3.024173,2.499253,-0.08190677,-0.4373133,1.678314,0.2914259,-0.4381023,1.671092,0.1151827,0.3691037,1.750557,-0.1321564,-0.4513136,1.677834,0.33585,-0.4287622,1.663963,0.1092087,-0.09150722,1.768166,0.1071477,-0.4142021,1.764713,-0.06785894,0.107445,1.76772,0.02290913,-0.40654,1.732807,-0.1026872,-0.1620615,1.760799,0.3122365,-0.1611722,1.760182,NA,NA,NotTracked,NotTracked,
0.9365234,-0.3388672,-0.09277344,0.9248047,0.3164063,0.03808594,-2,-2,-6,-4,-1,-1,-1,-1,0,0,0,1,0,0,0,2,-1.0625,-1.0625,-1.0625,-1.75,-1.75,-1.75,2.049934,3.066822,7.9523,7.306937,3.024202,2.495881,-0.08232467,-0.4378567,1.67892,0.2914333,-0.4380276,1.671658,0.1151068,0.3691396,1.750561,-0.1331315,-0.4612293,1.681786,0.2877584,-0.4180467,1.703385,0.1091745,-0.09153814,1.768163,0.1071424,-0.4142151,1.764715,-0.06791459,0.107491,1.767617,0.02290243,-0.4065641,1.73281,-0.1027256,-0.1620858,1.760694,0.3122286,-0.1611849,1.76021,NA,NA,NotTracked,NotTracked,
0.9414063,-0.328125,-0.09716797,0.9208984,0.3076172,0.04052734,5,0,-2,-5,-1,-1,0,0,1,-2,-2,-2,0,0,-1,0,-1.0625,-1.0625,-1.0625,-1.25,-1.25,-1.25,2.048999,3.066526,7.953374,7.303721,3.023216,2.49562,-0.08230191,-0.4373115,1.679108,0.2919493,-0.4382654,1.671408,0.115131,0.369158,1.750578,-0.1325503,-0.4519722,1.67857,0.3386413,-0.4349554,1.666579,0.1091086,-0.09157449,1.768214,0.1071299,-0.4142389,1.764723,-0.06793457,0.1074754,1.767609,0.02287971,-0.4065915,1.732776,-0.1026562,-0.161683,1.760776,0.3121457,-0.1613854,1.760306,NA,NA,NotTracked,NotTracked,
0.9291992,-0.3344727,-0.09960938,0.9228516,0.3105469,0.04199219,-2,-1,-3,7,0,-1,-1,-1,0,0,-1,-1,-1,-1,0,1,0.8125,0.8125,0.8125,-0.0625,-0.0625,-0.0625,2.048235,3.066158,7.954138,7.304032,3.023417,2.496005,-0.08191986,-0.437453,1.678695,0.2916982,-0.4379123,1.671078,0.1151168,0.3691853,1.750474,-0.133644,-0.4522936,1.682384,0.336226,-0.4391989,1.665528,0.109125,-0.09155975,1.768188,0.107156,-0.4142387,1.764666,-0.06798381,0.1073206,1.767442,0.02288131,-0.4065945,1.732689,-0.1028128,-0.1616188,1.760584,0.3121415,-0.1613485,1.760332,NA,NA,NotTracked,NotTracked,
0.9306641,-0.3325195,-0.105957,0.9272461,0.3139648,0.03125,1,-2,-7,-4,-2,0,0,2,0,-3,0,-1,0,-1,-1,0,-0.8125,-0.8125,-0.8125,-0.5625,-0.5625,-0.5625,2.048652,3.066155,7.954558,7.303895,3.023322,2.496003,-0.08166119,-0.4370799,1.678041,0.2913078,-0.4379911,1.670481,0.1151165,0.3691906,1.750448,-0.1321075,-0.4537098,1.677531,0.3341946,-0.4376726,1.658731,0.1091271,-0.09156536,1.768178,0.107176,-0.4142699,1.764596,-0.06802235,0.1072903,1.76732,0.02288906,-0.4066362,1.732571,-0.1027951,-0.1612644,1.760527,0.3121152,-0.1613652,1.760353,NA,NA,NotTracked,NotTracked,
0.9399414,-0.3388672,-0.1049805,0.9970703,0.3925781,-0.01269531,4,1,-3,-1,0,-1,0,-1,0,12,3,1,-1,-1,0,0,0.875,0.875,0.875,-2.1875,-2.1875,-2.1875,2.04667,3.066236,7.955703,7.315015,3.028339,2.483991,-0.08214251,-0.436936,1.678951,0.2920897,-0.4380978,1.670557,0.115146,0.3692323,1.750454,-0.1338974,-0.4423607,1.67975,0.3367586,-0.4379389,1.665867,0.1091314,-0.09152912,1.768213,0.107221,-0.4142658,1.764622,-0.06797492,0.1073291,1.767308,0.02292604,-0.4066511,1.732563,-0.1027571,-0.1617651,1.760521,0.3121042,-0.1615757,1.760438,NA,NA,NotTracked,NotTracked,
0.9619141,-0.3862305,-0.140625,1.080078,0.6606445,-0.1196289,-4,-1,0,-3,-23,-4,-1,0,-2,-6,-10,3,-1,0,-1,0,0.8125,0.8125,0.8125,-130.375,-130.375,-130.375,2.040145,3.068039,7.960832,7.167336,3.105823,2.496832,-0.08378413,-0.4371811,1.677157,0.3052681,-0.4441556,1.666294,0.1151946,0.3693436,1.750403,-0.1362868,-0.444597,1.674797,0.3374019,-0.4582345,1.661,0.1091432,-0.09152518,1.768246,0.1071969,-0.4142664,1.764657,-0.06794286,0.1073452,1.767213,0.02290718,-0.4066522,1.732582,-0.103044,-0.1614709,1.760914,0.3123691,-0.1614166,1.761087,NA,NA,NotTracked,NotTracked,
0.9145508,-0.6279297,-0.2998047,1.116699,0.6552734,0.2597656,-3,-3,-3,6,-17,-12,-4,-4,-3,-3,10,11,-17,-3,0,1,129.3125,129.3125,129.3125,-110.3125,-110.3125,-110.3125,2.208145,3.186882,7.956053,6.852125,3.28579,2.625309,-0.09755522,-0.4255982,1.668003,0.313988,-0.4355726,1.652627,0.1152165,0.369347,1.750366,-0.1226536,-0.4179412,1.61851,0.3167085,-0.4326979,1.595849,0.1091403,-0.09152921,1.76824,0.1071719,-0.4142848,1.764702,-0.06765438,0.1077806,1.766854,0.02289273,-0.406662,1.732575,-0.1068838,-0.1588178,1.762925,0.3163995,-0.1603237,1.766532,NA,NA,NotTracked,NotTracked,
0.9951172,-0.6616211,-0.08398438,0.7832031,0.7421875,0.5053711,-3,2,-5,1,-30,-19,-36,-2,-9,-15,-9,5,-2,-7,-4,-1,123.0625,123.0625,123.0625,-79.0625,-79.0625,-79.0625,2.489463,3.375753,7.912732,6.6335,3.711564,2.662368,-0.1541497,-0.3823347,1.615491,0.3554816,-0.381404,1.603327,0.1153308,0.3693287,1.750331,-0.1886863,-0.3763539,1.641714,0.3451134,-0.3895486,1.533905,0.1090856,-0.09153683,1.768298,0.1069012,-0.4143693,1.765073,-0.06719638,0.1085011,1.766483,0.0227168,-0.4066877,1.732869,-0.1186863,-0.1496879,1.769457,0.3243487,-0.1580874,1.774989,NA,NA,Closed,Closed,
0.7949219,-0.9199219,0.2597656,0.5375977,0.4550781,0.6420898,-4,-7,-11,-5,-16,-5,10,-1,-3,7,-6,10,13,11,12,-2,79.8125,79.8125,79.8125,-82.9375,-82.9375,-82.9375,2.715998,3.795937,7.845695,6.485917,4.048888,2.65593,-0.1787771,-0.3359214,1.543354,0.3845035,-0.3324775,1.534378,0.1156843,0.3691633,1.750035,-0.2038285,-0.3450986,1.538818,0.405871,-0.3200465,1.515606,0.1090253,-0.09156203,1.768461,0.1068388,-0.4144288,1.765439,-0.06648444,0.1096338,1.766354,0.02270212,-0.4066938,1.733112,-0.1329362,-0.1301535,1.776682,0.3329597,-0.1383099,1.787123,NA,NA,Lasso,Closed,
0.5703125,-0.671875,0.3579102,0.4008789,0.2998047,0.6420898,-3,33,23,11,-1,1,2,-1,0,5,2,8,50,28,22,3,57,57,57,-35.125,-35.125,-35.125,2.869071,4.114168,7.804165,6.39161,4.33434,2.658861,-0.1965878,-0.2688778,1.48968,0.4051618,-0.2617661,1.491209,0.1159526,0.3690316,1.749931,-0.2354102,-0.2464535,1.519833,0.4156828,-0.2327567,1.47975,0.1090183,-0.09151411,1.768754,0.106809,-0.4143344,1.765524,-0.06605336,0.1111211,1.76658,0.02269283,-0.4065616,1.733251,-0.142679,-0.1143055,1.776108,0.3384432,-0.125523,1.78875,NA,NA,Closed,Unknown,
0.4916992,-0.5693359,0.4160156,0.4086914,0.2509766,0.7382813,0,-9,3,-22,-23,-5,-8,-1,-13,-6,2,6,13,-2,-1,-4,13.5,13.5,13.5,2.375,2.375,2.375,2.943097,4.370952,7.74487,6.317074,4.576179,2.762447,-0.197091,-0.2131835,1.455559,0.4022872,-0.210957,1.462005,0.1160467,0.3689152,1.75,-0.2386784,-0.1964906,1.4798,0.4123367,-0.1741285,1.45425,0.1089176,-0.09158111,1.769073,0.1067676,-0.4143092,1.765511,-0.0663466,0.1120534,1.767496,0.02266128,-0.4065282,1.733242,-0.1744356,-0.1066631,1.757356,0.3505117,-0.1259802,1.783265,NA,NA,Unknown,Unknown,
0.4902344,-0.550293,0.4467773,0.3427734,0.4023438,0.6982422,5,-8,-4,-3,-3,-3,-10,2,-6,-3,-2,-7,-16,-2,8,3,-23.3125,-23.3125,-23.3125,29.0625,29.0625,29.0625,2.990915,4.506236,7.620942,6.304471,4.656614,2.927084,-0.1728047,-0.1845401,1.438046,0.3707685,-0.1816068,1.441238,0.1164031,0.3688469,1.750885,-0.2181254,-0.1780004,1.449375,0.3812673,-0.1404174,1.416571,0.1087673,-0.09173221,1.769712,0.1066215,-0.4143454,1.765458,-0.06642785,0.1123087,1.768033,0.02252443,-0.4065565,1.733126,-0.1808364,-0.09749281,1.749978,0.3618017,-0.1254329,1.770527,NA,NA,Closed,Closed,
0.465332,-0.5908203,0.4321289,0.2949219,0.5722656,0.6079102,0,11,-4,-12,-1,2,13,6,-8,-9,-3,1,10,-20,-16,-5,-40.25,-40.25,-40.25,24.1875,24.1875,24.1875,2.983012,4.562664,7.515787,6.306715,4.674921,3.118884,-0.1358611,-0.1736037,1.432857,0.3300917,-0.1708486,1.437862,0.1165739,0.3686224,1.752114,-0.1916123,-0.1685252,1.432,0.3771095,-0.1562362,1.45125,0.1086591,-0.09179684,1.770224,0.1064412,-0.4143763,1.765214,-0.06644607,0.1123305,1.768061,0.02239524,-0.4065973,1.732821,-0.1857351,-0.090777,1.739806,0.3652368,-0.1173908,1.760989,NA,NA,Lasso,Closed,
0.3110352,-0.8608398,0.2182617,0.2646484,0.7734375,0.5380859,4,-8,-1,-11,-4,-3,-8,1,-4,3,-3,3,-19,0,3,0,-4,-4,-4,-3.875,-3.875,-3.875,2.985905,4.588003,7.194829,6.299748,4.670859,3.251771,-0.1018855,-0.1740287,1.437084,0.2932703,-0.1744354,1.445768,0.1171715,0.3684474,1.753826,-0.09514768,-0.1401112,1.4074,0.3380182,-0.1796846,1.441437,0.1085863,-0.09186331,1.770552,0.1063786,-0.4145053,1.764892,-0.06642522,0.1121914,1.767765,0.02239848,-0.4067292,1.732491,-0.1934617,-0.08525377,1.728681,0.3763466,-0.1072327,1.756226,NA,NA,Unknown,Unknown,
0.293457,-1.024414,0.04248047,0.2084961,1.052246,0.4287109,-1,0,-1,4,-1,-3,-2,0,7,-4,-7,-6,-1,-12,6,-2,16.1875,16.1875,16.1875,-12.9375,-12.9375,-12.9375,3.001859,4.582883,7.129073,6.307411,4.656432,3.30587,-0.07663891,-0.179368,1.44258,0.2659344,-0.1817937,1.445196,0.1176613,0.3682331,1.7553,-0.05309241,-0.144682,1.409583,0.2834429,-0.2136431,1.442923,0.1086018,-0.09190591,1.770792,0.1064812,-0.4147251,1.764169,-0.06601172,0.1121011,1.767331,0.02259912,-0.4069137,1.731607,-0.1910847,-0.0914598,1.715385,0.3282472,-0.1221574,1.681145,NA,NA,Unknown,Unknown,
0.2734375,-1.183105,-0.004882813,0.2670898,1.077637,0.4667969,0,-5,15,1,3,5,4,4,-15,-10,-2,-1,-7,-2,-22,-7,15.1875,15.1875,15.1875,-11.6875,-11.6875,-11.6875,2.988508,4.567362,7.129853,6.361576,4.649015,3.266428,-0.07293688,-0.1839527,1.443709,0.2648366,-0.1848618,1.443687,0.1179886,0.3680632,1.755776,-0.05230232,-0.1470487,1.409697,0.2813526,-0.2119189,1.437575,0.1086465,-0.09199765,1.770862,0.1066769,-0.4149963,1.763476,-0.06566826,0.1119227,1.766797,0.02294715,-0.407147,1.730653,-0.1881541,-0.09714094,1.713815,0.3703729,-0.1105135,1.743906,NA,NA,Unknown,Unknown,
0.3051758,-1.079102,0.09521484,0.234375,0.8261719,0.5908203,3,-7,-10,13,1,2,1,-4,-3,0,0,5,-6,-6,0,-1,1.25,1.25,1.25,-5.6875,-5.6875,-5.6875,2.933337,4.580323,7.224536,6.389894,4.664567,3.169661,-0.08807859,-0.1815957,1.443185,0.2836615,-0.1814496,1.441499,0.1182024,0.3680878,1.756092,-0.07606718,-0.1453106,1.416,0.318145,-0.1919199,1.43671,0.1087192,-0.09206188,1.771075,0.1067283,-0.4150016,1.763277,-0.06548222,0.1118213,1.766706,0.02301844,-0.4071443,1.730449,-0.1880624,-0.09676329,1.715756,0.3705909,-0.1104609,1.745381,NA,NA,Unknown,Unknown,
0.2548828,-0.8623047,0.3989258,0.1982422,0.5449219,0.7841797,7,25,-1,-7,-1,-3,-3,-1,-3,-14,3,1,1,4,-3,3,6.375,6.375,6.375,-8.1875,-8.1875,-8.1875,2.909712,4.619158,7.366104,6.392873,4.683773,3.046377,-0.1172122,-0.1752252,1.436882,0.3167606,-0.1783322,1.43735,0.1182747,0.368047,1.75593,-0.092664,-0.1387116,1.407667,0.322109,-0.2133225,1.433944,0.1087355,-0.09209065,1.771145,0.1065676,-0.4149924,1.763163,-0.06547084,0.111871,1.766661,0.02291262,-0.4071338,1.730391,-0.1907064,-0.09097189,1.727795,0.3703996,-0.1104479,1.745879,NA,NA,Unknown,Unknown,
0.2133789,-0.7138672,0.7094727,0.2553711,0.2285156,1.025391,6,-6,8,10,-3,-1,-3,3,-5,6,7,8,14,11,-2,1,4.0625,4.0625,4.0625,-15.125,-15.125,-15.125,2.945657,4.63163,7.426136,6.320595,4.674094,2.976979,-0.1398295,-0.1729389,1.437248,0.3391597,-0.1791149,1.436023,0.118297,0.3679894,1.755362,-0.08458021,-0.1482557,1.407125,0.3673562,-0.1906658,1.428,0.1086555,-0.09215637,1.77117,0.1062598,-0.4151396,1.763038,-0.06558818,0.111948,1.766631,0.02268956,-0.4072028,1.730349,-0.1889697,-0.08998332,1.727413,0.3672427,-0.1118817,1.746496,NA,NA,Unknown,Unknown,
0.3886719,-0.6992188,0.8125,0.2871094,0.3530273,0.9833984,-10,-7,-5,5,-7,-2,-3,-3,-11,-13,-4,0,8,-6,1,-22,-27.875,-27.875,-27.875,26.375,26.375,26.375,3.003516,4.595044,7.349544,6.227954,4.62378,3.120626,-0.125884,-0.1784505,1.438377,0.3222592,-0.1845916,1.436213,0.1184549,0.3677846,1.755105,-0.04574668,-0.1752001,1.4235,0.3191704,-0.2253033,1.438833,0.1087302,-0.09229144,1.771239,0.1062226,-0.4151921,1.762992,-0.06563721,0.1119618,1.766619,0.02264246,-0.4072431,1.730313,-0.1889886,-0.08797839,1.728885,0.36715,-0.1118839,1.746965,NA,NA,Unknown,Closed,
0.3256836,-0.9848633,0.2192383,0.3129883,0.8432617,0.6542969,-1,-4,-5,-7,3,4,8,4,-3,4,-12,-11,-20,-11,-1,-7,-19.625,-19.625,-19.625,46.3125,46.3125,46.3125,3.021,4.531832,7.123594,6.245354,4.591435,3.341424,-0.0858063,-0.1885095,1.44547,0.2745627,-0.1939866,1.44801,0.1185266,0.36761,1.754955,-0.0629453,-0.2242906,1.440875,0.2534297,-0.2274062,1.4463,0.1087878,-0.09236497,1.771323,0.1062891,-0.4152436,1.762884,-0.06541945,0.1119673,1.766535,0.02272523,-0.4073136,1.730142,-0.1903761,-0.08695503,1.72871,0.3711302,-0.1103297,1.747906,NA,NA,Unknown,Unknown,
0.2958984,-1.257324,-0.1645508,0.2641602,1.288574,0.237793,4,2,-2,4,7,5,3,1,1,-6,-2,-5,11,-2,-5,-11,39.3125,39.3125,39.3125,-36.8125,-36.8125,-36.8125,3.01457,4.519499,7.080793,6.325111,4.594291,3.407198,-0.05580201,-0.1923965,1.450948,0.2483083,-0.1954782,1.456491,0.1186318,0.3675333,1.754858,-0.005900422,-0.2148038,1.4534,0.2026876,-0.2193335,1.4545,0.1089027,-0.0924255,1.771388,0.1064574,-0.4153293,1.762757,-0.06499831,0.1117973,1.766309,0.02295211,-0.40738,1.729983,-0.1835047,-0.09582935,1.721753,0.3287784,-0.1233338,1.752743,NA,NA,Unknown,Unknown,
0.2382813,-1.146973,-0.3779297,0.2734375,0.9541016,0.3681641,1,4,-1,-10,-10,-5,0,3,3,-8,-9,-2,4,-1,7,11,44.0625,44.0625,44.0625,-23.6875,-23.6875,-23.6875,3.001462,4.52739,7.126906,6.339263,4.599302,3.307312,-0.06721611,-0.1897712,1.447887,0.2558381,-0.1924672,1.45296,0.1188393,0.3674332,1.754631,-0.1076637,-0.2032932,1.44919,0.2802157,-0.217967,1.450278,0.1090244,-0.09248149,1.771408,0.1065864,-0.4153953,1.762642,-0.06457449,0.1116945,1.766049,0.02309823,-0.4074247,1.729881,-0.1827079,-0.100889,1.723238,0.3641383,-0.1146368,1.7403,NA,NA,Unknown,Unknown,
0.5668945,-1.078613,-0.015625,0.3310547,0.7514648,0.6054688,-3,1,2,-4,-6,-3,1,-1,-1,-22,-8,-11,-6,1,0,-10,12.5625,12.5625,12.5625,16.375,16.375,16.375,2.965715,4.526489,7.209663,6.407012,4.596523,3.155943,-0.1027403,-0.1870857,1.44488,0.2915345,-0.1946298,1.446686,0.1190797,0.3675486,1.753978,-0.1217113,-0.2160983,1.446556,0.3025218,-0.2263895,1.438286,0.1090813,-0.09250899,1.771397,0.1066865,-0.4154134,1.762595,-0.06439113,0.1115564,1.765736,0.02316787,-0.407439,1.729864,-0.1815923,-0.1026612,1.721746,0.3668847,-0.1123848,1.743101,NA,NA,Unknown,Unknown,
0.3989258,-0.8369141,0.3701172,0.3608398,0.515625,0.7661133,0,-6,-1,-1,2,-5,-4,-3,0,-10,0,0,-8,-5,-2,0,-1.8125,-1.8125,-1.8125,9.8125,9.8125,9.8125,2.867556,4.544007,7.505896,6.451455,4.568837,2.944067,-0.1468137,-0.1876928,1.445364,0.3358247,-0.2017434,1.445731,0.1192875,0.3676512,1.753377,-0.1603678,-0.2195838,1.445737,0.3439873,-0.2404122,1.457727,0.109124,-0.09257477,1.771371,0.1066031,-0.4154545,1.762627,-0.06440783,0.1115041,1.765654,0.0230948,-0.4074818,1.729941,-0.1810709,-0.1026066,1.725592,0.3675837,-0.1120827,1.747308,NA,NA,Unknown,Closed,
0.3974609,-0.7822266,0.4208984,0.3398438,0.4873047,0.769043,3,-1,-3,3,-2,0,-2,1,-2,-8,1,-2,-6,-1,-2,-3,-4.9375,-4.9375,-4.9375,16.4375,16.4375,16.4375,2.849656,4.535994,7.611171,6.470996,4.533038,2.833931,-0.1827677,-0.192446,1.453654,0.374074,-0.2107096,1.449229,0.119639,0.3675486,1.752187,-0.2309656,-0.1846762,1.46835,0.3862946,-0.2395048,1.444714,0.1092425,-0.09267255,1.771135,0.106548,-0.4155311,1.762473,-0.06434926,0.1115501,1.765508,0.02301901,-0.4075502,1.729753,-0.1820461,-0.1013291,1.735026,0.3691453,-0.1169974,1.7551,NA,NA,Unknown,Unknown,
0.3461914,-0.7211914,0.456543,0.3154297,0.4438477,0.7543945,3,-1,-3,-3,-2,0,-2,-1,-2,-1,-8,-1,4,0,-1,1,-1.5,-1.5,-1.5,20.25,20.25,20.25,2.844442,4.493571,7.767194,6.476935,4.468422,2.78889,-0.2077712,-0.2024512,1.468608,0.3900821,-0.2249875,1.462211,0.1196438,0.3678317,1.750971,-0.2436563,-0.2147412,1.479187,0.4004415,-0.2604511,1.468357,0.1092882,-0.09270419,1.770742,0.1065405,-0.4155572,1.762295,-0.06429519,0.1116605,1.765316,0.02298669,-0.4075905,1.729465,-0.1888949,-0.103042,1.742366,0.3714848,-0.1201526,1.764808,NA,NA,Unknown,Unknown,
0.362793,-0.6938477,0.4428711,0.2587891,0.4716797,0.5620117,0,0,3,0,1,0,0,-1,3,1,1,4,4,1,-1,5,-21.25,-21.25,-21.25,58,58,58,2.837546,4.417781,7.819724,6.503983,4.30413,2.842515,-0.2173818,-0.2262293,1.482325,0.3921019,-0.2512866,1.47295,0.1196919,0.3677949,1.750027,-0.2517869,-0.2281907,1.486154,0.3466059,-0.2706223,1.4562,0.1093419,-0.09279668,1.769932,0.1065047,-0.4155779,1.761968,-0.06410831,0.1119796,1.764908,0.0228889,-0.4076023,1.729049,-0.1898447,-0.1069414,1.75084,0.3719751,-0.1218577,1.771394,NA,NA,Unknown,Unknown,
0.4477539,-0.6005859,0.2861328,0.4516602,0.6674805,0.4628906,-2,-4,-4,-18,-56,-18,-7,-4,0,-4,1,7,2,-1,-2,-2,-56.625,-56.625,-56.625,92.625,92.625,92.625,2.795785,4.247487,7.80213,6.623384,4.106682,2.893083,-0.2075408,-0.2766799,1.493421,0.3824476,-0.2939895,1.495425,0.1197533,0.3676564,1.748069,-0.2085305,-0.3184263,1.496167,0.3486148,-0.3281076,1.4995,0.1094181,-0.09281249,1.769763,0.1065582,-0.4155544,1.762077,-0.06389552,0.112327,1.764568,0.02292395,-0.407587,1.729131,-0.181752,-0.1060248,1.763312,0.3698937,-0.1194074,1.775476,NA,NA,Unknown,Unknown,
0.496582,-0.7944336,0.184082,0.6225586,0.6000977,0.3447266,0,0,1,2,6,20,7,-29,-4,-1,2,-4,-7,-1,-1,2,-94.0625,-94.0625,-94.0625,30.1875,30.1875,30.1875,2.654346,3.931607,7.704288,6.72049,3.744128,2.910196,-0.1910051,-0.3277733,1.533984,0.3657547,-0.3403237,1.532123,0.1197908,0.3674387,1.74775,-0.2121563,-0.358371,1.52,0.3299182,-0.3852146,1.5494,0.1094642,-0.09284291,1.769721,0.1067493,-0.4155426,1.762342,-0.06384107,0.1124429,1.76433,0.02310177,-0.4075566,1.72936,-0.1603723,-0.1105319,1.768975,0.346584,-0.1295641,1.768052,NA,NA,Unknown,Closed,
