ALX,ALY,ALZ,ARX,ARY,ARZ,EMG0L,EMG1L,EMG2L,EMG3L,EMG4L,EMG5L,EMG6L,EMG7L,EMG0R,EMG1R,EMG2R,EMG3R,EMG4R,EMG5R,EMG6R,EMG7R,GLX,GLY,GLZ,GRX,GRY,GRZ,ORL,OPL,OYL,ORR,OPR,OYR,LHNX,LHNY,LHNZ,RHNX,RHNY,RHNZ,HX,HY,HZ,LTX,LTY,LTZ,RTX,RTY,RTZ,SpineMidX,SpineMidY,SpineMidZ,SpineBaseX,SpineBaseY,SpineBaseZ,ShoulderLeftX,ShoulderLeftY,ShoulderLeftZ,ShoulderRightX,ShoulderRightY,ShoulderRightZ,ElbowLeftX,ElbowLeftY,ElbowLeftZ,ElbowRightX,ElbowRightY,ElbowRightZ,Myo_Pose_left,Myo_Pose_Right,Kinect_pose_left,Kinect_pose_right
0.9262695,0.2988281,0.1425781,0.9711914,-0.2255859,0.09472656,1,0,2,-1,1,-2,2,-2,-3,-3,0,0,2,-2,-1,-4,-0.375,-0.375,-0.375,-1.4375,-1.4375,-1.4375,6.79002,3.056603,1.250323,3.051089,2.890478,6.700354,-0.1500322,-0.4123103,1.489096,0.2723155,-0.4205981,1.482289,0.08849652,0.4263402,1.581095,-0.2022303,-0.3984964,1.492993,0.3245887,-0.4232827,1.479284,0.07279851,-0.03447718,1.58539,0.07065113,-0.3530906,1.570029,-0.1016739,0.1563579,1.558082,-0.01170528,-0.3439043,1.5345,-0.1558925,-0.1211397,1.578434,0.3002414,-0.1284559,1.58362,NA,NA,NotTracked,NotTracked,
0.9135742,0.293457,0.1367188,0.9580078,-0.2163086,0.08691406,2,1,-2,-2,-2,3,-3,-1,-7,-4,-1,-3,-3,-1,-10,-11,0.4375,0.4375,0.4375,0.625,0.625,0.625,6.78996,3.056131,1.250497,3.048466,2.890851,6.704185,-0.1498848,-0.4124375,1.488674,0.2723731,-0.4210766,1.482425,0.08852477,0.4263251,1.581351,-0.2026501,-0.402715,1.492285,0.3244197,-0.4240401,1.47852,0.0728757,-0.03447741,1.585569,0.07069271,-0.3530872,1.57009,-0.1016366,0.1563819,1.5582,-0.01167476,-0.3439011,1.534521,-0.1558321,-0.1210383,1.578473,0.3003222,-0.1284268,1.583743,NA,NA,NotTracked,NotTracked,
0.9155273,0.2983398,0.1484375,0.9658203,-0.222168,0.09814453,-2,1,1,-1,0,-1,-1,0,-2,1,0,-2,-2,-4,-7,2,1.125,1.125,1.125,-0.375,-0.375,-0.375,6.789934,3.054974,1.251942,3.049623,2.890598,6.703043,-0.150715,-0.4123749,1.489233,0.2728691,-0.420554,1.484092,0.0886293,0.4263275,1.581491,-0.2049097,-0.4012385,1.499019,0.3258219,-0.4242899,1.482797,0.07300914,-0.03449798,1.585656,0.07084943,-0.3531346,1.570181,-0.101591,0.1563957,1.558306,-0.0115121,-0.3439606,1.534593,-0.1557447,-0.1213133,1.578573,0.3004418,-0.1283381,1.583838,NA,NA,NotTracked,NotTracked,
0.9257813,0.2939453,0.1469727,0.9643555,-0.2207031,0.08837891,-1,-2,-2,1,-2,2,2,1,-1,0,-1,-1,1,-1,1,1,-1.3125,-1.3125,-1.3125,-0.125,-0.125,-0.125,6.789367,3.05306,1.250344,3.050265,2.889922,6.703533,-0.150515,-0.4129491,1.490374,0.2726932,-0.4208762,1.484875,0.08869967,0.426342,1.581599,-0.2040661,-0.4038873,1.499038,0.3247671,-0.4260208,1.480305,0.07301292,-0.03444387,1.585794,0.07092499,-0.3530945,1.570276,-0.1015931,0.1564764,1.558551,-0.01141887,-0.3439331,1.534677,-0.1557361,-0.1212519,1.578624,0.300485,-0.1283563,1.583866,NA,NA,NotTracked,NotTracked,
0.9243164,0.3032227,0.1499023,0.9667969,-0.2250977,0.09375,-3,-5,-1,1,-2,0,0,1,-2,-2,-2,-1,0,0,-3,2,-0.4375,-0.4375,-0.4375,-0.125,-0.125,-0.125,6.789298,3.052724,1.250555,3.052388,2.88993,6.701265,-0.1498822,-0.4121727,1.490183,0.2726383,-0.4214245,1.484167,0.08875658,0.4262964,1.581708,-0.1994385,-0.4004736,1.482726,0.3238643,-0.425199,1.477644,0.0730106,-0.0344447,1.585845,0.07091773,-0.3530879,1.570295,-0.1015753,0.1565024,1.558666,-0.01143019,-0.3439239,1.534693,-0.1558048,-0.12111,1.578893,0.3005495,-0.128436,1.584041,NA,NA,NotTracked,NotTracked,
0.9160156,0.2963867,0.1474609,0.9643555,-0.2280273,0.09765625,-6,-4,-1,2,-3,-3,2,-3,-1,0,-1,-2,0,-4,1,-4,-0.8125,-0.8125,-0.8125,0.1875,0.1875,0.1875,6.788563,3.053037,1.251144,3.053178,2.890093,6.700609,-0.1495944,-0.4120677,1.490742,0.2724066,-0.4210674,1.484138,0.08880533,0.4261367,1.582049,-0.202226,-0.3965333,1.495462,0.3244856,-0.4272388,1.47962,0.07305408,-0.03448471,1.585934,0.07094079,-0.3531002,1.570337,-0.1014857,0.1565299,1.558853,-0.01140607,-0.3439294,1.534728,-0.1557906,-0.1210572,1.579,0.3005738,-0.1285314,1.584191,NA,NA,NotTracked,NotTracked,
0.9199219,0.2983398,0.1484375,0.9624023,-0.2241211,0.09130859,-4,-2,-2,1,1,-3,-4,0,2,0,-2,-1,-4,2,-4,2,-1.3125,-1.3125,-1.3125,-0.9375,-0.9375,-0.9375,6.785006,3.05436,1.25357,3.055518,2.890188,6.698406,-0.1493744,-0.4122114,1.49112,0.2725507,-0.4213938,1.484501,0.08901203,0.42616,1.582403,-0.2045169,-0.3917253,1.504556,0.3251248,-0.4262589,1.482268,0.07312454,-0.03449617,1.586114,0.07097098,-0.3531211,1.570402,-0.1014181,0.1564678,1.559174,-0.01137393,-0.343944,1.534807,-0.1556904,-0.1209976,1.579256,0.3005953,-0.1286471,1.584368,NA,NA,NotTracked,NotTracked,
0.9262695,0.2978516,0.140625,0.9672852,-0.2270508,0.09228516,2,1,1,1,0,3,4,-1,0,-1,-1,-1,0,0,-4,0,0.625,0.625,0.625,0,0,0,6.782341,3.055568,1.257032,3.059451,2.89301,6.694331,-0.1482178,-0.4123979,1.489373,0.2718453,-0.4207083,1.483266,0.08904807,0.4261644,1.582447,-0.2006297,-0.4015349,1.487953,0.3249173,-0.4270064,1.480871,0.073164,-0.03448466,1.586168,0.0710137,-0.3531449,1.570446,-0.1013921,0.1564401,1.559282,-0.01133509,-0.3439352,1.534851,-0.1555524,-0.1205449,1.579504,0.3005564,-0.1286491,1.584408,NA,NA,NotTracked,NotTracked,
0.9121094,0.2905273,0.1420898,1.023926,-0.2163086,0.04931641,0,1,0,-2,-1,-1,-2,0,-2,-1,-1,2,12,3,2,0,0.0625,0.0625,0.0625,5,5,5,6.77753,3.055569,1.261843,3.085472,2.901001,6.671971,-0.1478619,-0.412051,1.489509,0.2715297,-0.4208457,1.483822,0.08906437,0.4261998,1.582507,-0.1987228,-0.4042823,1.48282,0.3252892,-0.4289915,1.483581,0.0731191,-0.03446542,1.586339,0.07100759,-0.3531642,1.570559,-0.1013397,0.1564023,1.559513,-0.01134166,-0.3439489,1.534951,-0.1555519,-0.1205096,1.579619,0.3005658,-0.1286645,1.584495,NA,NA,NotTracked,NotTracked,
0.9213867,0.2949219,0.1430664,1.09375,-0.1845703,0.06933594,0,0,-3,1,1,-4,0,-2,-1,-4,-6,-1,23,4,2,-3,0.3125,0.3125,0.3125,15,15,15,6.778261,3.055258,1.261255,3.208863,2.94521,6.570092,-0.1453203,-0.4079911,1.485469,0.2718368,-0.4210629,1.483917,0.08912971,0.4262411,1.582649,-0.1961209,-0.3974953,1.480643,0.3244941,-0.4275755,1.48152,0.07317117,-0.03445336,1.586421,0.07105439,-0.3531622,1.570609,-0.1012623,0.1564295,1.559714,-0.01130092,-0.3439372,1.53501,-0.1555114,-0.1199736,1.58032,0.3006468,-0.1286969,1.584654,NA,NA,NotTracked,NotTracked,
0.9335938,0.2973633,0.1455078,1.155273,-0.3286133,0.2832031,-1,-2,-3,0,1,0,3,-3,1,-3,-3,-13,-57,-7,3,-1,-4.375,-4.375,-4.375,-21.5625,-21.5625,-21.5625,6.778975,3.054913,1.254429,3.504299,3.162252,6.254812,-0.1332791,-0.3879404,1.464932,0.2719518,-0.4216122,1.484499,0.08931249,0.4262168,1.582785,-0.1629291,-0.3875698,1.422204,0.3247192,-0.4225104,1.483752,0.07332402,-0.03446164,1.586471,0.07141466,-0.353007,1.570724,-0.1011374,0.1565617,1.560018,-0.01099825,-0.3438287,1.535071,-0.1561171,-0.1172957,1.583892,0.300566,-0.1291405,1.584813,NA,NA,NotTracked,NotTracked,
0.9526367,0.3081055,0.1411133,1.046387,-0.5742188,0.5463867,-2,4,-2,1,-2,-1,1,0,1,3,1,13,25,2,-1,0,-0.0625,-0.0625,-0.0625,-38.625,-38.625,-38.625,6.78072,3.054021,1.249827,3.605461,3.447837,6.06473,-0.1104658,-0.3360434,1.42549,0.2721297,-0.4207986,1.484777,0.0893904,0.4261759,1.582737,-0.1352534,-0.3411196,1.37588,0.3211969,-0.418446,1.478538,0.073949,-0.03443014,1.586343,0.07344034,-0.3527691,1.570249,-0.1008921,0.156773,1.56049,-0.00923731,-0.3438582,1.534562,-0.1575287,-0.106352,1.594743,0.300577,-0.1292547,1.584946,NA,NA,NotTracked,NotTracked,
0.9179688,0.2978516,0.1333008,0.5483398,-0.5449219,0.5307617,-2,-6,0,-1,-2,-1,1,-3,-3,4,7,13,18,-3,5,4,2.875,2.875,2.875,-11.8125,-11.8125,-11.8125,6.785066,3.050069,1.249563,3.696935,3.9147,5.896933,-0.06132048,-0.2597302,1.415828,0.2727661,-0.4206007,1.485812,0.08936193,0.4261529,1.582665,-0.09309304,-0.2514742,1.329364,0.3246768,-0.4240113,1.482539,0.07526144,-0.03438742,1.585942,0.07703807,-0.3523939,1.568957,-0.1008914,0.157143,1.561699,-0.005804275,-0.3439585,1.533516,-0.1587014,-0.08871721,1.602632,0.3006665,-0.1290888,1.585135,NA,NA,Unknown,NotTracked,
0.8891602,0.2993164,0.1474609,0.3808594,-0.546875,0.5415039,3,2,-1,-1,3,3,2,-2,-1,6,0,-5,25,-1,-4,-4,6.4375,6.4375,6.4375,-15.1875,-15.1875,-15.1875,6.796314,3.04444,1.247785,3.71709,4.265957,5.808918,-0.02871469,-0.1768484,1.390821,0.2737153,-0.4202904,1.485471,0.08918249,0.4261002,1.582355,-0.07488247,-0.1586739,1.317111,0.3257819,-0.4276826,1.483489,0.07537264,-0.03432248,1.58585,0.0772738,-0.3520677,1.568782,-0.1010594,0.1578076,1.563231,-0.005439967,-0.3435925,1.533268,-0.1631107,-0.06192429,1.609145,0.3007526,-0.1287243,1.585277,NA,NA,Closed,NotTracked,
0.9321289,0.3012695,0.1381836,0.1606445,-0.5224609,0.5585938,3,-2,-4,1,-3,1,2,2,1,-6,-1,6,9,-7,-5,4,-1.6875,-1.6875,-1.6875,-10.75,-10.75,-10.75,6.81558,3.041619,1.234617,3.722089,4.483656,5.7658,-0.0005663473,-0.08911649,1.331705,0.2751072,-0.4207327,1.485975,0.08898681,0.4261017,1.582264,-0.02163718,-0.0960117,1.3008,0.3325884,-0.4325353,1.4925,0.07543908,-0.03425438,1.585859,0.07723804,-0.3516622,1.568916,-0.100839,0.158415,1.564069,-0.005444269,-0.3431045,1.533374,-0.168541,-0.06300354,1.597712,0.3009391,-0.1282623,1.585438,NA,NA,Unknown,NotTracked,
0.9272461,0.2988281,0.09423828,0.2226563,-0.6254883,0.6010742,1,3,1,-2,-1,2,3,1,-5,0,2,1,2,-9,-1,-4,1.25,1.25,1.25,-11.6875,-11.6875,-11.6875,6.824834,3.044222,1.223574,3.70675,4.763,5.703025,0.00694196,-0.03405486,1.336445,0.2757628,-0.4203021,1.485418,0.08883367,0.426129,1.582235,-0.01529806,-0.03436188,1.3041,0.3290685,-0.4275691,1.486833,0.07548106,-0.03414518,1.585908,0.07732338,-0.3513274,1.569005,-0.1007299,0.1588323,1.564704,-0.005286017,-0.3426697,1.533373,-0.1715531,-0.06314403,1.591576,0.3010873,-0.1281372,1.585389,NA,NA,Unknown,NotTracked,
0.9272461,0.2988281,0.09423828,0.1049805,-0.5415039,0.2719727,2,0,-5,10,-2,-19,-5,5,-1,-1,-4,-2,0,0,0,-5,1.25,1.25,1.25,7.6875,7.6875,7.6875,6.824834,3.044222,1.223574,3.701255,4.711119,5.695426,0.006298132,-0.03507993,1.332086,0.2749238,-0.41964,1.481233,0.08877373,0.4261282,1.582245,-0.01642083,-0.04181032,1.302098,0.3271219,-0.4249845,1.474154,0.07552871,-0.03407236,1.585964,0.07733132,-0.3512128,1.569065,-0.1005949,0.1589788,1.564778,-0.005252585,-0.3425084,1.533303,-0.1716995,-0.06407385,1.585801,0.3017165,-0.1278998,1.585307,NA,NA,Unknown,NotTracked,
1.134277,0.3242188,0.07421875,-0.3359375,-0.8686523,0.3339844,-5,-2,44,5,3,-5,1,-4,-2,-3,-6,-4,-14,-2,4,-4,-7.0625,-7.0625,-7.0625,-11.625,-11.625,-11.625,6.793369,3.091559,1.255543,3.647914,4.689672,5.702482,0.005043543,-0.06047464,1.325944,0.2645614,-0.4007452,1.463466,0.08876949,0.4261221,1.582313,-0.01465831,-0.07554459,1.296769,0.3137842,-0.4105449,1.446929,0.07556134,-0.03396682,1.586066,0.07717822,-0.351027,1.569191,-0.09936909,0.1587787,1.569114,-0.005421617,-0.3422228,1.533216,-0.1722164,-0.06459754,1.584818,0.304807,-0.1257973,1.585886,NA,NA,Unknown,NotTracked,
1.117676,0.5766602,0.5341797,0.2563477,-0.6606445,0.7128906,0,-3,-20,1,-6,1,-1,-2,-3,-1,0,-1,9,0,2,1,17.25,17.25,17.25,1.3125,1.3125,1.3125,6.621167,3.39375,1.423897,3.666905,4.607066,5.692046,0.00870022,-0.08069859,1.38452,0.2403913,-0.3329915,1.431451,0.08889052,0.4260317,1.582262,-0.0385861,-0.05759883,1.300786,0.2680546,-0.3498307,1.388308,0.07507784,-0.0338034,1.586038,0.07475232,-0.3501792,1.568862,-0.09904115,0.1590846,1.567935,-0.008423184,-0.3404352,1.532443,-0.1708865,-0.06473765,1.582989,0.3147221,-0.1093475,1.594387,NA,NA,Unknown,Unknown,
0.9814453,0.6220703,0.5317383,0.3100586,-0.7817383,0.6884766,0,-1,-4,7,-2,2,-1,0,1,-1,0,-1,-16,-4,-1,2,21.6875,21.6875,21.6875,-4.9375,-4.9375,-4.9375,6.597736,3.494627,1.466053,3.652041,4.562442,5.670403,0.0102012,-0.08941063,1.387816,0.1756854,-0.260838,1.415388,0.08912482,0.4259037,1.582019,-0.03842708,-0.1105219,1.306105,0.1721963,-0.3318044,1.437028,0.07394063,-0.03336225,1.585607,0.07064283,-0.3486511,1.567886,-0.09862605,0.1593904,1.566812,-0.0123162,-0.3381141,1.531389,-0.226903,-0.06842072,1.58581,0.3256171,-0.07798184,1.59744,NA,NA,Unknown,Unknown,
0.2192383,0.5605469,0.3740234,0.2636719,-0.6958008,0.7026367,0,4,-5,2,-13,-1,8,-3,-3,-2,-1,0,-13,-4,3,-5,13.75,13.75,13.75,-0.8125,-0.8125,-0.8125,6.488082,4.178373,1.67644,3.678765,4.555863,5.63207,0.01276298,-0.09499361,1.387959,0.1639588,-0.1737168,1.4088,0.08939454,0.425714,1.581705,-0.02987787,-0.1178329,1.309572,0.1566145,-0.2460753,1.438267,0.07378865,-0.03310222,1.585573,0.07028548,-0.347883,1.567989,-0.09824513,0.1595371,1.565544,-0.01246198,-0.3374605,1.531518,-0.2261405,-0.06759647,1.589472,0.332438,-0.07088216,1.596421,NA,NA,Unknown,NotTracked,
0.009277344,0.5117188,0.3491211,0.3178711,-0.7163086,0.7099609,-5,-7,-4,1,-8,0,-7,13,0,1,-4,-2,6,4,1,-1,36.8125,36.8125,36.8125,-2.8125,-2.8125,-2.8125,6.498694,4.421433,1.765562,3.682017,4.564974,5.610514,0.01687702,-0.09695565,1.390272,0.1315566,-0.1439759,1.398297,0.0894871,0.4256176,1.581599,-0.0149238,-0.07043838,1.3065,0.110387,-0.2058095,1.418512,0.073732,-0.03290563,1.585795,0.07021491,-0.3472736,1.568749,-0.09796275,0.159482,1.564638,-0.01238206,-0.3370359,1.532293,-0.2261229,-0.06869505,1.589117,0.3391753,-0.06968434,1.58214,NA,NA,NotTracked,NotTracked,
-0.0004882813,0.7856445,0.1567383,0.3964844,-0.6855469,0.8320313,-1,0,-1,3,9,6,9,3,1,1,7,3,6,4,-10,-4,25.375,25.375,25.375,0.625,0.625,0.625,6.585562,4.51322,1.767287,3.694535,4.619111,5.658728,0.0178613,-0.09593904,1.389188,0.1473066,-0.1409599,1.370135,0.08942794,0.4255081,1.581617,-0.02636684,-0.06541925,1.299334,0.1245403,-0.1923627,1.415294,0.07365834,-0.0326924,1.586009,0.07048891,-0.3468578,1.569046,-0.09801346,0.1587179,1.567044,-0.01199123,-0.3367348,1.532673,-0.2110114,-0.07796887,1.575648,0.3414251,-0.07027329,1.567073,NA,NA,NotTracked,NotTracked,
0.08789063,0.8051758,0.3041992,0.2016602,-0.5292969,0.6508789,-11,-10,-2,1,4,7,-3,-27,1,1,-3,-1,4,-4,-1,2,68.3125,68.3125,68.3125,-7.0625,-7.0625,-7.0625,6.707962,4.510379,1.694459,3.707718,4.648781,5.655777,0.01439485,-0.08813899,1.387988,0.1890649,-0.1707995,1.309925,0.08893278,0.4251531,1.582069,-0.02503619,-0.05737974,1.302,0.1449661,-0.1592973,1.4114,0.07326746,-0.03247343,1.586584,0.07045081,-0.3468097,1.569283,-0.09805866,0.1588751,1.566417,-0.01199985,-0.3367411,1.532977,-0.2052,-0.08187449,1.572013,0.3425252,-0.0710132,1.547726,NA,NA,NotTracked,Unknown,
0.3857422,1.260742,0.6079102,0.2348633,-0.6699219,0.7094727,-2,3,-2,-3,2,-1,2,-9,-2,-2,2,6,-6,0,-7,-3,56.0625,56.0625,56.0625,-3.4375,-3.4375,-3.4375,6.86142,4.477828,1.617335,3.688358,4.616103,5.615256,0.0150887,-0.08740307,1.389393,0.2021192,-0.1712787,1.246372,0.08804335,0.4247424,1.583229,-0.01938052,-0.100545,1.311111,0.1658533,-0.1574254,1.2507,0.07272384,-0.03242014,1.587219,0.07034453,-0.3469321,1.569423,-0.09823387,0.1580295,1.569977,-0.01213635,-0.3369088,1.533175,-0.2051402,-0.0814556,1.578194,0.3706856,-0.05176721,1.496046,NA,NA,Unknown,Unknown,
0.6015625,1.279785,0.6166992,0.2504883,-0.6357422,0.6870117,-2,-6,5,-9,-2,9,3,-3,-3,-2,2,-6,-2,-1,-2,0,37.5,37.5,37.5,-8.625,-8.625,-8.625,6.974027,4.622417,1.519333,3.691934,4.587554,5.595448,0.01708429,-0.08878937,1.393404,0.2093333,-0.1103735,1.190712,0.08758546,0.4244718,1.584872,-0.01437772,-0.1120495,1.319211,0.1949843,-0.08421932,1.174353,0.07255419,-0.03238868,1.588589,0.07059789,-0.3470932,1.570399,-0.09850267,0.1582417,1.569196,-0.01198472,-0.3370568,1.534213,-0.2065417,-0.08121024,1.591019,0.3843283,-0.03427912,1.468426,NA,NA,Unknown,Closed,
0.4892578,0.8481445,0.4775391,0.2631836,-0.7104492,0.6870117,-5,-6,-3,2,14,7,5,0,-1,1,-3,1,13,1,0,-3,-17.375,-17.375,-17.375,11.6875,11.6875,11.6875,6.941217,4.998127,1.48324,3.700601,4.541996,5.590197,0.02189068,-0.09579604,1.396223,0.2066902,-0.02370504,1.169776,0.08748197,0.4244052,1.585919,-0.005106489,-0.07619943,1.312875,0.1620911,-0.02113212,1.160818,0.0724376,-0.03201772,1.590007,0.07086342,-0.3468093,1.571778,-0.09861571,0.15848,1.568766,-0.01173314,-0.3368305,1.536931,-0.2064167,-0.08096042,1.584902,0.3280338,-0.04224332,1.424937,NA,NA,Unknown,Closed,
0.3110352,0.7353516,0.3574219,0.2910156,-0.7036133,0.6503906,-5,-3,-5,-6,1,3,-6,-3,0,1,-7,3,-13,-3,-6,-5,2.9375,2.9375,2.9375,3.9375,3.9375,3.9375,6.938057,5.309129,1.51058,3.710002,4.522189,5.612102,0.0228977,-0.1015064,1.396171,0.1903352,0.07100122,1.184202,0.08789598,0.4245112,1.586707,-0.01607557,-0.1264022,1.320857,0.1463112,0.07153727,1.175125,0.0728457,-0.03187999,1.590739,0.0718122,-0.3466876,1.572784,-0.09813768,0.1585619,1.568136,-0.01079222,-0.337007,1.53827,-0.2048393,-0.07962529,1.584961,0.3633797,-0.07893248,1.43715,NA,NA,Unknown,Unknown,
0.01025391,0.6166992,0.2827148,0.3295898,-0.6787109,0.6796875,0,2,1,1,-5,-1,6,3,-1,-2,0,0,0,4,-5,-2,-1.875,-1.875,-1.875,10.375,10.375,10.375,6.958067,5.562886,1.602859,3.719311,4.509538,5.648757,0.0221721,-0.1044361,1.395774,0.1736328,0.1221658,1.228771,0.08785029,0.4247153,1.587131,-0.009362816,-0.08568875,1.314846,0.1648377,0.1616119,1.227143,0.07246244,-0.0324816,1.591269,0.07158948,-0.3488264,1.573686,-0.09785686,0.1578871,1.570737,-0.01138454,-0.3395846,1.540951,-0.2119335,-0.07635982,1.593367,0.3264103,-0.03085901,1.393783,NA,NA,Unknown,Unknown,
-0.2036133,0.6162109,0.2348633,0.3256836,-0.7255859,0.7138672,-15,-12,-3,5,2,-6,-13,-15,1,0,3,0,0,3,3,1,-9.1875,-9.1875,-9.1875,1.25,1.25,1.25,6.983776,5.675483,1.706995,3.710786,4.516294,5.682884,0.02104115,-0.1084738,1.393526,0.1702739,0.1093063,1.272713,0.08782713,0.4246537,1.587395,-0.01886919,-0.0866593,1.304235,0.1523329,0.1375138,1.2719,0.07267871,-0.0331725,1.591112,0.07146608,-0.349594,1.573659,-0.09782883,0.1580154,1.570292,-0.01164055,-0.3404602,1.541356,-0.2142821,-0.07572839,1.591892,0.3294118,-0.03366401,1.40858,NA,NA,Unknown,Unknown,
-0.2363281,0.6474609,0.2631836,0.2973633,-0.6967773,0.6723633,-9,-3,5,-6,-6,7,1,-22,-3,-1,-1,-2,-1,2,-3,-1,-14.125,-14.125,-14.125,3.375,3.375,3.375,6.985633,5.682574,1.734407,3.711051,4.533516,5.718801,0.01589387,-0.1078059,1.389967,0.158599,0.06468389,1.301866,0.08777712,0.4247097,1.587654,-0.02689796,-0.08336537,1.299714,0.1004482,0.05745304,1.3576,0.07260233,-0.0329724,1.591251,0.07140096,-0.3491629,1.573556,-0.09788028,0.1581721,1.570177,-0.01165671,-0.3399848,1.540942,-0.2032098,-0.07861043,1.580431,0.3351262,-0.04568579,1.442484,NA,NA,Unknown,Unknown,
-0.4946289,0.8398438,0.3188477,0.265625,-0.7060547,0.684082,2,-3,-6,0,-8,-5,-8,2,5,3,-1,5,6,2,-5,1,-14.25,-14.25,-14.25,1.375,1.375,1.375,6.886604,5.397055,1.817266,3.704718,4.559483,5.742418,0.01251017,-0.1056315,1.386359,0.1556724,0.01018147,1.307786,0.08760982,0.4246488,1.587772,-0.0332961,-0.08169482,1.296444,0.1028676,-0.01844732,1.37,0.07258723,-0.0327982,1.591227,0.07112372,-0.348256,1.573149,-0.09801476,0.1582446,1.569949,-0.01173687,-0.3391304,1.540357,-0.2013936,-0.07964936,1.568142,0.3343156,-0.05114224,1.457363,NA,NA,Unknown,Unknown,
-0.262207,0.9887695,0.4047852,0.2597656,-0.684082,0.684082,-6,-9,5,1,-14,1,5,7,2,-3,3,3,11,-7,-1,3,-31.375,-31.375,-31.375,-2.5,-2.5,-2.5,6.840104,5.207134,1.826046,3.707513,4.568315,5.730369,0.009119624,-0.1038142,1.381638,0.1561871,-0.02777925,1.317182,0.08750513,0.4246677,1.587867,-0.03018137,-0.0770238,1.296659,0.1272007,-0.07545244,1.406889,0.07262346,-0.03259658,1.591146,0.07110646,-0.3476961,1.572748,-0.09790558,0.1583225,1.569557,-0.01160281,-0.3384625,1.539683,-0.2086506,-0.07787831,1.579155,0.3438016,-0.05478198,1.48293,NA,NA,NotTracked,NotTracked,
-0.1005859,1.018555,0.4331055,0.2592773,-0.6464844,0.5917969,5,7,-7,-3,-6,-3,4,0,-1,-1,-1,-1,4,-2,-3,-2,-22.1875,-22.1875,-22.1875,-12.6875,-12.6875,-12.6875,6.800096,5.090483,1.853644,3.699766,4.557276,5.700261,0.008518976,-0.10222,1.381165,0.1532413,-0.03991744,1.328095,0.08749991,0.4247183,1.587891,-0.02505014,-0.07587557,1.294736,0.1225915,-0.00291696,1.417111,0.07270475,-0.0322577,1.591049,0.07122854,-0.3469127,1.572372,-0.09779396,0.1584923,1.569057,-0.01125927,-0.3375198,1.538735,-0.2120745,-0.07797329,1.581527,0.3441654,-0.05682744,1.491159,NA,NA,NotTracked,NotTracked,
0.04101563,0.8500977,0.390625,0.3637695,-0.7104492,0.7358398,0,1,-1,3,5,14,5,2,-1,1,-1,-2,-1,-1,-3,-4,-26.3125,-26.3125,-26.3125,-1.8125,-1.8125,-1.8125,6.762574,5.044235,1.836229,3.696757,4.538955,5.692947,0.009680548,-0.1030007,1.379007,0.1492651,-0.05035704,1.340201,0.08754376,0.4247512,1.587885,-0.0241273,-0.07875522,1.294833,0.1203266,-0.01130237,1.416,0.07295337,-0.03200319,1.59084,0.07136908,-0.3463623,1.572108,-0.09746514,0.158477,1.567941,-0.01096365,-0.3368854,1.538186,-0.2131324,-0.07805988,1.578849,0.3430436,-0.05918677,1.49691,NA,NA,NotTracked,NotTracked,
0.04833984,0.7978516,0.3710938,0.2265625,-0.5981445,0.5649414,-2,-3,1,5,-3,-4,-4,-6,-1,0,-4,0,-1,-2,-2,-2,-15.25,-15.25,-15.25,-10.5,-10.5,-10.5,6.739588,4.919785,1.794663,3.699145,4.49196,5.710351,0.0110346,-0.1086259,1.377514,0.1479542,-0.068946,1.349496,0.08763855,0.424809,1.58784,-0.03082944,-0.1165742,1.300885,0.1275017,-0.1265882,1.405381,0.0731876,-0.03185313,1.590611,0.07157876,-0.3461213,1.571874,-0.09733488,0.1584519,1.566914,-0.01062208,-0.3366156,1.537706,-0.2135767,-0.07731875,1.580111,0.3432806,-0.06037164,1.504034,NA,NA,NotTracked,NotTracked,
0.1342773,0.6796875,0.4243164,0.2568359,-0.5834961,0.4897461,-3,2,1,-3,-4,4,3,0,0,-3,-3,-4,-10,-5,-11,-3,-15.5,-15.5,-15.5,-8.0625,-8.0625,-8.0625,6.701218,4.743618,1.746637,3.663464,4.384181,5.759453,0.004670054,-0.1336484,1.372816,0.1562414,-0.1050185,1.347768,0.08772482,0.4249414,1.587728,-0.04075133,-0.1561817,1.296,0.1243865,-0.1549115,1.394222,0.07322083,-0.03160442,1.590437,0.07156333,-0.3459291,1.571735,-0.09740546,0.1585792,1.566351,-0.01057162,-0.3363547,1.537315,-0.2131549,-0.0730172,1.585693,0.3847492,-0.0558618,1.523139,NA,NA,NotTracked,NotTracked,
0.1757813,0.6289063,0.4995117,0.4648438,-0.715332,0.4501953,2,-2,-1,-1,-10,0,-1,8,-2,-1,1,-6,-3,-1,3,3,-1.5625,-1.5625,-1.5625,-14.9375,-14.9375,-14.9375,6.688927,4.491182,1.702114,3.586318,4.10291,5.844749,-0.01447828,-0.1882289,1.372632,0.1750198,-0.1818365,1.317601,0.08786934,0.4250961,1.587774,-0.06108063,-0.2058675,1.302895,0.1363981,-0.2239889,1.350286,0.073424,-0.03156149,1.590211,0.07175871,-0.3460026,1.571366,-0.09751407,0.1587087,1.566211,-0.01022386,-0.3365088,1.536761,-0.162964,-0.06656138,1.58474,0.3320658,-0.06864209,1.552637,NA,NA,NotTracked,NotTracked,
0.1518555,0.5859375,0.5634766,0.605957,-0.5634766,0.4736328,2,-7,-2,0,0,-1,-3,5,-10,0,-1,2,-3,-1,-5,-2,11.625,11.625,11.625,34.125,34.125,34.125,6.696943,4.401955,1.692156,3.568075,3.836387,5.921537,-0.03766706,-0.2687568,1.371844,0.1914429,-0.2579445,1.349415,0.08820347,0.4252552,1.58774,-0.06309454,-0.2499707,1.298222,0.1381606,-0.2500544,1.428583,0.07367256,-0.03165714,1.589381,0.07188438,-0.3470325,1.569164,-0.09764583,0.1588134,1.565899,-0.01012564,-0.337839,1.534358,-0.1608882,-0.06740219,1.582653,0.3290401,-0.07125887,1.557528,NA,NA,Unknown,Unknown,
0.7304688,0.6132813,0.4672852,0.996582,-0.4243164,0.4311523,1,1,-1,0,1,2,7,0,0,-4,1,-6,8,-3,-7,-2,-46.1875,-46.1875,-46.1875,-8.75,-8.75,-8.75,6.667704,3.907315,1.640553,3.506454,3.550442,6.025163,-0.08821934,-0.3253186,1.376515,0.2229149,-0.3165856,1.375359,0.08876632,0.4254662,1.587998,-0.1014487,-0.3220472,1.32984,0.1840709,-0.3092986,1.358667,0.07401443,-0.03185552,1.58888,0.07285797,-0.3480202,1.567464,-0.09772464,0.1585857,1.565347,-0.009670014,-0.3390579,1.53254,-0.1560848,-0.075238,1.579123,0.3175255,-0.07656619,1.566282,NA,NA,Closed,Unknown,
0.9921875,0.5859375,0.3833008,1.084961,-0.2226563,0.2875977,3,6,-2,-2,1,0,-2,-3,-2,0,-3,-2,-1,-9,-5,-5,-22.8125,-22.8125,-22.8125,16.0625,16.0625,16.0625,6.657752,3.627823,1.59785,3.354865,3.210238,6.249982,-0.1191309,-0.3713746,1.408988,0.2430885,-0.3645948,1.420358,0.08968489,0.4256843,1.588354,-0.1318058,-0.3746324,1.364095,0.2126685,-0.3320527,1.460227,0.07437646,-0.03221457,1.588558,0.0729247,-0.3488431,1.567281,-0.09766382,0.15823,1.564621,-0.009803835,-0.3396948,1.532229,-0.151983,-0.09702994,1.570629,0.3092445,-0.101158,1.569042,NA,NA,Closed,Unknown,
0.953125,0.5185547,0.2270508,1.090332,-0.2768555,0.02929688,-1,1,-2,-1,-1,-3,0,2,-7,-2,4,0,3,2,1,11,-0.375,-0.375,-0.375,33.875,33.875,33.875,6.694643,3.405359,1.538902,3.088336,3.005081,6.566368,-0.1423625,-0.4003918,1.447847,0.2548071,-0.3946567,1.452522,0.09068298,0.4257876,1.588508,-0.1891588,-0.3901703,1.453,0.2019562,-0.3556355,1.449015,0.07445376,-0.03241583,1.588514,0.07287268,-0.3497359,1.567576,-0.09749439,0.1578042,1.563921,-0.009893084,-0.3403256,1.53243,-0.1501326,-0.1100613,1.564942,0.3063008,-0.1147933,1.572173,NA,NA,Unknown,NotTracked,
1.014648,0.4794922,0.1376953,1.09082,-0.1420898,-0.02978516,2,4,-1,-2,-1,-3,10,3,-1,-1,0,1,-3,-3,1,-4,-11.0625,-11.0625,-11.0625,20.3125,20.3125,20.3125,6.816269,3.176851,1.423197,2.795823,2.87818,6.922688,-0.1629814,-0.4135814,1.47715,0.2694211,-0.4125454,1.477139,0.09177154,0.4260196,1.588557,-0.2082324,-0.4016121,1.48,0.2120086,-0.3945638,1.454813,0.07518765,-0.03266759,1.588481,0.07406367,-0.3508083,1.568521,-0.09700274,0.1575777,1.562965,-0.008709377,-0.3412901,1.532952,-0.150804,-0.1188052,1.562682,0.3053838,-0.1216821,1.57485,NA,NA,NotTracked,NotTracked,
1.025391,0.3486328,0.06640625,0.9692383,-0.3193359,0.1396484,1,-1,-2,1,1,1,-6,-6,1,1,-1,2,-2,1,4,-2,-34.3125,-34.3125,-34.3125,23,23,23,6.898547,3.082346,1.279143,2.630729,2.837443,7.111329,-0.1704851,-0.4150383,1.492338,0.2807127,-0.4192545,1.492695,0.09303292,0.4263097,1.58835,-0.2158194,-0.4002558,1.498143,0.222826,-0.3945624,1.464207,0.07638632,-0.03292599,1.588016,0.07531752,-0.3514127,1.569,-0.09622741,0.1574423,1.561271,-0.007341028,-0.3419611,1.533136,-0.1514669,-0.1222416,1.563792,0.3051834,-0.1249668,1.577742,NA,NA,NotTracked,NotTracked,
0.9946289,0.3408203,0.1259766,0.9189453,-0.2514648,0.1230469,-2,0,2,-1,-11,0,0,1,-2,-2,-4,-2,-1,3,-4,-9,-24.125,-24.125,-24.125,47.8125,47.8125,47.8125,6.938804,3.047143,1.184783,2.720099,2.855351,7.099547,-0.1736219,-0.4171376,1.497843,0.285971,-0.4222936,1.502799,0.0944669,0.4266223,1.587856,-0.2157143,-0.3960982,1.502029,0.2269475,-0.4145694,1.470535,0.07728696,-0.03281869,1.587744,0.07611319,-0.3514745,1.569295,-0.0958127,0.1575499,1.560581,-0.006491626,-0.3420186,1.533248,-0.1526219,-0.1246997,1.56759,0.3063105,-0.127242,1.582573,NA,NA,NotTracked,NotTracked,
