ALX,ALY,ALZ,ARX,ARY,ARZ,EMG0L,EMG1L,EMG2L,EMG3L,EMG4L,EMG5L,EMG6L,EMG7L,EMG0R,EMG1R,EMG2R,EMG3R,EMG4R,EMG5R,EMG6R,EMG7R,GLX,GLY,GLZ,GRX,GRY,GRZ,ORL,OPL,OYL,ORR,OPR,OYR,LHNX,LHNY,LHNZ,RHNX,RHNY,RHNZ,HX,HY,HZ,LTX,LTY,LTZ,RTX,RTY,RTZ,SpineMidX,SpineMidY,SpineMidZ,SpineBaseX,SpineBaseY,SpineBaseZ,ShoulderLeftX,ShoulderLeftY,ShoulderLeftZ,ShoulderRightX,ShoulderRightY,ShoulderRightZ,ElbowLeftX,ElbowLeftY,ElbowLeftZ,ElbowRightX,ElbowRightY,ElbowRightZ,Myo_Pose_left,Myo_Pose_Right,Kinect_pose_left,Kinect_pose_right
0.9375,-0.2050781,0.06542969,0.9067383,0.3144531,0.1567383,-1,0,-2,-2,-3,-3,3,2,-1,-5,0,1,-2,-1,-1,-1,-4.4375,-4.4375,-4.4375,1.75,1.75,1.75,3.151253,2.852395,5.638649,6.764693,3.084605,5.059701,-0.1589439,-0.4261134,1.525365,0.2634474,-0.4119829,1.529422,0.0717992,0.4266447,1.624088,-0.213766,-0.4168031,1.53668,0.2098384,-0.4117091,1.498362,0.05997929,-0.02966535,1.62534,0.05907222,-0.342144,1.605491,-0.1152704,0.1550384,1.598662,-0.02234544,-0.3339795,1.569278,-0.1682852,-0.1228482,1.61399,0.2911336,-0.1232228,1.636087,NA,NA,NotTracked,NotTracked,
0.9375,-0.2050781,0.06542969,0.9135742,0.3178711,0.1572266,-1,0,-2,-2,-3,-3,3,2,2,2,-2,-1,0,0,-1,-1,-4.4375,-4.4375,-4.4375,1.6875,1.6875,1.6875,3.151253,2.852395,5.638649,6.770273,3.084511,5.056854,-0.1583798,-0.4251378,1.525181,0.2630752,-0.4120585,1.528597,0.07179765,0.4266441,1.624088,-0.2141368,-0.4225195,1.534259,0.2108508,-0.4048008,1.498215,0.06000301,-0.02967375,1.625299,0.05907575,-0.3421372,1.605443,-0.1152833,0.154986,1.598645,-0.02234545,-0.3339778,1.569262,-0.1682725,-0.1228705,1.614014,0.2911638,-0.1231911,1.636052,NA,NA,NotTracked,NotTracked,
0.9375,-0.2050781,0.06542969,0.9082031,0.3198242,0.1518555,-1,0,-2,-2,-3,-3,3,2,1,1,-1,-2,-1,-4,-4,0,-4.4375,-4.4375,-4.4375,0,0,0,3.151253,2.852395,5.638649,6.775558,3.085684,5.052123,-0.1583241,-0.4247772,1.525402,0.2639926,-0.4126151,1.528187,0.07179531,0.4266537,1.623967,-0.2138734,-0.4217279,1.533651,0.2110063,-0.4040664,1.497688,0.05998594,-0.02966368,1.625253,0.05907679,-0.3421404,1.605427,-0.1152318,0.1550212,1.598628,-0.0223418,-0.3339823,1.569249,-0.168302,-0.1228435,1.613921,0.2911801,-0.1231624,1.635968,NA,NA,NotTracked,NotTracked,
0.9375,-0.2050781,0.06542969,0.9160156,0.315918,0.1518555,-1,0,-2,-2,-3,-3,3,2,-1,-2,-2,1,2,-4,1,1,-4.4375,-4.4375,-4.4375,-0.25,-0.25,-0.25,3.151253,2.852395,5.638649,6.777303,3.086052,5.050238,-0.1584323,-0.4243107,1.525353,0.2638001,-0.4126344,1.528461,0.07179043,0.4266494,1.623951,-0.2137008,-0.4246168,1.533162,0.2116182,-0.3999165,1.498652,0.05999047,-0.02954915,1.625224,0.05909715,-0.3419497,1.605354,-0.1152328,0.1550411,1.598618,-0.02226199,-0.3337101,1.569006,-0.1682841,-0.122818,1.613949,0.2912425,-0.1230637,1.635861,NA,NA,NotTracked,NotTracked,
0.9375,-0.2050781,0.06542969,0.9086914,0.3183594,0.1572266,-1,0,-2,-2,-3,-3,3,2,-1,0,0,-1,0,3,0,-1,-4.4375,-4.4375,-4.4375,1.1875,1.1875,1.1875,3.151253,2.852395,5.638649,6.780578,3.087765,5.047967,-0.1588471,-0.424376,1.525602,0.2632961,-0.4125111,1.52828,0.07178279,0.4266506,1.623915,-0.2135738,-0.4280135,1.531664,0.2108463,-0.3965788,1.499426,0.05999636,-0.02953864,1.625211,0.05910297,-0.3419443,1.605349,-0.1152421,0.1550617,1.598608,-0.02225806,-0.3337044,1.569005,-0.1682791,-0.1228094,1.613948,0.2913433,-0.1229147,1.635744,NA,NA,NotTracked,NotTracked,
0.9375,-0.2050781,0.06542969,0.9082031,0.3154297,0.1572266,-1,0,-2,-2,-3,-3,3,2,-1,-2,0,0,-3,2,1,-2,-4.4375,-4.4375,-4.4375,-0.3125,-0.3125,-0.3125,3.151253,2.852395,5.638649,6.780683,3.087511,5.048135,-0.1595327,-0.4251567,1.525428,0.2640418,-0.4123849,1.527613,0.07178126,0.4266477,1.62385,-0.2138694,-0.4241828,1.533716,0.2107608,-0.4044862,1.498112,0.05999172,-0.02953794,1.625203,0.05909836,-0.341953,1.605345,-0.1152476,0.1550699,1.598601,-0.02225737,-0.3337102,1.569005,-0.1682273,-0.1227718,1.613909,0.291392,-0.1227952,1.635708,NA,NA,NotTracked,NotTracked,
0.9375,-0.2050781,0.06542969,0.9101563,0.3076172,0.1616211,-1,0,-2,-2,-3,-3,3,2,-2,0,-4,0,0,0,0,0,-4.4375,-4.4375,-4.4375,-0.125,-0.125,-0.125,3.151253,2.852395,5.638649,6.779977,3.087439,5.048773,-0.159025,-0.42463,1.525508,0.2640787,-0.4126573,1.526795,0.07176625,0.426656,1.623816,-0.2148771,-0.4220321,1.53528,0.2120365,-0.3926558,1.49825,0.05997279,-0.02951589,1.625145,0.05903338,-0.3418796,1.605287,-0.1152194,0.1550793,1.598554,-0.0223375,-0.3336006,1.568856,-0.1682198,-0.1226838,1.613866,0.2914314,-0.1228758,1.635551,NA,NA,NotTracked,NotTracked,
0.9375,-0.2050781,0.06542969,0.9194336,0.3085938,0.1572266,-1,0,-2,-2,-3,-3,3,2,-1,-1,-1,-1,0,-5,-1,0,-4.4375,-4.4375,-4.4375,2.3125,2.3125,2.3125,3.151253,2.852395,5.638649,6.778604,3.08736,5.050987,-0.1587058,-0.4250118,1.52572,0.2640121,-0.4130315,1.526964,0.07174478,0.4266421,1.623811,-0.2137217,-0.4253796,1.531551,0.2116547,-0.397763,1.498142,0.05996711,-0.02954322,1.625129,0.0590609,-0.3419106,1.605241,-0.1152057,0.1550603,1.598511,-0.02232137,-0.3336335,1.568844,-0.1681965,-0.1226586,1.613839,0.2914883,-0.1229025,1.635488,NA,NA,NotTracked,NotTracked,
0.9375,-0.2050781,0.06542969,0.9125977,0.3222656,0.1577148,-1,0,-2,-2,-3,-3,3,2,1,-2,0,1,1,-7,-2,-1,-4.4375,-4.4375,-4.4375,2.3125,2.3125,2.3125,3.151253,2.852395,5.638649,6.77828,3.086377,5.054744,-0.1590258,-0.4251133,1.524938,0.2635278,-0.4125226,1.527407,0.07171559,0.4266675,1.623818,-0.2141584,-0.4383488,1.533273,0.2112679,-0.3987178,1.498723,0.05996548,-0.02953805,1.625081,0.0590624,-0.3419151,1.605213,-0.1152064,0.1550629,1.598508,-0.02231959,-0.3336512,1.568827,-0.1681959,-0.122659,1.613839,0.2915263,-0.1228887,1.635437,NA,NA,NotTracked,NotTracked,
0.9375,-0.2050781,0.06542969,0.909668,0.3149414,0.1494141,-1,0,-2,-2,-3,-3,3,2,-2,0,-3,-2,-2,-2,-3,-2,-4.4375,-4.4375,-4.4375,0.8125,0.8125,0.8125,3.151253,2.852395,5.638649,6.776342,3.086038,5.0583,-0.1588056,-0.4252344,1.524967,0.2640024,-0.4128665,1.526578,0.07172289,0.4266458,1.623814,-0.2143422,-0.4287752,1.533758,0.2112309,-0.4015086,1.498116,0.05993152,-0.02954642,1.62505,0.05904037,-0.3419634,1.605168,-0.1152155,0.1550251,1.598462,-0.02234275,-0.3337049,1.568813,-0.1682118,-0.122434,1.613778,0.2915512,-0.1229833,1.635055,NA,NA,NotTracked,NotTracked,
0.9375,-0.2050781,0.06542969,0.9111328,0.3125,0.1557617,-1,0,-2,-2,-3,-3,3,2,0,1,-1,-1,-1,-5,-2,-2,-4.4375,-4.4375,-4.4375,1.5625,1.5625,1.5625,3.151253,2.852395,5.638649,6.774692,3.085854,5.060727,-0.1589663,-0.4253632,1.527084,0.26347,-0.4124523,1.528518,0.07173055,0.4265828,1.623758,-0.2137595,-0.4257456,1.532858,0.2097891,-0.4162425,1.498267,0.05992006,-0.02956808,1.625033,0.05901754,-0.3419735,1.605164,-0.1152545,0.1551004,1.598444,-0.02237172,-0.3337115,1.568848,-0.16837,-0.1222201,1.61385,0.2916091,-0.1228509,1.634869,NA,NA,NotTracked,NotTracked,
0.9375,-0.2050781,0.06542969,0.9091797,0.3149414,0.1547852,-1,0,-2,-2,-3,-3,3,2,0,-3,0,-1,0,1,1,-1,-4.4375,-4.4375,-4.4375,2.6875,2.6875,2.6875,3.151253,2.852395,5.638649,6.775218,3.085503,5.061799,-0.1585383,-0.4241665,1.52437,0.2635843,-0.4122191,1.527063,0.07173615,0.4265536,1.623664,-0.2139776,-0.4277576,1.53318,0.2106785,-0.4058562,1.498392,0.05992503,-0.02956754,1.625013,0.05901667,-0.3419732,1.605163,-0.1152803,0.1551252,1.598403,-0.02237484,-0.333711,1.568855,-0.1683658,-0.122399,1.613726,0.2916349,-0.1228027,1.634709,NA,NA,NotTracked,NotTracked,
0.9375,-0.2050781,0.06542969,0.9067383,0.3178711,0.1499023,-1,0,-2,-2,-3,-3,3,2,-2,-2,0,1,-1,1,1,-1,-4.4375,-4.4375,-4.4375,0.375,0.375,0.375,3.151253,2.852395,5.638649,6.777046,3.085489,5.062345,-0.1588726,-0.4241927,1.524735,0.2634597,-0.4118427,1.526315,0.07172494,0.426562,1.623537,-0.2128847,-0.4386439,1.527823,0.2106769,-0.4091655,1.497025,0.05991955,-0.0295508,1.624917,0.05903139,-0.3419647,1.605108,-0.115285,0.1552,1.598189,-0.02236379,-0.3337163,1.568791,-0.1683276,-0.1223338,1.613642,0.2917395,-0.1226345,1.634516,NA,NA,NotTracked,NotTracked,
0.9375,-0.2050781,0.06542969,0.9169922,0.3149414,0.1513672,-1,0,-2,-2,-3,-3,3,2,-2,1,-1,-1,-1,6,2,1,-4.4375,-4.4375,-4.4375,-0.875,-0.875,-0.875,3.151253,2.852395,5.638649,6.777704,3.085944,5.061133,-0.1590263,-0.4248705,1.524995,0.2639614,-0.41228,1.526521,0.07176541,0.4264826,1.623228,-0.2130883,-0.4232592,1.526748,0.2131164,-0.3956633,1.500288,0.05994462,-0.0295389,1.624845,0.05905902,-0.3419609,1.605077,-0.115312,0.1552325,1.598009,-0.02234567,-0.3337175,1.568784,-0.1683293,-0.1223398,1.61363,0.2917547,-0.122635,1.634399,NA,NA,NotTracked,NotTracked,
0.9375,-0.2050781,0.06542969,0.9130859,0.3242188,0.1503906,-1,0,-2,-2,-3,-3,3,2,1,-4,0,-3,0,-2,0,0,-4.4375,-4.4375,-4.4375,-0.5,-0.5,-0.5,3.151253,2.852395,5.638649,6.781626,3.087372,5.05656,-0.1594176,-0.4242859,1.525194,0.2640153,-0.4120104,1.526355,0.07176842,0.4264756,1.623202,-0.2138267,-0.4197652,1.528743,0.2100331,-0.4270909,1.496087,0.05992262,-0.02955707,1.624803,0.05902943,-0.3419749,1.605072,-0.1153148,0.1552279,1.597995,-0.02238483,-0.3337337,1.568817,-0.1683288,-0.1223279,1.613617,0.2918084,-0.1226067,1.634282,NA,NA,NotTracked,NotTracked,
0.9375,-0.2050781,0.06542969,0.9106445,0.3120117,0.1523438,-1,0,-2,-2,-3,-3,3,2,-2,0,-1,-2,-4,2,0,-1,-4.4375,-4.4375,-4.4375,-0.875,-0.875,-0.875,3.151253,2.852395,5.638649,6.782279,3.087826,5.055356,-0.1588744,-0.4243807,1.524631,0.2644951,-0.4118918,1.526196,0.07175481,0.4264266,1.623108,-0.2136301,-0.4220866,1.52865,0.2118744,-0.4047318,1.498024,0.05990932,-0.02957985,1.624752,0.05900424,-0.341996,1.605056,-0.1153025,0.1551923,1.597838,-0.02241105,-0.3337553,1.568819,-0.1683397,-0.1223302,1.613605,0.2919079,-0.1225625,1.634157,NA,NA,NotTracked,NotTracked,
0.9375,-0.2050781,0.06542969,0.9150391,0.3022461,0.1650391,-1,0,-2,-2,-3,-3,3,2,2,0,0,0,-1,0,-1,-1,-4.4375,-4.4375,-4.4375,-1.125,-1.125,-1.125,3.151253,2.852395,5.638649,6.779699,3.087417,5.055659,-0.1595624,-0.42514,1.523763,0.2643746,-0.4118336,1.526489,0.07176684,0.4263737,1.622928,-0.214122,-0.4222147,1.529633,0.2116432,-0.3995256,1.497978,0.05992024,-0.02959302,1.62461,0.05897129,-0.3420062,1.604969,-0.1153043,0.1552324,1.597775,-0.02243326,-0.3337596,1.568798,-0.1683764,-0.1223302,1.613542,0.2919868,-0.1224782,1.633949,NA,NA,NotTracked,NotTracked,
0.9375,-0.2050781,0.06542969,0.9150391,0.3022461,0.1650391,-1,0,-2,-2,-3,-3,3,2,1,-1,-1,0,-1,-1,-3,1,-4.4375,-4.4375,-4.4375,-1.125,-1.125,-1.125,3.151253,2.852395,5.638649,6.779699,3.087417,5.055659,-0.1591219,-0.4250943,1.522709,0.2643582,-0.4117913,1.525792,0.07175893,0.4263476,1.622821,-0.2139398,-0.4224278,1.528371,0.2126517,-0.3938761,1.497725,0.06001732,-0.02963716,1.624349,0.05894301,-0.3420484,1.604792,-0.1152486,0.1552508,1.59752,-0.02245097,-0.3338063,1.568685,-0.1683917,-0.1221498,1.613249,0.2919908,-0.1224666,1.633789,NA,NA,NotTracked,NotTracked,
0.9375,-0.2050781,0.06542969,0.909668,0.3012695,0.1538086,-1,0,-2,-2,-3,-3,3,2,0,-2,-1,0,1,1,2,-1,-4.4375,-4.4375,-4.4375,1.8125,1.8125,1.8125,3.151253,2.852395,5.638649,6.77884,3.085083,5.058273,-0.1596155,-0.4251114,1.524045,0.2649049,-0.4118765,1.526742,0.07178656,0.4262725,1.622474,-0.2149625,-0.4220172,1.531273,0.2118432,-0.404191,1.498101,0.06006393,-0.02968137,1.624253,0.05894502,-0.3420659,1.604756,-0.1152104,0.1552314,1.597408,-0.02244728,-0.3338286,1.568669,-0.16837,-0.1221763,1.613141,0.292035,-0.1224376,1.633719,NA,NA,NotTracked,NotTracked,
0.9375,-0.2050781,0.06542969,0.9091797,0.3144531,0.1586914,-1,0,-2,-2,-3,-3,3,2,0,1,0,0,-3,-2,-1,-1,-4.4375,-4.4375,-4.4375,-0.25,-0.25,-0.25,3.151253,2.852395,5.638649,6.777981,3.083034,5.059746,-0.1602,-0.4240504,1.524636,0.2647867,-0.4121297,1.527475,0.07179469,0.4262086,1.622355,-0.2141162,-0.4247961,1.53057,0.2134695,-0.387454,1.499981,0.06006481,-0.02968661,1.624247,0.05892015,-0.342076,1.604771,-0.1151778,0.155299,1.597197,-0.0224902,-0.3338419,1.568733,-0.1683665,-0.1220625,1.613015,0.2921871,-0.1221767,1.633496,NA,NA,NotTracked,NotTracked,
0.9375,-0.2050781,0.06542969,0.9135742,0.3164063,0.1567383,-1,0,-2,-2,-3,-3,3,2,-2,-2,0,0,0,-1,3,-2,-4.4375,-4.4375,-4.4375,-0.875,-0.875,-0.875,3.151253,2.852395,5.638649,6.772026,3.081245,5.064611,-0.1597015,-0.4251195,1.523453,0.2646203,-0.4119987,1.526649,0.07175372,0.426201,1.622009,-0.2147438,-0.4218274,1.528412,0.2123954,-0.3961654,1.498346,0.06010952,-0.02971399,1.624099,0.05890203,-0.3420989,1.604704,-0.1151978,0.1553117,1.597116,-0.02250352,-0.3338603,1.568695,-0.1683389,-0.1220483,1.612984,0.2922473,-0.1222007,1.633265,NA,NA,NotTracked,NotTracked,
0.9375,-0.2050781,0.06542969,0.9179688,0.3071289,0.15625,-1,0,-2,-2,-3,-3,3,2,1,0,0,0,-2,1,1,0,-4.4375,-4.4375,-4.4375,-1.375,-1.375,-1.375,3.151253,2.852395,5.638649,6.769069,3.080774,5.066664,-0.1598849,-0.4242373,1.524198,0.2643052,-0.4120566,1.527948,0.07178554,0.4262637,1.621885,-0.2141636,-0.4201773,1.529328,0.2122574,-0.3985104,1.498467,0.06015956,-0.02971167,1.624007,0.05889872,-0.3420956,1.604693,-0.1152322,0.1554043,1.596931,-0.0225041,-0.3338594,1.568696,-0.1683122,-0.1219342,1.612933,0.2922498,-0.1222011,1.633173,NA,NA,NotTracked,NotTracked,
0.9375,-0.2050781,0.06542969,0.9160156,0.3051758,0.1635742,-1,0,-2,-2,-3,-3,3,2,-3,-4,-1,-3,-2,0,0,-1,-4.4375,-4.4375,-4.4375,-1.3125,-1.3125,-1.3125,3.151253,2.852395,5.638649,6.765717,3.080182,5.069505,-0.1593867,-0.4249795,1.523997,0.2633319,-0.4120879,1.52753,0.07185144,0.4262821,1.621422,-0.2132468,-0.4159067,1.527723,0.2123351,-0.3966171,1.498795,0.06018429,-0.02962091,1.623834,0.05890451,-0.3420085,1.604647,-0.1151835,0.155535,1.596599,-0.02248651,-0.3337722,1.568666,-0.1683035,-0.1218517,1.612785,0.2922731,-0.1221652,1.633049,NA,NA,NotTracked,NotTracked,
0.9375,-0.2050781,0.06542969,0.9125977,0.3198242,0.1572266,-1,0,-2,-2,-3,-3,3,2,2,-6,0,-1,-2,-2,-2,1,-4.4375,-4.4375,-4.4375,0.5625,0.5625,0.5625,3.151253,2.852395,5.638649,6.763832,3.080245,5.071939,-0.1593527,-0.4239953,1.52434,0.2636967,-0.412167,1.527767,0.07188747,0.4262455,1.62121,-0.2138231,-0.4231341,1.529158,0.2122549,-0.3985414,1.498621,0.06018813,-0.02961947,1.623801,0.05891448,-0.3420075,1.604635,-0.1151591,0.1555373,1.596556,-0.02248146,-0.3337727,1.568668,-0.1683155,-0.1218094,1.612759,0.2922158,-0.1221319,1.632959,NA,NA,NotTracked,NotTracked,
0.9375,-0.2050781,0.06542969,0.9165039,0.3193359,0.1567383,-1,0,-2,-2,-3,-3,3,2,-1,-2,0,-1,-3,1,1,-2,-4.4375,-4.4375,-4.4375,-1.1875,-1.1875,-1.1875,3.151253,2.852395,5.638649,6.761814,3.081226,5.072874,-0.1595513,-0.424501,1.523447,0.2628615,-0.4115392,1.527175,0.07184038,0.4261495,1.620879,-0.2152903,-0.411373,1.533074,0.211486,-0.4144762,1.498667,0.06020749,-0.02967573,1.623686,0.05896021,-0.3420393,1.604559,-0.1151499,0.1554909,1.596441,-0.02245178,-0.3338135,1.568618,-0.1682997,-0.1218519,1.612685,0.29219,-0.1221203,1.632887,NA,NA,NotTracked,NotTracked,
0.9375,-0.2050781,0.06542969,0.9130859,0.3076172,0.1508789,-1,0,-2,-2,-3,-3,3,2,-1,0,1,0,-2,2,-1,-1,-4.4375,-4.4375,-4.4375,0.1875,0.1875,0.1875,3.151253,2.852395,5.638649,6.758213,3.081483,5.075296,-0.1598592,-0.4245082,1.523356,0.263316,-0.4123396,1.526031,0.07185753,0.4260409,1.620712,-0.2146955,-0.4203409,1.53135,0.2121962,-0.4010489,1.498667,0.06014972,-0.02969435,1.623602,0.05893188,-0.3420724,1.604465,-0.1151589,0.1554796,1.596344,-0.022481,-0.3338549,1.568516,-0.1682524,-0.1220223,1.612576,0.2921219,-0.1221859,1.632598,NA,NA,NotTracked,NotTracked,
0.9375,-0.2050781,0.06542969,0.9086914,0.3222656,0.1552734,-1,0,-2,-2,-3,-3,3,2,0,3,-3,-1,-4,-5,-3,1,-4.4375,-4.4375,-4.4375,1.125,1.125,1.125,3.151253,2.852395,5.638649,6.760015,3.082808,5.074633,-0.1598813,-0.4247511,1.524261,0.2630316,-0.4117756,1.525962,0.07188808,0.425989,1.620544,-0.2138206,-0.4134128,1.527972,0.2125593,-0.3906343,1.49782,0.0601554,-0.02968509,1.623493,0.05889432,-0.3420736,1.604405,-0.115186,0.1554687,1.596169,-0.02252856,-0.3338417,1.568454,-0.1682639,-0.1220144,1.612476,0.2920486,-0.1222239,1.632424,NA,NA,NotTracked,NotTracked,
0.9375,-0.2050781,0.06542969,0.9150391,0.3149414,0.1572266,-1,0,-2,-2,-3,-3,3,2,-2,1,-2,-2,-3,-2,-1,-1,-4.4375,-4.4375,-4.4375,-0.5,-0.5,-0.5,3.151253,2.852395,5.638649,6.76013,3.083049,5.074241,-0.1597307,-0.4243288,1.524462,0.2633608,-0.4118595,1.526662,0.07188358,0.4259808,1.620527,-0.2136276,-0.4432759,1.526909,0.2120758,-0.4002417,1.49824,0.06013205,-0.02969983,1.623489,0.05888702,-0.3420829,1.604406,-0.1152033,0.155466,1.596146,-0.02253899,-0.333858,1.568454,-0.1683101,-0.1219899,1.612416,0.2920248,-0.1222034,1.632382,NA,NA,NotTracked,NotTracked,
0.9375,-0.2050781,0.06542969,0.9169922,0.3100586,0.1552734,-1,0,-2,-2,-3,-3,3,2,0,2,-1,1,-2,-8,2,1,-4.4375,-4.4375,-4.4375,0.4375,0.4375,0.4375,3.151253,2.852395,5.638649,6.76013,3.083049,5.074241,-0.1602101,-0.4244628,1.524476,0.2629153,-0.412016,1.526791,0.07188261,0.4259828,1.620524,-0.2142933,-0.4193768,1.529742,0.2115863,-0.3965652,1.498657,0.06014306,-0.02969834,1.623469,0.05888226,-0.3420827,1.604412,-0.1152081,0.1554752,1.596147,-0.02254749,-0.3338575,1.568472,-0.1683596,-0.1219057,1.612396,0.291965,-0.1222343,1.632331,NA,NA,NotTracked,NotTracked,
0.9375,-0.2050781,0.06542969,0.9111328,0.3193359,0.1494141,-1,0,-2,-2,-3,-3,3,2,-4,-1,-2,0,-1,5,-1,0,-4.4375,-4.4375,-4.4375,1.375,1.375,1.375,3.151253,2.852395,5.638649,6.763992,3.08418,5.072797,-0.1601712,-0.4244991,1.524422,0.2629582,-0.4117486,1.526013,0.07189162,0.4259965,1.620506,-0.2159482,-0.414902,1.5344,0.2117263,-0.4013006,1.498229,0.06011709,-0.02964918,1.623444,0.05887852,-0.3420783,1.604411,-0.1152249,0.1555131,1.596067,-0.02255279,-0.3338527,1.568476,-0.1684305,-0.121832,1.612376,0.2919247,-0.1221877,1.632324,NA,NA,NotTracked,NotTracked,
0.9375,-0.2050781,0.06542969,0.9135742,0.3095703,0.1567383,-1,0,-2,-2,-3,-3,3,2,-1,-1,-1,0,-2,-2,-1,-2,-4.4375,-4.4375,-4.4375,-1.625,-1.625,-1.625,3.151253,2.852395,5.638649,6.763954,3.084341,5.072036,-0.1600672,-0.4247805,1.525283,0.2629382,-0.412218,1.526804,0.07189049,0.4259984,1.620503,-0.2146508,-0.4233581,1.530225,0.2101746,-0.4204582,1.498227,0.06010463,-0.02962274,1.623442,0.05887504,-0.3420869,1.604414,-0.1152309,0.1555197,1.596051,-0.02255535,-0.3338629,1.568484,-0.1685684,-0.1214236,1.612427,0.2918648,-0.1222566,1.632357,NA,NA,NotTracked,NotTracked,
0.9375,-0.2050781,0.06542969,0.9091797,0.3051758,0.1538086,-1,0,-2,-2,-3,-3,3,2,1,-5,-1,0,-1,-4,-3,1,-4.4375,-4.4375,-4.4375,-1,-1,-1,3.151253,2.852395,5.638649,6.763912,3.084722,5.071459,-0.1606323,-0.4242604,1.525123,0.2632285,-0.4121289,1.525745,0.07187906,0.4260006,1.620488,-0.2154568,-0.4195683,1.53199,0.2113988,-0.400884,1.495971,0.06007864,-0.02963178,1.623456,0.05881439,-0.3421063,1.604451,-0.1152604,0.1555035,1.596142,-0.02262513,-0.3338577,1.568493,-0.1685706,-0.1214799,1.612494,0.2917995,-0.1222192,1.63232,NA,NA,NotTracked,NotTracked,
0.9375,-0.2050781,0.06542969,0.9111328,0.3154297,0.1538086,-1,0,-2,-2,-3,-3,3,2,0,0,-1,0,1,0,-1,-6,-4.4375,-4.4375,-4.4375,0.1875,0.1875,0.1875,3.151253,2.852395,5.638649,6.763912,3.084722,5.071459,-0.1609248,-0.4244619,1.524385,0.2632892,-0.4128307,1.526087,0.07187097,0.4259854,1.62047,-0.2142975,-0.4180196,1.527801,0.2112202,-0.3982123,1.49738,0.06004423,-0.0296399,1.623458,0.05879799,-0.3421132,1.604442,-0.1152985,0.1554736,1.596234,-0.02264068,-0.333867,1.568483,-0.1685499,-0.1214327,1.612509,0.2917565,-0.1222319,1.632279,NA,NA,NotTracked,NotTracked,
0.9375,-0.2050781,0.06542969,0.90625,0.3139648,0.1625977,-1,0,-2,-2,-3,-3,3,2,2,-3,0,0,0,-3,-2,-1,-4.4375,-4.4375,-4.4375,-1.5,-1.5,-1.5,3.151253,2.852395,5.638649,6.764148,3.084762,5.070312,-0.1607569,-0.4247063,1.523731,0.263025,-0.4122972,1.525179,0.07185389,0.4259969,1.620452,-0.2134986,-0.4185307,1.524855,0.2110942,-0.4018051,1.497506,0.059965,-0.02965205,1.623412,0.05877448,-0.3421469,1.604415,-0.1153152,0.1554436,1.596204,-0.02265856,-0.3338879,1.568471,-0.1685531,-0.1214346,1.612502,0.2916827,-0.1222437,1.632171,NA,NA,NotTracked,NotTracked,
0.9375,-0.2050781,0.06542969,0.918457,0.3105469,0.1650391,-1,0,-2,-2,-3,-3,3,2,-2,0,-2,0,-1,2,-1,0,-4.4375,-4.4375,-4.4375,-3,-3,-3,3.151253,2.852395,5.638649,6.762075,3.084938,5.069225,-0.1609898,-0.4237259,1.524726,0.2627665,-0.4121893,1.5259,0.07183512,0.4260107,1.620468,-0.2150589,-0.4169971,1.529493,0.2111598,-0.3998305,1.498672,0.05992056,-0.02964762,1.623387,0.05873617,-0.3421369,1.60437,-0.1153505,0.1555131,1.596163,-0.022682,-0.3338897,1.568448,-0.1685533,-0.1217434,1.612458,0.2916527,-0.122206,1.632135,NA,NA,NotTracked,NotTracked,
0.9375,-0.2050781,0.06542969,0.9208984,0.3134766,0.1547852,-1,0,-2,-2,-3,-3,3,2,-2,1,1,-2,1,4,-3,-2,-4.4375,-4.4375,-4.4375,0.9375,0.9375,0.9375,3.151253,2.852395,5.638649,6.761267,3.084678,5.069334,-0.1610862,-0.424457,1.52637,0.2627299,-0.4122505,1.527503,0.07183045,0.4260161,1.62047,-0.2146808,-0.420083,1.530206,0.2111492,-0.3993998,1.499956,0.05990501,-0.02963202,1.623409,0.05871384,-0.3421133,1.604402,-0.1153835,0.1555779,1.596204,-0.02270335,-0.333874,1.568474,-0.1686053,-0.121675,1.612526,0.291594,-0.1222129,1.63217,NA,NA,NotTracked,NotTracked,
0.9375,-0.2050781,0.06542969,0.9121094,0.3144531,0.1542969,-1,0,-2,-2,-3,-3,3,2,1,0,-2,0,0,-3,-1,-3,-4.4375,-4.4375,-4.4375,-0.375,-0.375,-0.375,3.151253,2.852395,5.638649,6.761267,3.084678,5.069334,-0.1606619,-0.4236238,1.524852,0.2626221,-0.4125722,1.526103,0.07182388,0.426031,1.620473,-0.2142036,-0.4194409,1.528486,0.2107156,-0.3908112,1.498171,0.05987721,-0.02961045,1.623366,0.05869832,-0.3421129,1.604362,-0.1154023,0.1555736,1.596204,-0.02271737,-0.3338826,1.568451,-0.1686132,-0.1216754,1.612531,0.291564,-0.1222129,1.63214,NA,NA,NotTracked,NotTracked,
0.9375,-0.2050781,0.06542969,0.9101563,0.3139648,0.1538086,-1,0,-2,-2,-3,-3,3,2,0,1,0,-1,-2,1,-1,-3,-4.4375,-4.4375,-4.4375,0.9375,0.9375,0.9375,3.151253,2.852395,5.638649,6.761267,3.084678,5.069334,-0.1608711,-0.4240523,1.525612,0.262688,-0.4119619,1.526547,0.07181583,0.4260479,1.620468,-0.2146995,-0.4199976,1.529773,0.2110438,-0.3984186,1.498237,0.05984716,-0.02961994,1.623365,0.05866399,-0.342134,1.604359,-0.115436,0.1555838,1.596177,-0.02276109,-0.3339298,1.56847,-0.1685778,-0.1218895,1.612614,0.2914095,-0.1223458,1.632138,NA,NA,NotTracked,NotTracked,
0.9375,-0.2050781,0.06542969,0.9121094,0.3095703,0.1552734,-1,0,-2,-2,-3,-3,3,2,-2,-6,-1,-2,-4,-9,-3,-4,-4.4375,-4.4375,-4.4375,-0.0625,-0.0625,-0.0625,3.151253,2.852395,5.638649,6.761267,3.084678,5.069334,-0.1607673,-0.4250592,1.525928,0.2624995,-0.4120235,1.527294,0.07182208,0.4260385,1.620497,-0.2150143,-0.4204347,1.531263,0.2113096,-0.3984953,1.498518,0.05981141,-0.02963102,1.623384,0.05860927,-0.3421401,1.604379,-0.1154839,0.1555847,1.596145,-0.02281698,-0.3339273,1.568502,-0.1685934,-0.1218587,1.612657,0.2912538,-0.1224936,1.632201,NA,NA,NotTracked,NotTracked,
0.9375,-0.2050781,0.06542969,0.9082031,0.3120117,0.1508789,-1,0,-2,-2,-3,-3,3,2,0,-1,-3,-1,-2,3,-2,-3,-4.4375,-4.4375,-4.4375,-0.3125,-0.3125,-0.3125,3.151253,2.852395,5.638649,6.761159,3.084934,5.069165,-0.1611442,-0.424135,1.525496,0.2626604,-0.4124063,1.527341,0.07181776,0.426048,1.620508,-0.2156027,-0.4188337,1.531419,0.2079808,-0.4240413,1.494842,0.05980811,-0.02962986,1.623381,0.0585958,-0.3421488,1.604372,-0.1154852,0.1556045,1.596172,-0.02282572,-0.3339305,1.568494,-0.1686227,-0.1217507,1.61272,0.2912295,-0.1224942,1.632224,NA,NA,NotTracked,NotTracked,
0.9375,-0.2050781,0.06542969,0.9155273,0.3105469,0.1586914,-1,0,-2,-2,-3,-3,3,2,-2,-1,2,-2,1,-4,-3,0,-4.4375,-4.4375,-4.4375,0.125,0.125,0.125,3.151253,2.852395,5.638649,6.76039,3.084296,5.069852,-0.1609402,-0.4246205,1.52552,0.2620015,-0.4119323,1.527362,0.07182298,0.4260355,1.620502,-0.2142906,-0.4225059,1.528279,0.2107879,-0.3970981,1.499843,0.0598006,-0.02962069,1.62338,0.05859624,-0.3421502,1.604373,-0.1155035,0.155612,1.596172,-0.02282505,-0.3339316,1.568493,-0.1687155,-0.1220465,1.612659,0.2911862,-0.1225887,1.632264,NA,NA,NotTracked,NotTracked,
0.9375,-0.2050781,0.06542969,0.9155273,0.3105469,0.1586914,-1,0,-2,-2,-3,-3,3,2,-1,2,-1,3,-2,0,-2,0,-4.4375,-4.4375,-4.4375,0.125,0.125,0.125,3.151253,2.852395,5.638649,6.76039,3.084296,5.069852,-0.1607819,-0.4248869,1.525464,0.2622057,-0.4120539,1.52809,0.0718158,0.4260345,1.620498,-0.2147387,-0.4200828,1.530296,0.2101495,-0.3955278,1.497528,0.05977798,-0.02962949,1.623379,0.05852783,-0.3421676,1.604377,-0.1155416,0.155626,1.596173,-0.02288566,-0.3339399,1.568508,-0.1687345,-0.1219634,1.61267,0.2911022,-0.1225402,1.632357,NA,NA,NotTracked,NotTracked,
0.9375,-0.2050781,0.06542969,0.9116211,0.3139648,0.1547852,-1,0,-2,-2,-3,-3,3,2,3,3,1,-2,1,2,0,1,-4.4375,-4.4375,-4.4375,0.4375,0.4375,0.4375,3.151253,2.852395,5.638649,6.760703,3.083797,5.070044,-0.1608802,-0.4239755,1.522803,0.2624875,-0.4118323,1.526302,0.07173745,0.4260821,1.620236,-0.2149645,-0.4096803,1.528265,0.2108832,-0.3927274,1.497073,0.0597259,-0.02966602,1.623241,0.05850529,-0.3421718,1.604285,-0.1155993,0.1556394,1.595931,-0.02291186,-0.3339409,1.568445,-0.1687717,-0.1219323,1.612631,0.2910239,-0.1226368,1.63223,NA,NA,NotTracked,NotTracked,
0.9375,-0.2050781,0.06542969,0.9072266,0.3139648,0.1591797,-1,0,-2,-2,-3,-3,3,2,-3,-4,-1,-1,1,-1,5,-1,-4.4375,-4.4375,-4.4375,-0.125,-0.125,-0.125,3.151253,2.852395,5.638649,6.760703,3.083797,5.070044,-0.1610317,-0.4244199,1.523609,0.2623513,-0.4120211,1.526677,0.07169404,0.4260832,1.620178,-0.2146809,-0.4172119,1.528781,0.2098645,-0.4026215,1.495972,0.05973901,-0.02965453,1.623168,0.05852437,-0.3421693,1.60422,-0.1155654,0.1556238,1.595866,-0.02288604,-0.3339566,1.568366,-0.1688139,-0.1219972,1.612554,0.2910045,-0.1226432,1.632228,NA,NA,NotTracked,NotTracked,
0.9375,-0.2050781,0.06542969,0.9072266,0.3139648,0.1591797,-1,0,-2,-2,-3,-3,3,2,0,2,-3,-2,-4,-4,0,-1,-4.4375,-4.4375,-4.4375,-0.125,-0.125,-0.125,3.151253,2.852395,5.638649,6.760703,3.083797,5.070044,-0.1609824,-0.4241081,1.524153,0.2625066,-0.4119065,1.52674,0.07165425,0.4260936,1.620124,-0.2142408,-0.4187546,1.527522,0.2111065,-0.3942879,1.498044,0.05970048,-0.02966543,1.623079,0.05850298,-0.342168,1.604189,-0.1156806,0.1556476,1.595835,-0.02290446,-0.3339578,1.568329,-0.1687994,-0.1219575,1.612494,0.2909282,-0.1227491,1.63217,NA,NA,NotTracked,NotTracked,
0.9375,-0.2050781,0.06542969,0.9174805,0.3085938,0.1699219,-1,0,-2,-2,-3,-3,3,2,-1,3,1,-2,-2,-3,-4,1,-4.4375,-4.4375,-4.4375,0.125,0.125,0.125,3.151253,2.852395,5.638649,6.76081,3.083541,5.070213,-0.1610015,-0.4238382,1.524215,0.2628241,-0.4123679,1.527363,0.07164857,0.4260845,1.62005,-0.2143761,-0.4196253,1.526636,0.2102918,-0.3959675,1.497011,0.0596649,-0.02968359,1.623048,0.05848467,-0.3421753,1.604185,-0.1156704,0.1556425,1.595824,-0.02292571,-0.3339606,1.568321,-0.1689462,-0.1218659,1.612462,0.2908969,-0.1227742,1.632168,NA,NA,NotTracked,NotTracked,
0.9375,-0.2050781,0.06542969,0.9057617,0.3105469,0.1518555,-1,0,-2,-2,-3,-3,3,2,-4,1,-2,-1,-1,2,0,-1,-4.4375,-4.4375,-4.4375,0.9375,0.9375,0.9375,3.151253,2.852395,5.638649,6.76081,3.083541,5.070213,-0.1608195,-0.4245006,1.52245,0.2627892,-0.4124165,1.52528,0.07160626,0.4260241,1.619878,-0.2147214,-0.4179851,1.528391,0.2105958,-0.3963062,1.49591,0.05963688,-0.02973148,1.62292,0.0584194,-0.3422044,1.604075,-0.1157342,0.1556198,1.595681,-0.02298146,-0.3339764,1.568235,-0.1689551,-0.122009,1.612195,0.2908448,-0.1228132,1.632071,NA,NA,NotTracked,NotTracked,
0.9375,-0.2050781,0.06542969,0.9121094,0.3115234,0.1616211,-1,0,-2,-2,-3,-3,3,2,0,-1,0,0,-2,-3,1,0,-4.4375,-4.4375,-4.4375,-0.4375,-0.4375,-0.4375,3.151253,2.852395,5.638649,6.760211,3.083711,5.070469,-0.1607262,-0.4242561,1.523471,0.2626301,-0.4127291,1.525574,0.07159968,0.426023,1.61985,-0.2153864,-0.418875,1.529539,0.2102833,-0.4007215,1.496645,0.05968263,-0.0297783,1.622778,0.05841445,-0.3422305,1.60402,-0.1157217,0.1556445,1.595562,-0.0229834,-0.3340014,1.568168,-0.1689765,-0.1219257,1.61214,0.2908447,-0.1228137,1.632072,NA,NA,NotTracked,NotTracked,
0.9375,-0.2050781,0.06542969,0.9116211,0.3085938,0.1547852,-1,0,-2,-2,-3,-3,3,2,-1,-5,-1,-2,-4,2,1,0,-4.4375,-4.4375,-4.4375,-0.875,-0.875,-0.875,3.151253,2.852395,5.638649,6.760097,3.083471,5.07086,-0.160815,-0.4262714,1.522608,0.2625394,-0.4129646,1.525743,0.07156578,0.4260077,1.619634,-0.2147683,-0.418244,1.529136,0.2108118,-0.3968257,1.497144,0.05961129,-0.02981283,1.622622,0.05840655,-0.3422753,1.603819,-0.1158044,0.1556184,1.595469,-0.023003,-0.3340699,1.567973,-0.1690815,-0.1221429,1.611769,0.2907635,-0.1229523,1.631937,NA,NA,NotTracked,NotTracked,
0.9375,-0.2050781,0.06542969,0.9116211,0.3085938,0.1547852,-1,0,-2,-2,-3,-3,3,2,-2,-3,0,-1,4,4,1,0,-4.4375,-4.4375,-4.4375,-0.875,-0.875,-0.875,3.151253,2.852395,5.638649,6.760097,3.083471,5.07086,-0.1608165,-0.4263921,1.522305,0.2623336,-0.4127126,1.525386,0.07156168,0.4260451,1.619553,-0.2147075,-0.4247147,1.526418,0.2078093,-0.4247378,1.493,0.05955809,-0.02976914,1.622554,0.05838963,-0.342269,1.603796,-0.1158585,0.1555799,1.595358,-0.02302993,-0.3340612,1.567939,-0.169107,-0.1221544,1.611748,0.2907653,-0.1229436,1.631873,NA,NA,NotTracked,NotTracked,
0.9375,-0.2050781,0.06542969,0.9145508,0.3129883,0.1577148,-1,0,-2,-2,-3,-3,3,2,2,1,0,1,-1,1,5,2,-4.4375,-4.4375,-4.4375,1.25,1.25,1.25,3.151253,2.852395,5.638649,6.761181,3.083609,5.070362,-0.1602633,-0.4258319,1.522529,0.2628181,-0.4125814,1.525677,0.07154461,0.4260432,1.619484,-0.2143114,-0.4203365,1.527649,0.2106928,-0.3962967,1.497022,0.05952079,-0.0297315,1.622433,0.05837905,-0.3422386,1.603656,-0.1159654,0.1555937,1.595304,-0.02303502,-0.3340489,1.567832,-0.1690967,-0.1221542,1.611734,0.2907442,-0.1230176,1.631793,NA,NA,NotTracked,NotTracked,
0.9375,-0.2050781,0.06542969,0.9150391,0.3134766,0.1547852,-1,0,-2,-2,-3,-3,3,2,0,1,0,-1,0,-14,-3,0,-4.4375,-4.4375,-4.4375,-0.25,-0.25,-0.25,3.151253,2.852395,5.638649,6.762151,3.083507,5.070256,-0.1602231,-0.4259251,1.521172,0.2623397,-0.4122551,1.524357,0.07149632,0.4260576,1.61941,-0.2123409,-0.4331177,1.51825,0.2103173,-0.4041576,1.495967,0.05949805,-0.0297262,1.622245,0.05837329,-0.3422339,1.603458,-0.1160316,0.1554894,1.594966,-0.02305177,-0.334025,1.567597,-0.169074,-0.1221781,1.611583,0.2907133,-0.1229725,1.63153,NA,NA,NotTracked,NotTracked,
0.9375,-0.2050781,0.06542969,0.9179688,0.3217773,0.1567383,-1,0,-2,-2,-3,-3,3,2,5,0,-1,-5,-1,0,-5,1,-4.4375,-4.4375,-4.4375,1.1875,1.1875,1.1875,3.151253,2.852395,5.638649,6.763306,3.083503,5.071966,-0.1604846,-0.4263929,1.521867,0.2625245,-0.4119471,1.524855,0.0714737,0.4260796,1.619391,-0.2143237,-0.4139975,1.526743,0.2121788,-0.392744,1.497482,0.05944893,-0.02970398,1.622179,0.05837651,-0.3421962,1.603337,-0.1160928,0.1554949,1.594893,-0.02304983,-0.3339999,1.567504,-0.1690613,-0.122173,1.611531,0.2906817,-0.1229478,1.631481,NA,NA,NotTracked,NotTracked,
0.9375,-0.2050781,0.06542969,0.9091797,0.309082,0.1547852,-1,0,-2,-2,-3,-3,3,2,-1,1,0,-1,1,-7,-6,1,-4.4375,-4.4375,-4.4375,0.125,0.125,0.125,3.151253,2.852395,5.638649,6.763306,3.083503,5.071966,-0.1605772,-0.4268364,1.523177,0.2626537,-0.4120643,1.525079,0.07141607,0.4260837,1.619311,-0.2142681,-0.4233113,1.526446,0.2103744,-0.4036765,1.495332,0.05944908,-0.02971637,1.622117,0.05838954,-0.3421894,1.603241,-0.1161326,0.1554938,1.594885,-0.02303636,-0.3340062,1.567419,-0.1690551,-0.1222461,1.611518,0.290593,-0.1231838,1.631346,NA,NA,NotTracked,NotTracked,
0.9375,-0.2050781,0.06542969,0.9130859,0.3110352,0.1591797,-1,0,-2,-2,-3,-3,3,2,0,0,-2,0,-3,-6,-4,-4,-4.4375,-4.4375,-4.4375,1.1875,1.1875,1.1875,3.151253,2.852395,5.638649,6.763405,3.083688,5.072503,-0.1604052,-0.4252737,1.521759,0.2624058,-0.4126588,1.524551,0.0713919,0.4260897,1.619256,-0.2142515,-0.4218243,1.526065,0.2109191,-0.3917041,1.495981,0.05944371,-0.02972449,1.622109,0.05837154,-0.3422076,1.603205,-0.1161894,0.1554089,1.594726,-0.02306173,-0.3340343,1.56734,-0.1690832,-0.1225281,1.611477,0.2904906,-0.1232324,1.63122,NA,NA,NotTracked,NotTracked,
0.9375,-0.2050781,0.06542969,0.9179688,0.3178711,0.1577148,-1,0,-2,-2,-3,-3,3,2,1,-2,-1,1,-1,5,0,0,-4.4375,-4.4375,-4.4375,1.375,1.375,1.375,3.151253,2.852395,5.638649,6.766053,3.084208,5.072194,-0.1607496,-0.4264623,1.522792,0.2626796,-0.4128349,1.525108,0.07132956,0.4261361,1.619233,-0.2138698,-0.4209342,1.525385,0.2106602,-0.3981456,1.496671,0.05943057,-0.02973028,1.622077,0.05834475,-0.3422084,1.603148,-0.1161922,0.1554053,1.594721,-0.02308575,-0.3340279,1.567272,-0.169114,-0.1224695,1.611414,0.2904443,-0.1232807,1.631178,NA,NA,NotTracked,NotTracked,
0.9375,-0.2050781,0.06542969,0.9130859,0.3105469,0.15625,-1,0,-2,-2,-3,-3,3,2,-1,-1,1,0,-3,-3,-6,-2,-4.4375,-4.4375,-4.4375,0.1875,0.1875,0.1875,3.151253,2.852395,5.638649,6.766053,3.084208,5.072194,-0.1610372,-0.4273089,1.522714,0.26229,-0.4125455,1.524153,0.07131989,0.4261298,1.619233,-0.2140639,-0.418147,1.525149,0.2086057,-0.4154068,1.493616,0.05942323,-0.02974228,1.621999,0.05835063,-0.3422288,1.603056,-0.1162012,0.1553647,1.594597,-0.02308117,-0.3340598,1.567202,-0.1690971,-0.1224768,1.61137,0.290425,-0.1233637,1.631076,NA,NA,NotTracked,NotTracked,
0.9375,-0.2050781,0.06542969,0.9111328,0.3081055,0.1552734,-1,0,-2,-2,-3,-3,3,2,-4,-3,0,0,-2,-5,-1,0,-4.4375,-4.4375,-4.4375,0.875,0.875,0.875,3.151253,2.852395,5.638649,6.765939,3.083967,5.072585,-0.1611855,-0.4262745,1.522188,0.2620745,-0.412309,1.524303,0.07126005,0.4261427,1.619214,-0.2143973,-0.421229,1.526343,0.2103077,-0.3965769,1.495561,0.05934214,-0.02976898,1.621872,0.05832772,-0.3422649,1.602973,-0.1162458,0.155319,1.594478,-0.02309476,-0.3340875,1.56714,-0.169081,-0.1226155,1.611294,0.2903576,-0.1233621,1.630899,NA,NA,NotTracked,NotTracked,
0.9375,-0.2050781,0.06542969,0.9248047,0.3164063,0.1518555,-1,0,-2,-2,-3,-3,3,2,-1,-7,-2,-2,-4,-3,0,-2,-4.4375,-4.4375,-4.4375,0.625,0.625,0.625,3.151253,2.852395,5.638649,6.769475,3.083534,5.071083,-0.1607607,-0.4262545,1.522342,0.2621208,-0.4118689,1.523939,0.0712098,0.4261326,1.619084,-0.2143591,-0.4201905,1.525349,0.2096556,-0.4159952,1.494464,0.05918718,-0.02983007,1.621683,0.05821551,-0.3423577,1.602732,-0.116294,0.1552828,1.594342,-0.02319458,-0.33416,1.566857,-0.1690616,-0.1225878,1.611142,0.2902769,-0.1235501,1.630575,NA,NA,NotTracked,NotTracked,
0.9375,-0.2050781,0.06542969,0.9179688,0.3178711,0.1494141,-1,0,-2,-2,-3,-3,3,2,3,5,-1,-1,-1,0,-1,-2,-4.4375,-4.4375,-4.4375,-2.3125,-2.3125,-2.3125,3.151253,2.852395,5.638649,6.764897,3.085454,5.074459,-0.1607006,-0.4261678,1.522538,0.2622087,-0.4120005,1.523636,0.07118332,0.4261283,1.61904,-0.2141509,-0.4209055,1.525249,0.2089853,-0.4184116,1.492821,0.05920655,-0.02982979,1.62162,0.05822255,-0.3423414,1.602705,-0.1163128,0.1553075,1.59431,-0.02317801,-0.3341381,1.566822,-0.1690841,-0.1225749,1.611138,0.290255,-0.1235579,1.630461,NA,NA,NotTracked,NotTracked,
0.9375,-0.2050781,0.06542969,0.9233398,0.3100586,0.152832,-1,0,-2,-2,-3,-3,3,2,6,4,7,-3,-2,5,1,-1,-4.4375,-4.4375,-4.4375,-1.6875,-1.6875,-1.6875,3.151253,2.852395,5.638649,6.762125,3.085972,5.076749,-0.1612203,-0.4267263,1.522619,0.2616643,-0.4114145,1.522966,0.07114377,0.4261354,1.618928,-0.2156245,-0.4114766,1.532263,0.2084536,-0.4176366,1.491622,0.05911345,-0.02982569,1.62155,0.05819772,-0.3423611,1.602645,-0.1163631,0.1553139,1.594274,-0.02320876,-0.3341655,1.56675,-0.1690022,-0.1223948,1.611065,0.2901791,-0.1235594,1.630341,NA,NA,NotTracked,NotTracked,
0.9375,-0.2050781,0.06542969,0.9467773,0.3652344,0.1606445,-1,0,-2,-2,-3,-3,3,2,-4,-3,-2,-1,27,-3,0,0,-4.4375,-4.4375,-4.4375,-1.1875,-1.1875,-1.1875,3.151253,2.852395,5.638649,6.759074,3.092018,5.080359,-0.1612145,-0.4261475,1.521953,0.26148,-0.4110812,1.521855,0.07113167,0.4261385,1.618897,-0.2150508,-0.4126937,1.528131,0.2098387,-0.4062094,1.493823,0.05906349,-0.02981088,1.621518,0.05813149,-0.3423337,1.60262,-0.1163794,0.1553282,1.594248,-0.02328242,-0.3341381,1.566719,-0.1690709,-0.1222936,1.610946,0.2901726,-0.1233879,1.630271,NA,NA,NotTracked,NotTracked,
0.9375,-0.2050781,0.06542969,0.9311523,0.3964844,0.1499023,-1,0,-2,-2,-3,-3,3,2,-4,5,7,3,7,-6,-2,-2,-4.4375,-4.4375,-4.4375,-11.5,-11.5,-11.5,3.151253,2.852395,5.638649,6.754428,3.101199,5.079388,-0.1612135,-0.426454,1.522086,0.2604477,-0.4099974,1.518736,0.07104008,0.4261045,1.618683,-0.2149354,-0.4263519,1.525569,0.2107563,-0.3947164,1.493511,0.05902099,-0.02981036,1.621436,0.05809977,-0.3423387,1.602559,-0.1164153,0.15525,1.59406,-0.02330625,-0.3341414,1.566698,-0.1691392,-0.1223395,1.61085,0.2902584,-0.1231268,1.630189,NA,NA,NotTracked,NotTracked,
0.9375,-0.2050781,0.06542969,0.9379883,0.4306641,0.1586914,-1,0,-2,-2,-3,-3,3,2,3,-5,6,3,8,1,0,-2,-4.4375,-4.4375,-4.4375,-18.25,-18.25,-18.25,3.151253,2.852395,5.638649,6.725575,3.154317,5.077807,-0.1609551,-0.4260715,1.520554,0.2582462,-0.4071246,1.512145,0.07093666,0.425998,1.618477,-0.2146888,-0.418876,1.526445,0.2084983,-0.3962651,1.491183,0.05894871,-0.02983382,1.621287,0.05805603,-0.3423187,1.602359,-0.1164216,0.1551923,1.593777,-0.02336872,-0.334141,1.566477,-0.1691708,-0.1223178,1.610688,0.2904437,-0.1226697,1.629986,NA,NA,NotTracked,NotTracked,
0.9375,-0.2050781,0.06542969,0.9926758,0.5888672,0.2163086,-1,0,-2,-2,-3,-3,3,2,-3,-10,-19,11,0,-27,-9,-3,-4.4375,-4.4375,-4.4375,-27.3125,-27.3125,-27.3125,3.151253,2.852395,5.638649,6.701243,3.234937,5.075716,-0.1614859,-0.4269311,1.520722,0.254742,-0.4007351,1.504446,0.07084813,0.4259464,1.618254,-0.2154918,-0.4209173,1.526665,0.2065323,-0.3815672,1.488775,0.0587794,-0.02987807,1.621143,0.05776782,-0.3423185,1.602252,-0.1164199,0.1551691,1.593729,-0.0236735,-0.33412,1.566356,-0.169292,-0.1224134,1.610506,0.2909594,-0.12141,1.629692,NA,NA,NotTracked,NotTracked,
0.9375,-0.2050781,0.06542969,0.9775391,0.6030273,0.269043,-1,0,-2,-2,-3,-3,3,2,8,-1,5,6,-1,-14,-1,2,-4.4375,-4.4375,-4.4375,-28.0625,-28.0625,-28.0625,3.151253,2.852395,5.638649,6.673851,3.287679,5.090442,-0.1612854,-0.4263315,1.519733,0.2401375,-0.3737259,1.473471,0.07073487,0.4258505,1.617978,-0.2170678,-0.4230565,1.528849,0.1984504,-0.3484614,1.489508,0.058201,-0.0299051,1.620792,0.05692233,-0.3423066,1.601845,-0.1165291,0.1550287,1.593359,-0.02474104,-0.3339207,1.565759,-0.1694978,-0.1224139,1.610111,0.2928002,-0.1179159,1.627098,NA,NA,NotTracked,NotTracked,
0.9375,-0.2050781,0.06542969,0.9213867,0.7045898,0.4667969,-1,0,-2,-2,-3,-3,3,2,-17,-10,-1,-13,7,7,-2,-8,-4.4375,-4.4375,-4.4375,0.5625,0.5625,0.5625,3.151253,2.852395,5.638649,6.593333,3.506402,5.163628,-0.1617518,-0.4264922,1.520298,0.2323719,-0.3490737,1.446318,0.07064009,0.4258521,1.617921,-0.2158446,-0.4215777,1.527676,0.2008907,-0.3343118,1.487283,0.05761627,-0.02980194,1.620586,0.05569567,-0.3421944,1.601646,-0.1165272,0.1549876,1.593172,-0.02609921,-0.3335385,1.565544,-0.1695208,-0.1217233,1.609864,0.2933924,-0.1132677,1.624254,NA,NA,NotTracked,Unknown,
0.9375,-0.2050781,0.06542969,0.9331055,0.7421875,0.5024414,-1,0,-2,-2,-3,-3,3,2,4,3,7,-2,46,59,3,0,-4.4375,-4.4375,-4.4375,8.0625,8.0625,8.0625,3.151253,2.852395,5.638649,6.57611,3.602082,5.190658,-0.1619611,-0.4262243,1.519654,0.2132609,-0.3128546,1.410983,0.07057088,0.4258715,1.617846,-0.2158102,-0.4231015,1.52459,0.1784198,-0.3160399,1.4446,0.05669643,-0.02986547,1.620537,0.05303803,-0.3421826,1.601551,-0.1164864,0.1549787,1.592879,-0.02891744,-0.3328079,1.565528,-0.169603,-0.1207281,1.609298,0.2943868,-0.1022774,1.617928,NA,NA,NotTracked,Unknown,
0.9375,-0.2050781,0.06542969,0.7670898,0.8837891,0.7597656,-1,0,-2,-2,-3,-3,3,2,2,-5,2,0,-28,-23,-2,10,-4.4375,-4.4375,-4.4375,15.5,15.5,15.5,3.151253,2.852395,5.638649,6.536273,3.831122,5.267146,-0.1617344,-0.4276927,1.521164,0.175383,-0.2603755,1.404253,0.07054477,0.4258771,1.617855,-0.2166932,-0.4292992,1.527361,0.1190555,-0.2572929,1.451167,0.05613869,-0.02981556,1.620615,0.05128045,-0.3420315,1.601706,-0.1164805,0.1549626,1.592828,-0.03046622,-0.332299,1.565484,-0.169612,-0.120185,1.609167,0.2938109,-0.08609282,1.610757,NA,NA,NotTracked,Unknown,
0.9375,-0.2050781,0.06542969,0.628418,0.9077148,0.7949219,-1,0,-2,-2,-3,-3,3,2,-37,4,-10,6,-41,-16,-7,-19,-4.4375,-4.4375,-4.4375,10.625,10.625,10.625,3.151253,2.852395,5.638649,6.508951,3.964443,5.317655,-0.1614392,-0.427445,1.520709,0.1555775,-0.1919156,1.365039,0.07054244,0.4258781,1.617858,-0.2148741,-0.4211679,1.524221,0.09787193,-0.178285,1.3974,0.05577781,-0.02950497,1.620824,0.05091709,-0.3415046,1.602007,-0.1162724,0.1549417,1.592393,-0.03055048,-0.3320052,1.565526,-0.1696416,-0.1200219,1.608807,0.2924632,-0.07566951,1.602095,NA,NA,NotTracked,Unknown,
0.9375,-0.2050781,0.06542969,0.1943359,0.6606445,1.012695,-1,0,-2,-2,-3,-3,3,2,3,-2,-2,-3,-18,7,3,7,-4.4375,-4.4375,-4.4375,24.5,24.5,24.5,3.151253,2.852395,5.638649,6.412983,4.436216,5.534774,-0.1610685,-0.4273106,1.520125,0.1188082,-0.1188927,1.369118,0.07056174,0.4258635,1.617866,-0.2152136,-0.4217092,1.526526,0.09914006,-0.1769938,1.42225,0.05574669,-0.02936594,1.621168,0.05100594,-0.3410711,1.602535,-0.1160527,0.1548805,1.591856,-0.03037517,-0.3317083,1.565717,-0.1696156,-0.1198864,1.608508,0.2977667,-0.06607943,1.582428,NA,NA,NotTracked,Unknown,
0.9375,-0.2050781,0.06542969,-0.07177734,0.5532227,0.7905273,-1,0,-2,-2,-3,-3,3,2,3,2,-32,5,-5,-3,2,5,-4.4375,-4.4375,-4.4375,75.0625,75.0625,75.0625,3.151253,2.852395,5.638649,6.438633,4.79776,5.70108,-0.1603611,-0.4284199,1.519944,0.1076251,-0.06306835,1.358396,0.0706328,0.4258259,1.6179,-0.2130219,-0.4324238,1.520625,0.08943406,-0.0152333,1.407462,0.0557658,-0.02897506,1.621668,0.05132274,-0.3402042,1.603076,-0.1155012,0.1547956,1.591126,-0.02988751,-0.3309102,1.566086,-0.1696457,-0.1196039,1.608199,0.3037434,-0.06034254,1.546503,NA,NA,NotTracked,Unknown,
0.9375,-0.2050781,0.06542969,-0.1416016,0.5864258,0.7348633,-1,0,-2,-2,-3,-3,3,2,-8,-10,2,7,-6,-17,-5,-18,-4.4375,-4.4375,-4.4375,86.75,86.75,86.75,3.151253,2.852395,5.638649,6.478058,4.976286,5.790568,-0.1596416,-0.428123,1.51673,0.06362183,0.0005390834,1.361338,0.07096846,0.4256288,1.617845,-0.2124941,-0.4331197,1.520148,0.04766812,-0.04677663,1.431882,0.05581671,-0.02884806,1.621964,0.05162467,-0.339897,1.603451,-0.1145974,0.1544681,1.589439,-0.02932078,-0.3304591,1.56676,-0.1691915,-0.1189169,1.606441,0.3036408,-0.05614432,1.527988,NA,NA,NotTracked,Unknown,
0.9375,-0.2050781,0.06542969,-0.1142578,0.640625,0.6713867,-1,0,-2,-2,-3,-3,3,2,-7,-12,6,6,-8,13,-5,-11,-4.4375,-4.4375,-4.4375,85.75,85.75,85.75,3.151253,2.852395,5.638649,6.590467,5.276632,6.000877,-0.1589013,-0.4281272,1.516228,0.05657755,0.03951561,1.372491,0.07166944,0.4254062,1.618006,-0.2116137,-0.4354486,1.519174,0.04437623,-0.01170974,1.445539,0.05611255,-0.02883228,1.622678,0.05223639,-0.3398301,1.604117,-0.1135455,0.1546815,1.588196,-0.02835075,-0.3303203,1.567986,-0.1687631,-0.1181458,1.604243,0.265191,-0.04386941,1.472402,NA,NA,NotTracked,Unknown,
0.9375,-0.2050781,0.06542969,0.1757813,0.5600586,0.5649414,-1,0,-2,-2,-3,-3,3,2,16,-14,3,-2,-7,-22,0,20,-4.4375,-4.4375,-4.4375,65,65,65,3.151253,2.852395,5.638649,6.787296,5.578814,6.338812,-0.1574198,-0.4282594,1.509441,0.04955546,0.0624207,1.390461,0.07287031,0.4251395,1.617965,-0.2101528,-0.4299048,1.51135,0.03056476,0.02049252,1.454,0.05653753,-0.02875435,1.623057,0.05298756,-0.3398826,1.604289,-0.1134216,0.1547477,1.588207,-0.02742052,-0.3304084,1.568609,-0.1676432,-0.1177635,1.60029,0.2631211,-0.04176586,1.467278,NA,NA,NotTracked,Unknown,
0.9375,-0.2050781,0.06542969,0.1425781,0.6357422,0.5375977,-1,0,-2,-2,-3,-3,3,2,-2,14,-3,-27,-58,-22,-5,-19,-4.4375,-4.4375,-4.4375,47.9375,47.9375,47.9375,3.151253,2.852395,5.638649,6.857833,5.637203,6.46162,-0.1548335,-0.4245127,1.505906,0.03906169,0.08347235,1.408713,0.07424165,0.4248092,1.618086,-0.2038812,-0.4390624,1.496462,0.01742079,0.04599409,1.458791,0.05701723,-0.02873807,1.623417,0.05422861,-0.3401867,1.604682,-0.1129987,0.1547669,1.587991,-0.02614469,-0.3308523,1.569469,-0.1665113,-0.1171985,1.598081,0.2559898,-0.03570737,1.456499,NA,NA,NotTracked,Unknown,
0.9375,-0.2050781,0.06542969,0.1425781,0.6357422,0.5375977,-1,0,-2,-2,-3,-3,3,2,-2,14,-3,-27,-58,-22,-5,-19,-4.4375,-4.4375,-4.4375,47.9375,47.9375,47.9375,3.151253,2.852395,5.638649,6.857833,5.637203,6.46162,-0.1514033,-0.4209842,1.495598,-0.01678471,0.1209374,1.453988,0.07664342,0.4244435,1.618331,-0.2007838,-0.4367539,1.490739,-0.05341492,0.0823805,1.483203,0.05838367,-0.02860173,1.624223,0.05637641,-0.3405847,1.605237,-0.109277,0.1550583,1.585355,-0.02434086,-0.3311774,1.570294,-0.164502,-0.1148566,1.592521,0.2443553,-0.02408077,1.439953,NA,NA,NotTracked,Unknown,
0.9375,-0.2050781,0.06542969,0.1992188,0.6665039,0.484375,-1,0,-2,-2,-3,-3,3,2,10,22,3,10,-9,-21,-8,17,-4.4375,-4.4375,-4.4375,23.8125,23.8125,23.8125,3.151253,2.852395,5.638649,6.920175,5.671608,6.588867,-0.1501324,-0.4201548,1.490321,-0.01872115,0.1221452,1.458433,0.07769226,0.4244898,1.618663,-0.2006069,-0.4293459,1.48896,-0.05897374,0.08406355,1.487445,0.05876826,-0.02849849,1.624498,0.05690072,-0.3407294,1.60533,-0.107873,0.1550898,1.584173,-0.02393787,-0.3313045,1.570398,-0.1639164,-0.1147929,1.590854,0.2425569,-0.0222117,1.437118,NA,NA,NotTracked,Unknown,
0.9375,-0.2050781,0.06542969,0.2490234,0.6035156,0.1894531,-1,0,-2,-2,-3,-3,3,2,-8,7,4,1,22,17,-2,-1,-4.4375,-4.4375,-4.4375,11.875,11.875,11.875,3.151253,2.852395,5.638649,7.028605,5.699138,6.821135,-0.149465,-0.4195243,1.484629,-0.01793634,0.1204437,1.450943,0.07842239,0.4245224,1.618965,-0.1980058,-0.4292706,1.477829,-0.05810257,0.08474278,1.486049,0.05910064,-0.02846869,1.624753,0.057393,-0.3408263,1.605462,-0.1073609,0.1551916,1.583894,-0.0234766,-0.3314271,1.570652,-0.1637051,-0.1150324,1.589772,0.2420377,-0.02188733,1.436236,NA,NA,NotTracked,Unknown,
