ALX,ALY,ALZ,ARX,ARY,ARZ,EMG0L,EMG1L,EMG2L,EMG3L,EMG4L,EMG5L,EMG6L,EMG7L,EMG0R,EMG1R,EMG2R,EMG3R,EMG4R,EMG5R,EMG6R,EMG7R,GLX,GLY,GLZ,GRX,GRY,GRZ,ORL,OPL,OYL,ORR,OPR,OYR,LHNX,LHNY,LHNZ,RHNX,RHNY,RHNZ,HX,HY,HZ,LTX,LTY,LTZ,RTX,RTY,RTZ,SpineMidX,SpineMidY,SpineMidZ,SpineBaseX,SpineBaseY,SpineBaseZ,ShoulderLeftX,ShoulderLeftY,ShoulderLeftZ,ShoulderRightX,ShoulderRightY,ShoulderRightZ,ElbowLeftX,ElbowLeftY,ElbowLeftZ,ElbowRightX,ElbowRightY,ElbowRightZ,Myo_Pose_left,Myo_Pose_Right,Kinect_pose_left,Kinect_pose_right
0.9375,-0.2050781,0.06542969,0.9072266,0.328125,0.1479492,-1,0,-2,-2,-3,-3,3,2,-2,0,-2,-3,0,1,-1,2,-4.4375,-4.4375,-4.4375,0.3125,0.3125,0.3125,3.151253,2.852395,5.638649,6.838554,3.108198,4.966502,-0.1616232,-0.4254585,1.51847,0.2720022,-0.4168192,1.521411,0.07445306,0.4267512,1.617785,-0.215589,-0.4244646,1.521702,0.219432,-0.3879332,1.50076,0.06022067,-0.02886496,1.618924,0.05827451,-0.3422378,1.599379,-0.1138367,0.1566454,1.591002,-0.02290704,-0.3336548,1.56375,-0.168148,-0.1224307,1.607474,0.2958391,-0.1255359,1.627274,NA,NA,NotTracked,NotTracked,
0.9375,-0.2050781,0.06542969,0.9106445,0.3334961,0.1489258,-1,0,-2,-2,-3,-3,3,2,-3,1,0,-2,0,-20,-4,1,-4.4375,-4.4375,-4.4375,-0.125,-0.125,-0.125,3.151253,2.852395,5.638649,6.838554,3.108198,4.966502,-0.1612686,-0.4244584,1.519766,0.2718268,-0.417371,1.52101,0.07443961,0.4267704,1.617732,-0.215709,-0.4224542,1.523425,0.219536,-0.3874433,1.50056,0.060211,-0.02886753,1.618894,0.0582709,-0.3422418,1.59935,-0.1138368,0.1566433,1.591004,-0.02290998,-0.333657,1.563741,-0.1681528,-0.1224334,1.607436,0.2958581,-0.1255256,1.627246,NA,NA,NotTracked,NotTracked,
0.9375,-0.2050781,0.06542969,0.9067383,0.3369141,0.1435547,-1,0,-2,-2,-3,-3,3,2,1,2,-2,0,1,1,0,-1,-4.4375,-4.4375,-4.4375,0.375,0.375,0.375,3.151253,2.852395,5.638649,6.839128,3.108042,4.966255,-0.1614355,-0.4250742,1.519073,0.2716457,-0.4167914,1.520816,0.07441986,0.4267842,1.617682,-0.2154298,-0.4225485,1.522649,0.2181694,-0.4060971,1.499529,0.06017781,-0.02886856,1.618773,0.05820313,-0.3422183,1.599272,-0.1138479,0.1566517,1.590949,-0.02299826,-0.3336106,1.563656,-0.1681433,-0.1225212,1.607374,0.2958666,-0.125451,1.627204,NA,NA,NotTracked,NotTracked,
0.9375,-0.2050781,0.06542969,0.9038086,0.3320313,0.1479492,-1,0,-2,-2,-3,-3,3,2,-3,-3,-2,0,-2,5,1,-7,-4.4375,-4.4375,-4.4375,-2.1875,-2.1875,-2.1875,3.151253,2.852395,5.638649,6.838672,3.108324,4.96559,-0.1611348,-0.4247335,1.519467,0.2719877,-0.4166912,1.521184,0.07442399,0.4268034,1.617658,-0.2170587,-0.4216824,1.52684,0.2197495,-0.386215,1.500768,0.06015568,-0.02888199,1.618743,0.05818111,-0.342216,1.599241,-0.1138419,0.1566553,1.590898,-0.02301282,-0.3336104,1.563645,-0.1681417,-0.1225044,1.607388,0.295895,-0.1254719,1.627174,NA,NA,NotTracked,NotTracked,
0.9375,-0.2050781,0.06542969,0.9047852,0.3232422,0.1450195,-1,0,-2,-2,-3,-3,3,2,0,0,1,-1,0,2,1,1,-4.4375,-4.4375,-4.4375,-0.875,-0.875,-0.875,3.151253,2.852395,5.638649,6.837999,3.108246,4.966194,-0.161104,-0.4242159,1.519344,0.2723718,-0.4171543,1.521458,0.07441691,0.4268146,1.617637,-0.2140077,-0.4122168,1.522958,0.2198882,-0.383957,1.500967,0.06011788,-0.02886672,1.618689,0.05815379,-0.3422219,1.599213,-0.1139283,0.1566276,1.590874,-0.02303012,-0.3336187,1.563635,-0.168065,-0.122411,1.607373,0.2958934,-0.125468,1.627156,NA,NA,NotTracked,NotTracked,
0.9375,-0.2050781,0.06542969,0.9077148,0.3310547,0.1445313,-1,0,-2,-2,-3,-3,3,2,-2,0,-1,-2,-2,-3,-2,1,-4.4375,-4.4375,-4.4375,1.375,1.375,1.375,3.151253,2.852395,5.638649,6.84259,3.108665,4.962884,-0.1611153,-0.4243965,1.519292,0.272367,-0.4172765,1.522008,0.07441177,0.4268323,1.617615,-0.2161598,-0.4203447,1.52477,0.2197447,-0.3902734,1.501788,0.06008853,-0.02884287,1.618669,0.05813879,-0.3422194,1.599203,-0.113961,0.1566278,1.59086,-0.0230471,-0.3336145,1.563644,-0.16807,-0.1223371,1.607399,0.2958919,-0.125463,1.627138,NA,NA,NotTracked,NotTracked,
0.9375,-0.2050781,0.06542969,0.9116211,0.3432617,0.1391602,-1,0,-2,-2,-3,-3,3,2,2,-3,-1,-1,-1,-1,-1,-4,-4.4375,-4.4375,-4.4375,-0.125,-0.125,-0.125,3.151253,2.852395,5.638649,6.845553,3.109303,4.960474,-0.1610831,-0.4245572,1.519002,0.2726694,-0.4174963,1.522025,0.0744153,0.4268411,1.617609,-0.2151443,-0.4205225,1.522992,0.219643,-0.3864053,1.501305,0.06005563,-0.02882968,1.618671,0.05812005,-0.3422231,1.599204,-0.1139799,0.1566495,1.590871,-0.02305932,-0.3336205,1.563645,-0.1681027,-0.1222981,1.60742,0.2959235,-0.1255036,1.627106,NA,NA,NotTracked,NotTracked,
0.9375,-0.2050781,0.06542969,0.909668,0.3413086,0.1425781,-1,0,-2,-2,-3,-3,3,2,-4,-3,0,-24,-2,6,3,-3,-4.4375,-4.4375,-4.4375,-1.875,-1.875,-1.875,3.151253,2.852395,5.638649,6.844397,3.110283,4.960658,-0.1608986,-0.4251488,1.519256,0.2726346,-0.4178925,1.522331,0.07438909,0.4268519,1.617562,-0.2147377,-0.4338216,1.524312,0.2192118,-0.3901964,1.500422,0.06004769,-0.02886379,1.618609,0.05811696,-0.3422534,1.599152,-0.1139938,0.1566229,1.590866,-0.0230591,-0.3336732,1.563599,-0.168099,-0.1222964,1.607426,0.2959472,-0.1255018,1.627085,NA,NA,NotTracked,NotTracked,
0.9375,-0.2050781,0.06542969,0.8969727,0.3417969,0.1557617,-1,0,-2,-2,-3,-3,3,2,0,3,0,5,1,-4,0,-3,-4.4375,-4.4375,-4.4375,2.1875,2.1875,2.1875,3.151253,2.852395,5.638649,6.842398,3.114661,4.966055,-0.1605016,-0.4246809,1.517501,0.2727306,-0.4173072,1.520586,0.07438278,0.4268455,1.617495,-0.2146925,-0.4224263,1.522922,0.2196728,-0.3876198,1.499627,0.06001523,-0.02887153,1.618516,0.05810598,-0.3422689,1.599032,-0.113982,0.1565939,1.590852,-0.02307665,-0.3336945,1.56348,-0.1680895,-0.1224859,1.607404,0.295962,-0.1255328,1.627011,NA,NA,NotTracked,NotTracked,
0.9375,-0.2050781,0.06542969,0.9160156,0.3251953,0.1567383,-1,0,-2,-2,-3,-3,3,2,-3,-4,-1,2,-1,-3,0,-1,-4.4375,-4.4375,-4.4375,-0.375,-0.375,-0.375,3.151253,2.852395,5.638649,6.841607,3.117492,4.966146,-0.1605955,-0.4246135,1.517325,0.272838,-0.4168086,1.519949,0.07434167,0.4267832,1.617414,-0.2149364,-0.4228458,1.523785,0.2194108,-0.3905333,1.500377,0.05998065,-0.02888579,1.618474,0.05810398,-0.3423014,1.59896,-0.1139991,0.1565696,1.590801,-0.02307324,-0.3337264,1.563435,-0.1680583,-0.122459,1.607358,0.2959846,-0.1255417,1.626945,NA,NA,NotTracked,NotTracked,
0.9375,-0.2050781,0.06542969,0.9262695,0.3305664,0.1586914,-1,0,-2,-2,-3,-3,3,2,-2,-1,-2,0,0,1,-2,-2,-4.4375,-4.4375,-4.4375,-2.3125,-2.3125,-2.3125,3.151253,2.852395,5.638649,6.841053,3.118352,4.965173,-0.1605757,-0.4246322,1.518625,0.2728781,-0.4171129,1.522164,0.07432537,0.4268168,1.617455,-0.2156677,-0.4246886,1.525401,0.2195403,-0.3853903,1.501559,0.05992767,-0.02886518,1.618475,0.05807869,-0.3422885,1.598955,-0.114036,0.156557,1.590816,-0.02309686,-0.333705,1.563431,-0.1680586,-0.1222926,1.607544,0.2959947,-0.1255114,1.626984,NA,NA,NotTracked,NotTracked,
0.9375,-0.2050781,0.06542969,0.9052734,0.3295898,0.1333008,-1,0,-2,-2,-3,-3,3,2,1,-5,-1,-3,0,-13,-5,-4,-4.4375,-4.4375,-4.4375,-6.75,-6.75,-6.75,3.151253,2.852395,5.638649,6.837836,3.120394,4.961992,-0.1603933,-0.4245756,1.518144,0.2727873,-0.4170129,1.521568,0.0743225,0.4268202,1.617457,-0.2145277,-0.4182945,1.524392,0.219545,-0.3876275,1.500404,0.05989733,-0.0288915,1.618462,0.0580606,-0.3422977,1.598951,-0.1140774,0.1565442,1.590831,-0.02311122,-0.3337132,1.563426,-0.1680429,-0.1222821,1.607591,0.2960016,-0.1255092,1.626987,NA,NA,NotTracked,NotTracked,
0.9375,-0.2050781,0.06542969,0.9047852,0.3173828,0.1289063,-1,0,-2,-2,-3,-3,3,2,1,0,-4,1,0,-3,-1,-2,-4.4375,-4.4375,-4.4375,-7.5625,-7.5625,-7.5625,3.151253,2.852395,5.638649,6.835084,3.120196,4.960951,-0.1598661,-0.4247205,1.518599,0.2728623,-0.4167835,1.522077,0.07430859,0.4268426,1.617463,-0.2155253,-0.4170454,1.526041,0.2197005,-0.3891723,1.501364,0.05989276,-0.0288936,1.61843,0.05801991,-0.3422925,1.598877,-0.1140708,0.1564869,1.590772,-0.0231574,-0.3337018,1.563347,-0.1680041,-0.1222927,1.607604,0.2960087,-0.1255061,1.626989,NA,NA,NotTracked,NotTracked,
0.9375,-0.2050781,0.06542969,0.9208984,0.3369141,0.1489258,-1,0,-2,-2,-3,-3,3,2,1,-2,-2,-2,-2,6,0,-2,-4.4375,-4.4375,-4.4375,3.25,3.25,3.25,3.151253,2.852395,5.638649,6.82878,3.119859,4.965609,-0.1603931,-0.4251979,1.518439,0.2723991,-0.4167485,1.522262,0.0743103,0.4268782,1.617468,-0.2152733,-0.4242982,1.525919,0.2195399,-0.3892714,1.500476,0.05987588,-0.02888305,1.61842,0.05799246,-0.3422999,1.598841,-0.1140991,0.1564288,1.590756,-0.02320011,-0.3337192,1.563281,-0.1679783,-0.1223014,1.607591,0.2960542,-0.1254387,1.627041,NA,NA,NotTracked,NotTracked,
0.9375,-0.2050781,0.06542969,0.9018555,0.3662109,0.1455078,-1,0,-2,-2,-3,-3,3,2,-6,-3,6,0,-2,1,0,-1,-4.4375,-4.4375,-4.4375,2.75,2.75,2.75,3.151253,2.852395,5.638649,6.827218,3.121866,4.968927,-0.1596744,-0.4250992,1.518837,0.2720129,-0.4162325,1.522919,0.07429779,0.4269011,1.617485,-0.2132762,-0.4185346,1.523231,0.2193697,-0.3897143,1.500473,0.05991765,-0.02890303,1.61839,0.05800758,-0.3423178,1.59881,-0.1140928,0.1563995,1.590746,-0.02318372,-0.3337512,1.563248,-0.1679862,-0.1223669,1.607572,0.2960889,-0.1254074,1.62714,NA,NA,NotTracked,NotTracked,
0.9375,-0.2050781,0.06542969,0.9135742,0.4335938,0.1816406,-1,0,-2,-2,-3,-3,3,2,-6,-1,-2,0,-1,1,0,-4,-4.4375,-4.4375,-4.4375,-25.25,-25.25,-25.25,3.151253,2.852395,5.638649,6.818356,3.137871,4.95932,-0.160172,-0.4245003,1.519403,0.2731031,-0.4162557,1.522887,0.07427361,0.4269016,1.617466,-0.2153004,-0.4337274,1.529,0.2194033,-0.3905297,1.500638,0.05991206,-0.02889969,1.618385,0.05800503,-0.3423228,1.598785,-0.1141528,0.1564033,1.590766,-0.02319033,-0.3337593,1.563198,-0.1679918,-0.1223556,1.60758,0.2961445,-0.1252099,1.627375,NA,NA,NotTracked,NotTracked,
0.9375,-0.2050781,0.06542969,0.984375,0.5185547,0.1386719,-1,0,-2,-2,-3,-3,3,2,-3,-5,-5,-2,-3,1,-2,2,-4.4375,-4.4375,-4.4375,-29.6875,-29.6875,-29.6875,3.151253,2.852395,5.638649,6.789379,3.198634,4.933708,-0.15967,-0.4251803,1.519454,0.2729009,-0.4154642,1.519851,0.07423224,0.4268881,1.617569,-0.2130081,-0.4301361,1.522329,0.2203242,-0.3837766,1.501378,0.05991575,-0.02891547,1.618402,0.05800155,-0.3423245,1.598777,-0.114162,0.1563938,1.590776,-0.02319473,-0.3337597,1.56319,-0.1679743,-0.1222724,1.607599,0.2962182,-0.1250862,1.627682,NA,NA,NotTracked,NotTracked,
0.9375,-0.2050781,0.06542969,0.984375,0.5185547,0.1386719,-1,0,-2,-2,-3,-3,3,2,-3,-5,-5,-2,-3,1,-2,2,-4.4375,-4.4375,-4.4375,-29.6875,-29.6875,-29.6875,3.151253,2.852395,5.638649,6.789379,3.198634,4.933708,-0.1596878,-0.4248868,1.51932,0.2714026,-0.4112385,1.512811,0.07423168,0.4268868,1.61757,-0.2145511,-0.4244163,1.526263,0.2200309,-0.3765188,1.501333,0.05991708,-0.02891467,1.618401,0.05799359,-0.3423199,1.598771,-0.1141476,0.1563573,1.590791,-0.02320907,-0.3337391,1.563087,-0.1679669,-0.1222848,1.607607,0.2964487,-0.124772,1.628173,NA,NA,NotTracked,NotTracked,
0.9375,-0.2050781,0.06542969,1,0.65625,0.1162109,-1,0,-2,-2,-3,-3,3,2,-16,-8,36,-28,-3,-7,-5,-4,-4.4375,-4.4375,-4.4375,-43.1875,-43.1875,-43.1875,3.151253,2.852395,5.638649,6.769514,3.244338,4.932612,-0.1598813,-0.4251873,1.519801,0.2672616,-0.4012418,1.501603,0.07423591,0.4268607,1.617548,-0.2141358,-0.4108766,1.528972,0.2190226,-0.3737395,1.498182,0.05989248,-0.02891112,1.618402,0.0579595,-0.342331,1.598766,-0.1141924,0.1563163,1.590854,-0.02327378,-0.3337441,1.563027,-0.1678932,-0.1223453,1.607746,0.2970714,-0.1240692,1.629128,NA,NA,NotTracked,NotTracked,
0.9375,-0.2050781,0.06542969,0.894043,0.7841797,0.7109375,-1,0,-2,-2,-3,-3,3,2,4,-9,-20,-10,-55,-27,5,18,-4.4375,-4.4375,-4.4375,37.8125,37.8125,37.8125,3.151253,2.852395,5.638649,6.577648,3.548997,5.13216,-0.1597369,-0.4248422,1.519915,0.2389044,-0.3434843,1.452978,0.0742784,0.4268622,1.617554,-0.2141572,-0.4186098,1.526186,0.2075426,-0.3242027,1.493341,0.05960041,-0.02873527,1.618381,0.05704479,-0.3418741,1.598781,-0.1141387,0.1563497,1.590787,-0.02448666,-0.33279,1.562534,-0.1679469,-0.1218228,1.60785,0.2986675,-0.1132936,1.628458,NA,NA,NotTracked,NotTracked,
0.9375,-0.2050781,0.06542969,0.8295898,0.934082,0.7075195,-1,0,-2,-2,-3,-3,3,2,-5,-7,7,23,29,6,2,-7,-4.4375,-4.4375,-4.4375,24.625,24.625,24.625,3.151253,2.852395,5.638649,6.539214,3.666558,5.199525,-0.160791,-0.4258135,1.520542,0.1876375,-0.3007333,1.438093,0.07439823,0.4267914,1.617536,-0.214312,-0.422245,1.526195,0.1332982,-0.3321803,1.463681,0.05886737,-0.02878043,1.618341,0.05409271,-0.3417616,1.598794,-0.1139957,0.156324,1.590527,-0.02764053,-0.3320265,1.562355,-0.1680121,-0.1215434,1.607865,0.2998807,-0.09774778,1.624478,NA,NA,NotTracked,Unknown,
0.9375,-0.2050781,0.06542969,0.4008789,0.7036133,0.8491211,-1,0,-2,-2,-3,-3,3,2,18,7,-9,26,-18,45,-2,13,-4.4375,-4.4375,-4.4375,-11.25,-11.25,-11.25,3.151253,2.852395,5.638649,6.370319,4.110391,5.42941,-0.1600635,-0.4254644,1.518453,0.1653288,-0.23712,1.392899,0.07458772,0.4267165,1.617209,-0.2136772,-0.4197264,1.523866,0.1078344,-0.2272635,1.42955,0.05843827,-0.02866204,1.618162,0.05287875,-0.3413285,1.59846,-0.1135429,0.1562133,1.589696,-0.02856282,-0.3314862,1.561816,-0.1680451,-0.1213011,1.607373,0.2967314,-0.08405917,1.615419,NA,NA,NotTracked,Unknown,
0.9375,-0.2050781,0.06542969,0.02587891,0.6723633,0.8022461,-1,0,-2,-2,-3,-3,3,2,-8,-13,9,-37,-39,-1,3,20,-4.4375,-4.4375,-4.4375,26,26,26,3.151253,2.852395,5.638649,6.30519,4.468006,5.605366,-0.1612299,-0.4269277,1.520519,0.1371269,-0.1567904,1.367597,0.07484406,0.4266175,1.617245,-0.2157111,-0.4219361,1.527091,0.09318363,-0.1706937,1.393364,0.05832257,-0.02850665,1.618421,0.05285576,-0.3408489,1.599113,-0.1129538,0.1560853,1.588991,-0.02843432,-0.3311898,1.562093,-0.1680339,-0.1207511,1.606861,0.2952293,-0.06823649,1.599973,NA,NA,NotTracked,Unknown,
0.9375,-0.2050781,0.06542969,0.00390625,0.6513672,0.8120117,-1,0,-2,-2,-3,-3,3,2,-2,-3,-16,-7,-24,7,-3,5,-4.4375,-4.4375,-4.4375,90.1875,90.1875,90.1875,3.151253,2.852395,5.638649,6.353197,4.840095,5.762806,-0.1614681,-0.4272848,1.519239,0.1022263,-0.09190734,1.382742,0.07532743,0.4263708,1.617144,-0.2139742,-0.4193865,1.523858,0.08727855,-0.1525334,1.432265,0.05833337,-0.02839341,1.618752,0.05321459,-0.3404539,1.599667,-0.1118386,0.1558042,1.587835,-0.02808491,-0.3308809,1.562315,-0.1680402,-0.1203266,1.606127,0.2982996,-0.06701234,1.569542,NA,NA,NotTracked,Unknown,
0.9375,-0.2050781,0.06542969,0.00390625,0.6513672,0.8120117,-1,0,-2,-2,-3,-3,3,2,-2,-3,-16,-7,-24,7,-3,5,-4.4375,-4.4375,-4.4375,90.1875,90.1875,90.1875,3.151253,2.852395,5.638649,6.353197,4.840095,5.762806,-0.1612154,-0.4279713,1.518042,0.09872982,-0.03544387,1.373417,0.07577613,0.4261461,1.617105,-0.2139705,-0.4238233,1.52273,0.0734943,0.02308048,1.411167,0.05832607,-0.02829689,1.619339,0.05341968,-0.3400429,1.600379,-0.1112259,0.1556079,1.5871,-0.02770051,-0.33048,1.563142,-0.1678329,-0.1192358,1.604613,0.2972939,-0.0626007,1.535877,NA,NA,NotTracked,Unknown,
0.9375,-0.2050781,0.06542969,0.01757813,0.6157227,0.7832031,-1,0,-2,-2,-3,-3,3,2,9,0,-11,-7,-11,-8,-5,3,-4.4375,-4.4375,-4.4375,101,101,101,3.151253,2.852395,5.638649,6.403862,5.015594,5.838297,-0.1608194,-0.4271806,1.515545,0.07490951,0.02415499,1.373241,0.07651414,0.4258425,1.61706,-0.2117441,-0.4317588,1.515236,0.07309642,0.07873756,1.450286,0.05838969,-0.02822792,1.61996,0.05403461,-0.3398127,1.601118,-0.109423,0.1550423,1.584817,-0.02684397,-0.3303,1.563913,-0.1672172,-0.1188358,1.603096,0.2929359,-0.05635642,1.512012,NA,NA,NotTracked,Unknown,
0.9375,-0.2050781,0.06542969,-0.006347656,0.6157227,0.7749023,-1,0,-2,-2,-3,-3,3,2,-29,-3,-3,16,7,-33,-1,-16,-4.4375,-4.4375,-4.4375,109.875,109.875,109.875,3.151253,2.852395,5.638649,6.467329,5.178111,5.91772,-0.1600425,-0.4272891,1.511261,0.04888838,0.06637157,1.378946,0.0779916,0.4254651,1.617339,-0.2115002,-0.4318794,1.514148,0.02962609,0.02966098,1.451769,0.05901327,-0.02835989,1.621149,0.05524619,-0.3399011,1.602262,-0.1093207,0.1550443,1.585244,-0.02535334,-0.3304465,1.565444,-0.1665807,-0.1184961,1.60072,0.2650753,-0.04285401,1.468601,NA,NA,NotTracked,Unknown,
0.9375,-0.2050781,0.06542969,0.04199219,0.6337891,0.7275391,-1,0,-2,-2,-3,-3,3,2,7,-1,2,2,42,18,-1,-7,-4.4375,-4.4375,-4.4375,90.5625,90.5625,90.5625,3.151253,2.852395,5.638649,6.689487,5.544324,6.180786,-0.158253,-0.4249877,1.50648,0.05894933,0.09098679,1.370085,0.07966454,0.4254078,1.61794,-0.2111677,-0.4264044,1.514807,0.01116827,0.09424894,1.398556,0.05969061,-0.02833804,1.622283,0.05636915,-0.3400483,1.603321,-0.1092209,0.1550705,1.585366,-0.02418849,-0.3306833,1.566597,-0.165721,-0.1180759,1.599126,0.2630999,-0.03991459,1.463268,NA,NA,NotTracked,Unknown,
0.9375,-0.2050781,0.06542969,0.04199219,0.6337891,0.7275391,-1,0,-2,-2,-3,-3,3,2,-7,-8,0,-3,-12,-10,2,7,-4.4375,-4.4375,-4.4375,90.5625,90.5625,90.5625,3.151253,2.852395,5.638649,6.689487,5.544324,6.180786,-0.1564585,-0.4234329,1.499769,0.05350056,0.1003551,1.393449,0.0815487,0.4252051,1.618556,-0.2048396,-0.4318819,1.496545,0.04696813,0.05184649,1.462736,0.06054401,-0.02849865,1.623213,0.0575213,-0.3404527,1.603987,-0.1090353,0.1551835,1.585514,-0.02303416,-0.3311758,1.567496,-0.1645742,-0.1171641,1.596553,0.258279,-0.03226444,1.451892,NA,NA,NotTracked,Unknown,
0.9375,-0.2050781,0.06542969,0.1450195,0.515625,0.5097656,-1,0,-2,-2,-3,-3,3,2,9,8,4,1,1,-1,-2,1,-4.4375,-4.4375,-4.4375,63.25,63.25,63.25,3.151253,2.852395,5.638649,6.836897,5.673807,6.377822,-0.1521618,-0.4216547,1.495751,0.04424726,0.1056995,1.41389,0.08306289,0.4251428,1.619274,-0.2000237,-0.4296151,1.489231,0.02945645,0.06451355,1.465412,0.0611222,-0.02841013,1.623814,0.05826873,-0.3405853,1.604351,-0.1088121,0.1553361,1.585662,-0.02237124,-0.3313254,1.567964,-0.1638352,-0.1160024,1.594247,0.2538915,-0.02591029,1.443401,NA,NA,NotTracked,Unknown,
0.9375,-0.2050781,0.06542969,0.0703125,0.6279297,0.3286133,-1,0,-2,-2,-3,-3,3,2,35,31,-6,-11,5,-15,-2,1,-4.4375,-4.4375,-4.4375,39.375,39.375,39.375,3.151253,2.852395,5.638649,6.971977,5.731144,6.57411,-0.1491977,-0.4196861,1.488761,0.03786605,0.1078801,1.425213,0.0842825,0.4250808,1.619633,-0.1982405,-0.4364177,1.484869,0.01443395,0.06735384,1.464792,0.06158729,-0.02844062,1.624301,0.05886086,-0.3408708,1.604682,-0.1083827,0.1555216,1.585644,-0.02177451,-0.3316984,1.568661,-0.1633222,-0.116017,1.592332,0.2509576,-0.02165421,1.437566,NA,NA,NotTracked,Unknown,
0.9375,-0.2050781,0.06542969,0.0703125,0.6279297,0.3286133,-1,0,-2,-2,-3,-3,3,2,-7,3,-7,-2,-7,3,4,-2,-4.4375,-4.4375,-4.4375,39.375,39.375,39.375,3.151253,2.852395,5.638649,6.971977,5.731144,6.57411,-0.1467762,-0.4182839,1.48351,0.03214124,0.1074508,1.435054,0.0852345,0.4250288,1.620124,-0.1951265,-0.4215702,1.480857,0.005283673,0.06047945,1.464053,0.06190797,-0.0283921,1.624527,0.05927606,-0.340896,1.604785,-0.1075834,0.1557563,1.585299,-0.02144367,-0.3317569,1.568835,-0.1621573,-0.1153995,1.590161,0.2491067,-0.01875199,1.434354,NA,NA,NotTracked,Unknown,
0.9375,-0.2050781,0.06542969,0.02294922,0.6826172,0.2226563,-1,0,-2,-2,-3,-3,3,2,5,-11,-3,5,7,6,0,-3,-4.4375,-4.4375,-4.4375,20.875,20.875,20.875,3.151253,2.852395,5.638649,7.072646,5.740959,6.742311,-0.1448602,-0.4166149,1.478553,-0.01203917,0.1227124,1.454539,0.08594164,0.4251611,1.620801,-0.1949576,-0.4320872,1.481,0.02659913,0.182401,1.497833,0.06229759,-0.02842159,1.624671,0.05960486,-0.3409685,1.604825,-0.1067891,0.1558632,1.584791,-0.02112466,-0.3318528,1.569033,-0.1613134,-0.1152657,1.588836,0.2478703,-0.01702086,1.43173,NA,NA,NotTracked,Unknown,
0.9375,-0.2050781,0.06542969,-0.1894531,0.75,0.2333984,-1,0,-2,-2,-3,-3,3,2,-4,-5,-2,2,-3,0,0,-1,-4.4375,-4.4375,-4.4375,7.375,7.375,7.375,3.151253,2.852395,5.638649,7.103384,5.735884,6.804544,-0.1419532,-0.4168952,1.476218,-0.01364451,0.1223918,1.455953,0.08657189,0.4252557,1.621607,-0.1896596,-0.4212276,1.471211,-0.04732117,0.07901765,1.481441,0.06246201,-0.02844787,1.624859,0.05988802,-0.341105,1.60482,-0.1063232,0.1559614,1.584617,-0.0209058,-0.3319982,1.569112,-0.1607094,-0.1150791,1.587402,0.2476781,-0.0166194,1.430941,NA,NA,NotTracked,Unknown,
0.9375,-0.2050781,0.06542969,-0.4272461,0.894043,0.1904297,-1,0,-2,-2,-3,-3,3,2,15,20,0,-2,6,-21,-1,2,-4.4375,-4.4375,-4.4375,-8.625,-8.625,-8.625,3.151253,2.852395,5.638649,7.10318,5.714879,6.85765,-0.1409464,-0.4154465,1.473128,-0.0130573,0.1242075,1.453257,0.08686147,0.4253378,1.62224,-0.1888676,-0.4205678,1.469919,0.02560176,0.1073946,1.471094,0.06261422,-0.02843051,1.624952,0.060196,-0.3411527,1.604751,-0.1059321,0.1560639,1.584519,-0.02062348,-0.332082,1.569127,-0.1599521,-0.1148116,1.586529,0.2473569,-0.01616357,1.430222,NA,NA,NotTracked,Closed,
0.9375,-0.2050781,0.06542969,-0.4057617,0.8857422,0.2216797,-1,0,-2,-2,-3,-3,3,2,6,0,-2,-3,-1,-2,-4,0,-4.4375,-4.4375,-4.4375,13.1875,13.1875,13.1875,3.151253,2.852395,5.638649,7.091041,5.720914,6.804014,-0.1408641,-0.4158366,1.473196,-0.01059279,0.1237923,1.451872,0.08708608,0.4254203,1.622827,-0.1895608,-0.4296273,1.473114,0.02922961,0.1122006,1.473884,0.06276419,-0.02845176,1.625136,0.0603421,-0.3412369,1.604729,-0.1057982,0.156128,1.584572,-0.02050539,-0.3321814,1.569188,-0.1597689,-0.1148459,1.586313,0.247321,-0.01617799,1.430148,NA,NA,Unknown,Closed,
0.9375,-0.2050781,0.06542969,-0.1040039,0.8979492,0.1245117,-1,0,-2,-2,-3,-3,3,2,-8,3,0,-7,-2,4,-3,-1,-4.4375,-4.4375,-4.4375,11.5625,11.5625,11.5625,3.151253,2.852395,5.638649,7.08172,5.710843,6.732443,-0.1413135,-0.4157965,1.475186,-0.007856661,0.1353909,1.438076,0.08706788,0.4252847,1.623489,-0.1921161,-0.4241246,1.477869,0.01781718,0.09624067,1.472927,0.06296471,-0.02849961,1.625224,0.06085753,-0.3415594,1.604319,-0.1056501,0.1562202,1.584991,-0.02010415,-0.3325614,1.568977,-0.1595539,-0.1148519,1.585883,0.2476829,-0.01638732,1.430192,NA,NA,Unknown,Unknown,
0.9375,-0.2050781,0.06542969,-0.2265625,0.8500977,0.2231445,-1,0,-2,-2,-3,-3,3,2,-9,-12,-5,-2,-6,7,4,0,-4.4375,-4.4375,-4.4375,4.75,4.75,4.75,3.151253,2.852395,5.638649,7.033968,5.719006,6.614886,-0.1427128,-0.4149757,1.477287,0.05231702,0.1197193,1.400763,0.08699898,0.4252749,1.623814,-0.1927252,-0.4320575,1.477212,0.0548151,0.07696949,1.468884,0.06301069,-0.02852904,1.625294,0.06094877,-0.3416958,1.604232,-0.1056278,0.156312,1.585475,-0.02004745,-0.3327172,1.568935,-0.1595525,-0.1148854,1.585843,0.2504148,-0.01793955,1.431931,NA,NA,Unknown,Unknown,
0.9375,-0.2050781,0.06542969,-0.1015625,0.8056641,0.2768555,-1,0,-2,-2,-3,-3,3,2,-5,-9,8,3,-7,-7,-4,-2,-4.4375,-4.4375,-4.4375,17.125,17.125,17.125,3.151253,2.852395,5.638649,7.009346,5.713929,6.536583,-0.1444321,-0.4161953,1.479113,0.06047716,0.1161579,1.389032,0.08675086,0.4252884,1.624028,-0.194635,-0.4225911,1.481477,0.06030668,0.0767899,1.467613,0.06300307,-0.02853536,1.625293,0.06089975,-0.3419134,1.604012,-0.1056159,0.1564576,1.585475,-0.02013605,-0.3329348,1.568853,-0.1595647,-0.1148749,1.585859,0.2563289,-0.02089426,1.435497,NA,NA,Unknown,Unknown,
0.9375,-0.2050781,0.06542969,-0.2456055,0.8232422,0.4658203,-1,0,-2,-2,-3,-3,3,2,-1,2,0,-3,1,-3,0,2,-4.4375,-4.4375,-4.4375,18.3125,18.3125,18.3125,3.151253,2.852395,5.638649,6.929165,5.64187,6.277771,-0.1472695,-0.4154828,1.481266,0.07043184,0.1080739,1.370313,0.08632055,0.4254739,1.624275,-0.1987745,-0.4148205,1.484839,0.06622467,0.06290822,1.459384,0.06299438,-0.02854115,1.625299,0.06079388,-0.3419722,1.603929,-0.1057165,0.1564907,1.585521,-0.02026006,-0.3329982,1.568824,-0.1597041,-0.1148208,1.58631,0.2674072,-0.0243898,1.44084,NA,NA,Unknown,Unknown,
0.9375,-0.2050781,0.06542969,-0.2070313,0.7285156,0.5043945,-1,0,-2,-2,-3,-3,3,2,1,-2,-3,-1,-1,5,3,0,-4.4375,-4.4375,-4.4375,18.875,18.875,18.875,3.151253,2.852395,5.638649,6.901983,5.595282,6.182957,-0.1503251,-0.4165628,1.485704,0.0869435,0.08888339,1.359005,0.08543728,0.4257633,1.624801,-0.1983247,-0.4295161,1.479833,0.06351765,0.05010635,1.453116,0.06288247,-0.02855694,1.625298,0.06045486,-0.3420325,1.603816,-0.1059534,0.1566016,1.586041,-0.02063411,-0.3330534,1.56875,-0.16038,-0.115327,1.587804,0.2886195,-0.03470026,1.460096,NA,NA,Unknown,Unknown,
0.9375,-0.2050781,0.06542969,-0.1791992,0.6943359,0.6474609,-1,0,-2,-2,-3,-3,3,2,0,0,-10,-6,-2,-8,-4,3,-4.4375,-4.4375,-4.4375,31,31,31,3.151253,2.852395,5.638649,6.859794,5.481417,5.986871,-0.1561412,-0.4181931,1.489491,0.1173196,0.06494622,1.332166,0.08462367,0.4260986,1.625088,-0.2046061,-0.4148953,1.490273,0.07083134,0.04709886,1.404833,0.06272332,-0.02858241,1.625355,0.0599727,-0.3419153,1.603893,-0.1066229,0.1567309,1.586787,-0.02115201,-0.3329614,1.56904,-0.1617654,-0.1149249,1.589968,0.2987735,-0.03994879,1.466175,NA,NA,Unknown,Closed,
0.9375,-0.2050781,0.06542969,-0.1625977,0.7695313,0.7490234,-1,0,-2,-2,-3,-3,3,2,1,2,0,8,10,-17,-3,2,-4.4375,-4.4375,-4.4375,30.75,30.75,30.75,3.151253,2.852395,5.638649,6.842474,5.324768,5.805957,-0.1614815,-0.4187552,1.493569,0.1288393,0.03405517,1.320021,0.08386976,0.42629,1.625081,-0.2088775,-0.423415,1.494553,0.07564152,0.01100135,1.3868,0.06274197,-0.02855491,1.62521,0.059255,-0.3417971,1.603994,-0.1076449,0.1564842,1.588459,-0.02177865,-0.3328561,1.569335,-0.1632986,-0.1142562,1.592138,0.3058327,-0.04212551,1.47146,NA,NA,NotTracked,Closed,
0.9375,-0.2050781,0.06542969,-0.1171875,0.7021484,0.6870117,-1,0,-2,-2,-3,-3,3,2,-1,-5,-4,-6,-9,-1,-2,-7,-4.4375,-4.4375,-4.4375,-28.8125,-28.8125,-28.8125,3.151253,2.852395,5.638649,6.80108,5.127679,5.648483,-0.1671898,-0.4204425,1.500269,0.152964,-0.006044109,1.3153,0.08253527,0.4266833,1.62507,-0.2126237,-0.4345066,1.498586,0.09622971,-0.03683548,1.360875,0.06264336,-0.02840499,1.625003,0.0581285,-0.3412111,1.604095,-0.1085999,0.1564478,1.589201,-0.0228584,-0.3321361,1.569816,-0.1648417,-0.1152947,1.59502,0.3216587,-0.0417202,1.49197,NA,NA,NotTracked,Unknown,
0.9375,-0.2050781,0.06542969,-0.1191406,0.7734375,0.7275391,-1,0,-2,-2,-3,-3,3,2,5,2,-5,-5,-3,-1,0,-1,-4.4375,-4.4375,-4.4375,-15.75,-15.75,-15.75,3.151253,2.852395,5.638649,6.786092,5.01651,5.580422,-0.173635,-0.4203327,1.504541,0.1448627,-0.06070946,1.310812,0.08129581,0.4269069,1.624327,-0.2185949,-0.4189238,1.506806,0.1006819,-0.07637088,1.398,0.06171774,-0.02807592,1.624292,0.05692494,-0.3408061,1.603522,-0.1089452,0.1563894,1.589297,-0.0239542,-0.3317403,1.569736,-0.1660071,-0.1154672,1.59696,0.3335877,-0.04544022,1.514665,NA,NA,NotTracked,Unknown,
0.9375,-0.2050781,0.06542969,-0.06298828,0.8286133,0.6577148,-1,0,-2,-2,-3,-3,3,2,50,-7,-1,1,0,-4,4,11,-4.4375,-4.4375,-4.4375,-12.0625,-12.0625,-12.0625,3.151253,2.852395,5.638649,6.788969,4.777223,5.485081,-0.178916,-0.4228471,1.511198,0.2005919,-0.09522697,1.3291,0.07983048,0.4272205,1.623263,-0.2220888,-0.4187081,1.518358,0.1357633,-0.1324052,1.396,0.06111068,-0.02789115,1.623429,0.05594534,-0.3404712,1.603074,-0.1093627,0.1565102,1.589491,-0.02498006,-0.3314244,1.569586,-0.1670537,-0.116486,1.599347,0.342898,-0.046389,1.554536,NA,NA,NotTracked,Unknown,
0.9375,-0.2050781,0.06542969,-0.07763672,0.6616211,0.6489258,-1,0,-2,-2,-3,-3,3,2,-11,2,-1,0,-5,-6,-9,-6,-4.4375,-4.4375,-4.4375,-30,-30,-30,3.151253,2.852395,5.638649,6.762261,4.538219,5.416235,-0.1842482,-0.4223894,1.519143,0.2190333,-0.1438491,1.342819,0.07883844,0.427639,1.622534,-0.2253792,-0.4227541,1.522786,0.1675442,-0.2036242,1.328,0.06051208,-0.02766332,1.6227,0.0549193,-0.3401278,1.602624,-0.1098456,0.1566532,1.589923,-0.02602157,-0.3310632,1.569332,-0.1682661,-0.1161062,1.603227,0.3424277,-0.04722048,1.574358,NA,NA,NotTracked,Unknown,
0.9375,-0.2050781,0.06542969,0.05957031,0.7314453,0.5180664,-1,0,-2,-2,-3,-3,3,2,-4,-12,-1,2,-2,1,2,7,-4.4375,-4.4375,-4.4375,48.0625,48.0625,48.0625,3.151253,2.852395,5.638649,6.817374,4.284603,5.356216,-0.185115,-0.4240309,1.52387,0.2337444,-0.1893426,1.369112,0.07783746,0.4279251,1.621072,-0.2280857,-0.4127058,1.533355,0.1643817,-0.1705561,1.4612,0.05962591,-0.0272946,1.621657,0.05401135,-0.3399572,1.602038,-0.1100278,0.1567059,1.589948,-0.02703933,-0.3308497,1.568744,-0.1689853,-0.1160207,1.604886,0.3381863,-0.04838815,1.586321,NA,NA,NotTracked,Unknown,
0.9375,-0.2050781,0.06542969,0.3300781,0.9882813,0.3613281,-1,0,-2,-2,-3,-3,3,2,-7,0,1,2,1,-1,3,7,-4.4375,-4.4375,-4.4375,-5.5,-5.5,-5.5,3.151253,2.852395,5.638649,6.867013,4.042626,5.283904,-0.1858076,-0.4258595,1.530398,0.2423547,-0.2422106,1.407068,0.07712004,0.4281489,1.620194,-0.2290906,-0.4145466,1.539194,0.1800911,-0.2402094,1.485107,0.05945723,-0.02723987,1.621081,0.05384736,-0.3398732,1.601857,-0.1101478,0.1567745,1.589969,-0.02723901,-0.330751,1.568605,-0.1701702,-0.1162016,1.607524,0.3307767,-0.04920559,1.603672,NA,NA,NotTracked,Unknown,
0.9375,-0.2050781,0.06542969,0.6157227,0.8491211,0.3710938,-1,0,-2,-2,-3,-3,3,2,-2,-4,-8,-7,-4,1,-5,-3,-4.4375,-4.4375,-4.4375,-23.9375,-23.9375,-23.9375,3.151253,2.852395,5.638649,6.883212,3.814378,5.222345,-0.1863954,-0.4250682,1.537699,0.278779,-0.3031929,1.441304,0.07626785,0.4283907,1.618939,-0.2285681,-0.4253619,1.546391,0.2411627,-0.3381092,1.445583,0.05934146,-0.02711063,1.620008,0.05375594,-0.3397697,1.601596,-0.1103864,0.1569218,1.589958,-0.02737018,-0.3306619,1.5684,-0.171404,-0.1172688,1.611318,0.320194,-0.07405037,1.61615,NA,NA,NotTracked,Unknown,
0.9375,-0.2050781,0.06542969,0.6582031,0.9291992,0.2739258,-1,0,-2,-2,-3,-3,3,2,1,0,-2,-4,-1,-7,-4,1,-4.4375,-4.4375,-4.4375,-32.4375,-32.4375,-32.4375,3.151253,2.852395,5.638649,6.885108,3.710795,5.194921,-0.1835939,-0.4254725,1.53856,0.2856625,-0.3297339,1.461061,0.0759493,0.4283776,1.618238,-0.2295531,-0.4070998,1.55424,0.2487537,-0.3587358,1.465909,0.05933088,-0.0271196,1.619493,0.05377967,-0.3397966,1.601501,-0.1104497,0.1569715,1.589934,-0.02736022,-0.3307132,1.568305,-0.1716026,-0.1180568,1.611968,0.3166524,-0.08242615,1.619243,NA,NA,NotTracked,Unknown,
0.9375,-0.2050781,0.06542969,0.9042969,0.7587891,0.2460938,-1,0,-2,-2,-3,-3,3,2,-9,3,-4,1,-1,1,-5,-4,-4.4375,-4.4375,-4.4375,-56.625,-56.625,-56.625,3.151253,2.852395,5.638649,6.872622,3.532283,5.137896,-0.1824345,-0.4246593,1.539228,0.2898144,-0.346705,1.481126,0.07579089,0.4283543,1.617722,-0.2280004,-0.4173346,1.549475,0.2531335,-0.3784287,1.487692,0.05926947,-0.02708346,1.619103,0.05377213,-0.3398176,1.601359,-0.1105738,0.1569428,1.589774,-0.02738992,-0.3307537,1.568114,-0.171595,-0.1184666,1.612545,0.3126343,-0.0913802,1.622842,NA,NA,NotTracked,Unknown,
0.9375,-0.2050781,0.06542969,0.8720703,0.637207,0.2290039,-1,0,-2,-2,-3,-3,3,2,1,0,6,1,-1,-7,0,-1,-4.4375,-4.4375,-4.4375,-46.0625,-46.0625,-46.0625,3.151253,2.852395,5.638649,6.867117,3.402009,5.07625,-0.1785312,-0.4249318,1.539194,0.2873442,-0.3615032,1.500728,0.07566573,0.4284483,1.617378,-0.2267751,-0.4162238,1.549639,0.2296696,-0.3345253,1.510707,0.05934072,-0.02707385,1.618743,0.0538711,-0.339842,1.601167,-0.1106896,0.1569864,1.58963,-0.02729829,-0.3308315,1.567814,-0.1716003,-0.1186017,1.612794,0.3109656,-0.09706199,1.625821,NA,NA,NotTracked,NotTracked,
0.9375,-0.2050781,0.06542969,0.9296875,0.5883789,0.2207031,-1,0,-2,-2,-3,-3,3,2,-1,-2,-1,0,-2,-3,-1,1,-4.4375,-4.4375,-4.4375,-42.625,-42.625,-42.625,3.151253,2.852395,5.638649,6.875832,3.343586,5.03896,-0.1760612,-0.424823,1.536288,0.2840671,-0.374141,1.516717,0.0756069,0.428467,1.617227,-0.2253349,-0.4195507,1.54715,0.2282757,-0.3688237,1.51,0.0594117,-0.02709802,1.618591,0.05396175,-0.3398903,1.601153,-0.1108152,0.1570971,1.589483,-0.02718475,-0.3309208,1.567695,-0.171488,-0.1191587,1.612912,0.3094942,-0.1016524,1.628527,NA,NA,NotTracked,NotTracked,
0.9375,-0.2050781,0.06542969,0.9296875,0.5883789,0.2207031,-1,0,-2,-2,-3,-3,3,2,-3,0,0,-1,0,-1,1,2,-4.4375,-4.4375,-4.4375,-42.625,-42.625,-42.625,3.151253,2.852395,5.638649,6.875832,3.343586,5.03896,-0.1730007,-0.4241528,1.535083,0.2824617,-0.3883187,1.52912,0.07558046,0.4285203,1.617188,-0.2237822,-0.4169033,1.546912,0.2276036,-0.3604151,1.50949,0.05943412,-0.02706687,1.618488,0.05410086,-0.3399021,1.601115,-0.1108157,0.1571533,1.589385,-0.02703728,-0.3309312,1.567582,-0.1714114,-0.1192873,1.613123,0.3072284,-0.107534,1.630881,NA,NA,NotTracked,NotTracked,
0.9375,-0.2050781,0.06542969,1.071777,0.2905273,0.1884766,-1,0,-2,-2,-3,-3,3,2,-2,0,0,1,0,2,2,0,-4.4375,-4.4375,-4.4375,-4.6875,-4.6875,-4.6875,3.151253,2.852395,5.638649,6.928889,3.132357,4.902786,-0.1682011,-0.4243254,1.531672,0.2827643,-0.3963953,1.540422,0.07558092,0.4285519,1.6172,-0.220558,-0.4136559,1.543599,0.2266746,-0.3842514,1.512725,0.0595193,-0.02703418,1.618429,0.05447223,-0.3398176,1.601027,-0.1108252,0.1572195,1.58929,-0.02658939,-0.330857,1.567267,-0.1712254,-0.1196381,1.613106,0.3057818,-0.110574,1.632835,NA,NA,NotTracked,NotTracked,
0.9375,-0.2050781,0.06542969,1.061523,0.3876953,0.1420898,-1,0,-2,-2,-3,-3,3,2,-2,-4,-1,-5,0,-4,0,-4,-4.4375,-4.4375,-4.4375,2.0625,2.0625,2.0625,3.151253,2.852395,5.638649,6.977574,3.073391,4.853237,-0.1669143,-0.4238784,1.52807,0.2839478,-0.4016854,1.547898,0.07558429,0.4285715,1.617209,-0.2226985,-0.4157959,1.545655,0.2261826,-0.3995414,1.511565,0.05961087,-0.02699834,1.618406,0.05482715,-0.3397629,1.600989,-0.1107972,0.1572669,1.589207,-0.02618769,-0.3308275,1.567007,-0.1709719,-0.1197316,1.612836,0.3041507,-0.1136936,1.634827,NA,NA,NotTracked,NotTracked,
0.9375,-0.2050781,0.06542969,0.9921875,0.3657227,0.07275391,-1,0,-2,-2,-3,-3,3,2,-3,3,-2,1,-2,0,-2,-4,-4.4375,-4.4375,-4.4375,-6,-6,-6,3.151253,2.852395,5.638649,6.975429,3.046614,4.851513,-0.1633492,-0.4238689,1.523937,0.2843764,-0.4077437,1.553777,0.07561537,0.4285992,1.61729,-0.2178828,-0.4167853,1.540353,0.2269187,-0.4098917,1.514158,0.05990364,-0.02696548,1.618354,0.05525606,-0.3397244,1.600915,-0.1107904,0.1572743,1.589191,-0.02563827,-0.3308089,1.566562,-0.1704837,-0.1201381,1.612196,0.3030384,-0.115622,1.6362,NA,NA,NotTracked,NotTracked,
0.9375,-0.2050781,0.06542969,0.9311523,0.3964844,0.09619141,-1,0,-2,-2,-3,-3,3,2,0,-7,-1,-2,-1,-8,3,6,-4.4375,-4.4375,-4.4375,10.375,10.375,10.375,3.151253,2.852395,5.638649,6.976271,3.03877,4.863769,-0.1601311,-0.4221332,1.514853,0.283824,-0.4098164,1.557167,0.07572727,0.4286762,1.617463,-0.2164338,-0.4228435,1.527067,0.230184,-0.3927189,1.521079,0.06047968,-0.02707307,1.618186,0.05640948,-0.340004,1.600551,-0.1108804,0.1571855,1.589573,-0.02454278,-0.3312024,1.565976,-0.1693926,-0.1201674,1.610785,0.3016284,-0.1181757,1.638824,NA,NA,NotTracked,NotTracked,
0.9375,-0.2050781,0.06542969,0.8955078,0.3867188,0.1279297,-1,0,-2,-2,-3,-3,3,2,1,0,2,-1,1,12,-1,2,-4.4375,-4.4375,-4.4375,2.625,2.625,2.625,3.151253,2.852395,5.638649,6.969572,3.050647,4.877389,-0.1584399,-0.4203233,1.509182,0.2825624,-0.4095545,1.553608,0.07579587,0.4286261,1.617471,-0.2143485,-0.4142572,1.5258,0.2309419,-0.3869629,1.518917,0.06077508,-0.02707571,1.617936,0.05713919,-0.340104,1.599978,-0.1108732,0.1571914,1.589376,-0.02367835,-0.3313117,1.564982,-0.168639,-0.1202054,1.608826,0.3014022,-0.1186713,1.639304,NA,NA,NotTracked,NotTracked,
0.9375,-0.2050781,0.06542969,0.8999023,0.3505859,0.1816406,-1,0,-2,-2,-3,-3,3,2,-2,-1,-2,-1,-3,4,3,0,-4.4375,-4.4375,-4.4375,-4.875,-4.875,-4.875,3.151253,2.852395,5.638649,6.941195,3.070493,4.902405,-0.1571212,-0.419396,1.508922,0.2815103,-0.409402,1.551779,0.0758427,0.428629,1.617492,-0.2100484,-0.4282741,1.50765,0.2288073,-0.3964044,1.516503,0.06094277,-0.02706623,1.617812,0.05751875,-0.3401524,1.599766,-0.1109027,0.1571897,1.589295,-0.02331311,-0.331399,1.56465,-0.1681859,-0.1197745,1.6078,0.3012588,-0.1188632,1.63976,NA,NA,NotTracked,NotTracked,
0.9375,-0.2050781,0.06542969,0.8857422,0.2993164,0.1933594,-1,0,-2,-2,-3,-3,3,2,0,1,1,-3,-3,-8,0,5,-4.4375,-4.4375,-4.4375,-2.5,-2.5,-2.5,3.151253,2.852395,5.638649,6.904393,3.090131,4.934342,-0.156215,-0.4195528,1.506777,0.2800301,-0.4091645,1.548551,0.0759231,0.4286377,1.617518,-0.2131105,-0.4215681,1.518143,0.2289724,-0.3987009,1.515938,0.06105847,-0.02708828,1.617676,0.05768183,-0.3402492,1.599534,-0.1108269,0.1571572,1.588991,-0.02313022,-0.3315349,1.564222,-0.1678714,-0.119971,1.606869,0.3011723,-0.1189228,1.640101,NA,NA,NotTracked,NotTracked,
0.9375,-0.2050781,0.06542969,0.8847656,0.2822266,0.206543,-1,0,-2,-2,-3,-3,3,2,0,1,0,0,0,6,2,2,-4.4375,-4.4375,-4.4375,3.9375,3.9375,3.9375,3.151253,2.852395,5.638649,6.890101,3.097691,4.950618,-0.1558907,-0.4199519,1.505946,0.2789716,-0.40767,1.545614,0.07602218,0.4286529,1.61757,-0.2127125,-0.4231234,1.516536,0.2284809,-0.3949287,1.514006,0.06116746,-0.0271156,1.617589,0.05788472,-0.3403052,1.59932,-0.1108035,0.1571234,1.588855,-0.02294159,-0.3316225,1.563863,-0.1673699,-0.1196578,1.605856,0.3011162,-0.1188681,1.640266,NA,NA,NotTracked,NotTracked,
0.9375,-0.2050781,0.06542969,0.8911133,0.3276367,0.1665039,-1,0,-2,-2,-3,-3,3,2,3,4,-2,-2,-1,-10,-5,1,-4.4375,-4.4375,-4.4375,5.75,5.75,5.75,3.151253,2.852395,5.638649,6.883701,3.112821,4.963705,-0.1564017,-0.4196001,1.505851,0.278292,-0.4074365,1.542505,0.07613319,0.4287123,1.617729,-0.2136615,-0.4250078,1.518436,0.226031,-0.4144332,1.511,0.06133145,-0.02704189,1.617491,0.05821081,-0.3401811,1.599092,-0.1107245,0.1571348,1.588613,-0.02252937,-0.3314268,1.563241,-0.1671247,-0.1194911,1.605358,0.3010708,-0.1188693,1.64052,NA,NA,NotTracked,NotTracked,
0.9375,-0.2050781,0.06542969,0.8999023,0.3325195,0.1523438,-1,0,-2,-2,-3,-3,3,2,1,-3,-3,1,-1,-13,-4,-2,-4.4375,-4.4375,-4.4375,-3.8125,-3.8125,-3.8125,3.151253,2.852395,5.638649,6.878262,3.125952,4.967482,-0.1572491,-0.4198841,1.505901,0.2759423,-0.4066211,1.536301,0.07641671,0.4288045,1.618019,-0.2121714,-0.406815,1.515625,0.2276493,-0.3811225,1.512193,0.06139331,-0.02702779,1.617476,0.05840167,-0.3402315,1.598961,-0.1106096,0.1571063,1.588465,-0.02239848,-0.3314731,1.563093,-0.1668755,-0.119292,1.604361,0.300792,-0.118968,1.640669,NA,NA,NotTracked,NotTracked,
0.9375,-0.2050781,0.06542969,0.9228516,0.2963867,0.1557617,-1,0,-2,-2,-3,-3,3,2,1,0,-3,0,4,7,4,2,-4.4375,-4.4375,-4.4375,-5.875,-5.875,-5.875,3.151253,2.852395,5.638649,6.861258,3.134148,4.977358,-0.1573917,-0.4204664,1.507156,0.2746839,-0.4059834,1.534377,0.07659326,0.4288723,1.618382,-0.2120649,-0.4175216,1.513018,0.2236272,-0.4008865,1.507258,0.06152816,-0.02708674,1.617542,0.05853531,-0.3403083,1.598968,-0.1106199,0.1570991,1.588464,-0.02229635,-0.3315713,1.563094,-0.1667431,-0.1192274,1.604128,0.3006819,-0.1190092,1.640679,NA,NA,NotTracked,NotTracked,
0.9375,-0.2050781,0.06542969,0.9228516,0.2963867,0.1557617,-1,0,-2,-2,-3,-3,3,2,1,0,-2,0,-1,-5,-2,-2,-4.4375,-4.4375,-4.4375,-5.875,-5.875,-5.875,3.151253,2.852395,5.638649,6.861258,3.134148,4.977358,-0.157277,-0.4204829,1.507398,0.2732596,-0.4069999,1.531418,0.07671086,0.4288591,1.618555,-0.2107771,-0.4178378,1.511655,0.2255365,-0.3750397,1.508419,0.06165626,-0.0270913,1.617563,0.05882144,-0.3404101,1.598944,-0.1106075,0.1570712,1.588433,-0.02205533,-0.331691,1.563026,-0.1665424,-0.1193203,1.603615,0.3004653,-0.1190905,1.640626,NA,NA,NotTracked,NotTracked,
0.9375,-0.2050781,0.06542969,0.9174805,0.3115234,0.1538086,-1,0,-2,-2,-3,-3,3,2,2,2,-1,-4,-2,2,-3,0,-4.4375,-4.4375,-4.4375,6.25,6.25,6.25,3.151253,2.852395,5.638649,6.842566,3.140508,5.001719,-0.157595,-0.4210441,1.508933,0.2715153,-0.4070597,1.529433,0.07683535,0.4288386,1.618714,-0.2115649,-0.4188586,1.513376,0.2219206,-0.3941435,1.5037,0.06173228,-0.02713048,1.617577,0.05892079,-0.3404521,1.598928,-0.1106072,0.157071,1.588433,-0.0220021,-0.331735,1.562991,-0.166455,-0.1194986,1.603521,0.3002503,-0.119194,1.640503,NA,NA,NotTracked,NotTracked,
0.9375,-0.2050781,0.06542969,0.9106445,0.3291016,0.1611328,-1,0,-2,-2,-3,-3,3,2,-4,2,2,3,-2,4,1,-1,-4.4375,-4.4375,-4.4375,4.1875,4.1875,4.1875,3.151253,2.852395,5.638649,6.83145,3.142493,5.020163,-0.1571493,-0.4213254,1.510049,0.2697366,-0.4061986,1.527854,0.07698569,0.428819,1.618867,-0.2123439,-0.419117,1.515474,0.2208717,-0.3848759,1.503659,0.06182517,-0.02716365,1.617552,0.0591976,-0.3405754,1.598836,-0.110592,0.1570332,1.588401,-0.02172237,-0.3319149,1.562806,-0.1663367,-0.1196753,1.603353,0.2999022,-0.1192889,1.640151,NA,NA,NotTracked,NotTracked,
0.9375,-0.2050781,0.06542969,0.8979492,0.3271484,0.1586914,-1,0,-2,-2,-3,-3,3,2,-4,2,0,0,-1,2,0,2,-4.4375,-4.4375,-4.4375,0.875,0.875,0.875,3.151253,2.852395,5.638649,6.818245,3.142637,5.035961,-0.1578245,-0.4210742,1.511922,0.2688476,-0.4056748,1.527939,0.07706873,0.4288566,1.619031,-0.2125039,-0.4180555,1.516065,0.2207522,-0.3878943,1.503663,0.06187069,-0.02716853,1.617571,0.05929599,-0.3406258,1.598847,-0.1105379,0.1569794,1.588401,-0.02164621,-0.3319956,1.5628,-0.1661515,-0.1198287,1.603271,0.2994662,-0.119411,1.639933,NA,NA,NotTracked,NotTracked,
0.9375,-0.2050781,0.06542969,0.8852539,0.3188477,0.1552734,-1,0,-2,-2,-3,-3,3,2,-3,0,-3,0,1,0,-1,-4,-4.4375,-4.4375,-4.4375,-0.375,-0.375,-0.375,3.151253,2.852395,5.638649,6.810193,3.140961,5.044301,-0.157822,-0.4212591,1.514747,0.268854,-0.4064684,1.528868,0.07719517,0.4288819,1.619115,-0.2124416,-0.4184121,1.517192,0.2181649,-0.3996151,1.499077,0.06191758,-0.02715108,1.617636,0.059407,-0.3406314,1.598912,-0.1104633,0.1569432,1.588499,-0.02154819,-0.3319938,1.562862,-0.1661026,-0.11984,1.603301,0.2992717,-0.1193063,1.639791,NA,NA,NotTracked,NotTracked,
0.9375,-0.2050781,0.06542969,0.8959961,0.3188477,0.1645508,-1,0,-2,-2,-3,-3,3,2,2,-2,0,-1,-3,4,0,-1,-4.4375,-4.4375,-4.4375,1.8125,1.8125,1.8125,3.151253,2.852395,5.638649,6.8086,3.13933,5.046756,-0.157547,-0.4222489,1.516471,0.2685491,-0.4071372,1.529381,0.07732213,0.4290751,1.619635,-0.2102083,-0.4391097,1.514125,0.2168751,-0.4002639,1.501036,0.06204227,-0.02715764,1.617793,0.0595214,-0.3406523,1.599037,-0.1104546,0.1569688,1.58866,-0.02146591,-0.3320292,1.562951,-0.1660218,-0.119945,1.603406,0.2991783,-0.1193479,1.639751,NA,NA,NotTracked,NotTracked,
0.9375,-0.2050781,0.06542969,0.9125977,0.3461914,0.1586914,-1,0,-2,-2,-3,-3,3,2,-1,1,-3,-2,-2,-3,0,-2,-4.4375,-4.4375,-4.4375,1.125,1.125,1.125,3.151253,2.852395,5.638649,6.814178,3.13519,5.043001,-0.157257,-0.4213593,1.516419,0.2682132,-0.4066837,1.528222,0.07744575,0.4291571,1.619791,-0.2122946,-0.4192178,1.523792,0.2196219,-0.3931093,1.502255,0.06224763,-0.02718406,1.617883,0.0596185,-0.3406607,1.599087,-0.1104526,0.1569714,1.588671,-0.02140042,-0.3320418,1.56296,-0.1659859,-0.1201123,1.603514,0.2987179,-0.1193118,1.639336,NA,NA,NotTracked,NotTracked,
0.9375,-0.2050781,0.06542969,0.9121094,0.3393555,0.1557617,-1,0,-2,-2,-3,-3,3,2,-1,2,1,-3,0,7,6,2,-4.4375,-4.4375,-4.4375,-3.75,-3.75,-3.75,3.151253,2.852395,5.638649,6.816989,3.131131,5.03669,-0.1564634,-0.421304,1.517557,0.2687435,-0.4067918,1.52818,0.0775384,0.4292369,1.619887,-0.2111326,-0.4130861,1.523258,0.2195931,-0.3938551,1.501596,0.06233821,-0.02724987,1.617935,0.05978328,-0.3407789,1.599122,-0.1104212,0.1569116,1.588746,-0.02124684,-0.3321958,1.563009,-0.1659305,-0.1200824,1.603537,0.2985485,-0.1193693,1.639172,NA,NA,NotTracked,NotTracked,
0.9375,-0.2050781,0.06542969,0.9077148,0.3339844,0.1591797,-1,0,-2,-2,-3,-3,3,2,0,0,-3,-11,3,1,-1,0,-4.4375,-4.4375,-4.4375,-4.625,-4.625,-4.625,3.151253,2.852395,5.638649,6.821254,3.127352,5.026803,-0.1563395,-0.4221541,1.517704,0.2691059,-0.4072819,1.528501,0.07756675,0.4292391,1.619904,-0.2116399,-0.418983,1.522001,0.2196665,-0.390244,1.50211,0.06237886,-0.02728217,1.61798,0.05976709,-0.3408066,1.59915,-0.1104072,0.1569067,1.588799,-0.02128317,-0.3322271,1.56307,-0.1658915,-0.1200631,1.603675,0.2983394,-0.119629,1.639072,NA,NA,NotTracked,NotTracked,
0.9375,-0.2050781,0.06542969,0.9077148,0.3325195,0.1572266,-1,0,-2,-2,-3,-3,3,2,-1,1,-4,4,0,-6,-1,0,-4.4375,-4.4375,-4.4375,-4.3125,-4.3125,-4.3125,3.151253,2.852395,5.638649,6.824096,3.125758,5.02098,-0.1562009,-0.4226841,1.518567,0.2693648,-0.4078533,1.528947,0.0776027,0.4292052,1.619971,-0.2111628,-0.4218109,1.519228,0.2191082,-0.3955449,1.502089,0.0624383,-0.02734235,1.618076,0.05980549,-0.3408389,1.599206,-0.1103881,0.1568789,1.588854,-0.02125557,-0.3322655,1.563131,-0.1658308,-0.1201901,1.603831,0.2982531,-0.1197726,1.638935,NA,NA,NotTracked,NotTracked,
0.9375,-0.2050781,0.06542969,0.9077148,0.3325195,0.1572266,-1,0,-2,-2,-3,-3,3,2,-1,1,-4,4,0,-6,-1,0,-4.4375,-4.4375,-4.4375,-4.3125,-4.3125,-4.3125,3.151253,2.852395,5.638649,6.824096,3.125758,5.02098,-0.1564769,-0.4218863,1.518998,0.2704751,-0.4081609,1.529558,0.07768414,0.4291857,1.620046,-0.2119905,-0.4206862,1.52352,0.2192281,-0.3957898,1.501464,0.06260176,-0.02734249,1.618153,0.06006695,-0.340864,1.599232,-0.1103397,0.1567753,1.589113,-0.0210553,-0.3323066,1.563129,-0.1656948,-0.1201307,1.604213,0.2981208,-0.1200512,1.638672,NA,NA,NotTracked,NotTracked,
0.9375,-0.2050781,0.06542969,0.9150391,0.3188477,0.1660156,-1,0,-2,-2,-3,-3,3,2,-3,-3,1,2,-2,-4,0,2,-4.4375,-4.4375,-4.4375,-0.75,-0.75,-0.75,3.151253,2.852395,5.638649,6.828637,3.121366,5.012759,-0.1561544,-0.4219102,1.518854,0.2708621,-0.4088733,1.529785,0.07779139,0.4292366,1.620249,-0.2113137,-0.4187862,1.523415,0.2179532,-0.4012433,1.500097,0.06267386,-0.02734091,1.618197,0.06024177,-0.3408333,1.599235,-0.1102815,0.1567935,1.589224,-0.02086367,-0.3322602,1.563082,-0.1655225,-0.1203917,1.604592,0.2979063,-0.1205066,1.638499,NA,NA,NotTracked,NotTracked,
0.9375,-0.2050781,0.06542969,0.9121094,0.3417969,0.1606445,-1,0,-2,-2,-3,-3,3,2,-2,-3,-1,-1,1,1,-2,-2,-4.4375,-4.4375,-4.4375,4.5,4.5,4.5,3.151253,2.852395,5.638649,6.840374,3.115639,5.005781,-0.1563609,-0.4224067,1.519727,0.270858,-0.409284,1.529726,0.07786959,0.4292301,1.620474,-0.2114622,-0.4281422,1.523556,0.2181733,-0.3962112,1.50098,0.06273092,-0.02731576,1.618292,0.06034388,-0.340824,1.599282,-0.1102211,0.1567413,1.589427,-0.02076451,-0.3322598,1.563051,-0.1654648,-0.1202975,1.604744,0.2978462,-0.120656,1.638328,NA,NA,NotTracked,NotTracked,
0.9375,-0.2050781,0.06542969,0.9145508,0.3417969,0.1660156,-1,0,-2,-2,-3,-3,3,2,-1,2,-1,-2,-1,-3,1,-4,-4.4375,-4.4375,-4.4375,0.125,0.125,0.125,3.151253,2.852395,5.638649,6.841509,3.115515,5.004051,-0.1566282,-0.4226697,1.520383,0.2724612,-0.4103845,1.531179,0.07793053,0.4293437,1.620817,-0.2112714,-0.4125049,1.525412,0.2170834,-0.4233626,1.501905,0.06286082,-0.02731382,1.61847,0.06042507,-0.3407573,1.59936,-0.1101613,0.1568347,1.58974,-0.02068325,-0.3322029,1.563068,-0.1652871,-0.1202429,1.605147,0.2978428,-0.120739,1.638313,NA,NA,NotTracked,NotTracked,
0.9375,-0.2050781,0.06542969,0.9155273,0.3222656,0.1655273,-1,0,-2,-2,-3,-3,3,2,-1,-1,-1,0,1,5,8,-2,-4.4375,-4.4375,-4.4375,-2,-2,-2,3.151253,2.852395,5.638649,6.841953,3.114815,5.000531,-0.1560816,-0.424303,1.520278,0.2720306,-0.4124507,1.531191,0.07800917,0.4295012,1.621196,-0.210586,-0.4183123,1.522372,0.2180823,-0.4014249,1.501543,0.06291388,-0.0273378,1.618654,0.06042919,-0.3407862,1.599406,-0.1100696,0.15674,1.590016,-0.02068395,-0.3322255,1.563087,-0.1651846,-0.1203406,1.605475,0.2978354,-0.1207591,1.638327,NA,NA,NotTracked,NotTracked,
0.9375,-0.2050781,0.06542969,0.9155273,0.3222656,0.1655273,-1,0,-2,-2,-3,-3,3,2,0,1,-1,0,-1,-4,-3,2,-4.4375,-4.4375,-4.4375,-2,-2,-2,3.151253,2.852395,5.638649,6.841953,3.114815,5.000531,-0.1561056,-0.4241182,1.517536,0.2715778,-0.4124228,1.528363,0.07806337,0.4295029,1.621276,-0.2108715,-0.418902,1.521011,0.2181096,-0.4016965,1.500847,0.06292513,-0.02732986,1.618666,0.06047527,-0.3407544,1.599404,-0.1100312,0.1567183,1.590063,-0.02060771,-0.3321537,1.563033,-0.1651593,-0.1204752,1.605508,0.2977161,-0.1210275,1.638025,NA,NA,NotTracked,NotTracked,
0.9375,-0.2050781,0.06542969,0.9140625,0.331543,0.1586914,-1,0,-2,-2,-3,-3,3,2,3,-2,0,-3,-3,1,0,3,-4.4375,-4.4375,-4.4375,-2.875,-2.875,-2.875,3.151253,2.852395,5.638649,6.839961,3.117088,4.997905,-0.1561859,-0.424501,1.518181,0.2724659,-0.4129322,1.529955,0.07810217,0.4294531,1.621354,-0.2106773,-0.4185269,1.521253,0.2183365,-0.4048642,1.500736,0.06299823,-0.0272895,1.618755,0.06049508,-0.3407292,1.599415,-0.1099495,0.1566681,1.590287,-0.02057982,-0.3321212,1.563015,-0.1651972,-0.1203758,1.605925,0.2976725,-0.1210792,1.638022,NA,NA,NotTracked,NotTracked,
0.9375,-0.2050781,0.06542969,0.9116211,0.3305664,0.1640625,-1,0,-2,-2,-3,-3,3,2,1,-3,1,-2,1,-3,-1,-3,-4.4375,-4.4375,-4.4375,-0.25,-0.25,-0.25,3.151253,2.852395,5.638649,6.835157,3.119374,5.001485,-0.1561789,-0.4240865,1.516735,0.2725225,-0.4133077,1.528595,0.07811389,0.4294451,1.621367,-0.2111397,-0.4201635,1.521798,0.2182989,-0.4067097,1.50135,0.06299793,-0.02731015,1.618755,0.0605083,-0.3407954,1.599372,-0.1100056,0.1566423,1.590383,-0.02057665,-0.3321604,1.562993,-0.1651561,-0.1205256,1.605935,0.2976228,-0.1212614,1.637792,NA,NA,NotTracked,NotTracked,
