ALX,ALY,ALZ,ARX,ARY,ARZ,EMG0L,EMG1L,EMG2L,EMG3L,EMG4L,EMG5L,EMG6L,EMG7L,EMG0R,EMG1R,EMG2R,EMG3R,EMG4R,EMG5R,EMG6R,EMG7R,GLX,GLY,GLZ,GRX,GRY,GRZ,ORL,OPL,OYL,ORR,OPR,OYR,LHNX,LHNY,LHNZ,RHNX,RHNY,RHNZ,HX,HY,HZ,LTX,LTY,LTZ,RTX,RTY,RTZ,SpineMidX,SpineMidY,SpineMidZ,SpineBaseX,SpineBaseY,SpineBaseZ,ShoulderLeftX,ShoulderLeftY,ShoulderLeftZ,ShoulderRightX,ShoulderRightY,ShoulderRightZ,ElbowLeftX,ElbowLeftY,ElbowLeftZ,ElbowRightX,ElbowRightY,ElbowRightZ,Myo_Pose_left,Myo_Pose_Right,Kinect_pose_left,Kinect_pose_right
0.9648438,-0.2143555,0.1054688,0.871582,0.3964844,0.2001953,-2,-1,-2,1,-2,0,1,0,0,-1,-1,0,0,1,0,1,0,0,0,2.875,2.875,2.875,3.122531,2.884939,6.415661,6.786768,3.24932,6.427114,-0.1524843,-0.4239999,1.539245,0.285072,-0.4259006,1.533734,0.08583903,0.4281579,1.640768,-0.09643517,-0.4096341,1.514466,0.3342251,-0.4268245,1.53225,0.0727499,-0.02765236,1.634961,0.06997005,-0.3396409,1.612397,-0.1017783,0.1558493,1.61258,-0.01097344,-0.3300504,1.573843,-0.1567474,-0.1257828,1.629073,0.3009681,-0.1314716,1.644441,NA,NA,NotTracked,NotTracked,
0.9658203,-0.2143555,0.1088867,0.8730469,0.3979492,0.1992188,-5,-2,-2,-1,0,-2,-1,-1,0,1,-2,0,0,3,1,1,-0.875,-0.875,-0.875,-0.875,-0.875,-0.875,3.119075,2.884514,6.419018,6.785054,3.247416,6.429285,-0.1533051,-0.4243503,1.539035,0.2840693,-0.4255656,1.534689,0.08571618,0.428151,1.640299,-0.0964618,-0.3948565,1.512875,0.3341952,-0.4402546,1.534797,0.07273857,-0.02766674,1.634744,0.06997415,-0.339646,1.612276,-0.1018455,0.1558015,1.612372,-0.01096385,-0.3300759,1.573741,-0.1568877,-0.1258399,1.628986,0.3008752,-0.1314906,1.644241,NA,NA,NotTracked,NotTracked,
0.9638672,-0.2163086,0.1044922,0.8759766,0.4003906,0.190918,1,-1,-1,-1,-2,1,2,11,-2,0,-2,-2,-1,-1,-9,-5,-0.5625,-0.5625,-0.5625,1.9375,1.9375,1.9375,3.118123,2.884666,6.41961,6.783543,3.245336,6.432789,-0.1536025,-0.4243415,1.541196,0.2838651,-0.4258632,1.53624,0.08565956,0.4281657,1.640182,-0.09727168,-0.4036304,1.514904,0.3350153,-0.4350547,1.537377,0.07270119,-0.02767067,1.63458,0.06997903,-0.3396495,1.612162,-0.1018514,0.1558275,1.612242,-0.01096054,-0.3301046,1.573611,-0.156894,-0.126011,1.62874,0.3008436,-0.1314822,1.644214,NA,NA,NotTracked,NotTracked,
0.9619141,-0.2158203,0.08984375,0.8740234,0.3984375,0.1972656,-6,0,0,1,-1,-1,2,6,-2,-1,-1,0,0,0,-1,-1,-0.25,-0.25,-0.25,0.75,0.75,0.75,3.114935,2.883453,6.422024,6.783552,3.245216,6.434507,-0.1543161,-0.4239992,1.540713,0.2837972,-0.4261554,1.536747,0.08566816,0.4281915,1.640129,-0.09799993,-0.378825,1.515656,0.3358894,-0.4279109,1.542496,0.07265031,-0.02768491,1.634487,0.06995697,-0.3396611,1.612136,-0.1019353,0.1558364,1.612145,-0.01098438,-0.3301189,1.573588,-0.1569373,-0.1261732,1.628683,0.3008496,-0.1314656,1.64422,NA,NA,NotTracked,NotTracked,
0.96875,-0.215332,0.09912109,0.8691406,0.4003906,0.190918,1,-1,-2,0,-1,-2,-1,-2,0,1,-1,0,0,-2,-4,-1,-1.8125,-1.8125,-1.8125,1.9375,1.9375,1.9375,3.109391,2.882285,6.424966,6.783989,3.245227,6.437357,-0.1548318,-0.4239205,1.5412,0.2831152,-0.426019,1.536748,0.08560412,0.4282225,1.639941,-0.09747983,-0.3996326,1.514885,0.3339497,-0.4267584,1.53759,0.07262982,-0.02768626,1.634464,0.06994401,-0.3396729,1.612111,-0.1019346,0.1558616,1.61207,-0.0109976,-0.3301356,1.573552,-0.1570529,-0.1262572,1.62868,0.3008465,-0.1312789,1.644249,NA,NA,NotTracked,NotTracked,
0.9697266,-0.2075195,0.09521484,0.8798828,0.3974609,0.1875,4,0,0,0,0,2,3,20,1,-1,1,0,0,-2,-1,2,-0.4375,-0.4375,-0.4375,0.625,0.625,0.625,3.104071,2.882057,6.43032,6.784555,3.245164,6.437916,-0.15506,-0.4235932,1.541765,0.2828842,-0.4264628,1.537365,0.08559828,0.4282166,1.639917,-0.09723372,-0.4203959,1.514577,0.3302394,-0.4232294,1.532714,0.07262968,-0.02771276,1.634447,0.06998952,-0.3396831,1.612112,-0.1019588,0.1558246,1.612026,-0.01094548,-0.3301494,1.573533,-0.1571102,-0.1262766,1.628672,0.3007761,-0.1312416,1.644282,NA,NA,NotTracked,NotTracked,
0.9672852,-0.2099609,0.09326172,0.8686523,0.3969727,0.1928711,7,2,-1,0,-1,2,4,37,1,0,-1,-1,-1,-2,-2,0,-0.9375,-0.9375,-0.9375,0.6875,0.6875,0.6875,3.096776,2.880614,6.436213,6.784731,3.245398,6.438854,-0.1551591,-0.4235197,1.542583,0.2827905,-0.4256637,1.537095,0.0855858,0.4282416,1.639935,-0.09743156,-0.4249219,1.516636,0.3339465,-0.4291421,1.536608,0.07256296,-0.02773304,1.634446,0.06993469,-0.3397242,1.612084,-0.1020043,0.1558365,1.611989,-0.01101148,-0.3301902,1.5735,-0.1572492,-0.1264068,1.628788,0.3007258,-0.1311985,1.644349,NA,NA,NotTracked,NotTracked,
0.9682617,-0.2138672,0.07470703,0.8803711,0.3891602,0.1811523,-2,19,-7,-11,-7,-4,-3,-12,2,2,0,-1,0,-5,2,18,-4.0625,-4.0625,-4.0625,6.625,6.625,6.625,3.077482,2.875845,6.451175,6.784738,3.242185,6.445087,-0.1557789,-0.4241944,1.543509,0.2832456,-0.4259025,1.539415,0.08559302,0.4282398,1.639959,-0.09761375,-0.4112972,1.515386,0.3339238,-0.4282199,1.538245,0.07256027,-0.02772317,1.634513,0.06997463,-0.3396795,1.612211,-0.1020228,0.1558427,1.612022,-0.01096824,-0.3301546,1.573636,-0.1573378,-0.1264661,1.628839,0.3006853,-0.1311319,1.644683,NA,NA,NotTracked,NotTracked,
1.059082,-0.309082,-0.05859375,0.9946289,0.4443359,0.1508789,-2,-6,-5,-2,-3,-9,-18,7,-3,-10,-43,-6,-2,-6,-1,-4,-30.6875,-30.6875,-30.6875,15.3125,15.3125,15.3125,3.081263,2.891759,6.416961,6.78546,3.240754,6.469127,-0.1559884,-0.4234807,1.545268,0.2801546,-0.4257894,1.539801,0.08558072,0.4282152,1.64006,-0.09863272,-0.4135374,1.517489,0.3299788,-0.4261598,1.540715,0.07254383,-0.02771198,1.634553,0.06998828,-0.3396451,1.612265,-0.1020854,0.1558857,1.612125,-0.01095718,-0.3301422,1.57366,-0.1575397,-0.1263624,1.629091,0.3007659,-0.1305848,1.645302,NA,NA,NotTracked,NotTracked,
1.149414,-0.4824219,0.3115234,1.084473,0.7558594,0.1708984,-19,-26,-19,9,24,3,0,-5,2,-29,5,-5,7,11,0,9,-67.375,-67.375,-67.375,-53.8125,-53.8125,-53.8125,3.292288,3.008392,6.126684,6.702724,3.311277,6.517315,-0.146619,-0.4155901,1.535996,0.2674925,-0.4057339,1.525881,0.08557597,0.4281948,1.640256,-0.09698702,-0.3915631,1.516489,0.313255,-0.4266216,1.526,0.07248366,-0.02763189,1.634708,0.06988911,-0.33949,1.6123,-0.1021841,0.1559953,1.612354,-0.01108003,-0.3299505,1.57364,-0.1586239,-0.1241681,1.630826,0.3020316,-0.1278336,1.647869,NA,NA,NotTracked,NotTracked,
0.7949219,-1.098145,0.5073242,0.8950195,1.282715,0.5166016,11,-11,-2,-10,32,4,23,11,0,17,-9,15,0,-9,-19,-10,-150.1875,-150.1875,-150.1875,133.625,133.625,133.625,3.362021,3.38328,5.6885,6.627627,3.605228,6.813877,-0.1150612,-0.3702998,1.486743,0.2355678,-0.3306117,1.481991,0.08553055,0.4282394,1.640459,-0.07645164,-0.3705562,1.435131,0.2807557,-0.298257,1.449823,0.07212331,-0.02717585,1.63473,0.06920125,-0.3388967,1.611987,-0.1022972,0.1563041,1.612596,-0.01200273,-0.3291661,1.573317,-0.1633309,-0.115854,1.62863,0.3080046,-0.1056745,1.645362,NA,NA,NotTracked,Unknown,
0.6503906,-0.8598633,0.6191406,0.4311523,1.09375,0.7216797,13,12,0,1,12,8,0,4,-5,-19,37,-23,-38,-14,-11,-9,-91.9375,-91.9375,-91.9375,82.25,82.25,82.25,3.360334,3.820472,5.472019,6.618762,4.074005,7.057562,-0.05766561,-0.2936717,1.430587,0.1820141,-0.2036813,1.434618,0.08551152,0.428162,1.640979,-0.04249357,-0.2573436,1.363639,0.2041339,-0.1843715,1.385191,0.0721971,-0.0267647,1.635155,0.06946544,-0.3382399,1.611721,-0.1022639,0.1567497,1.61271,-0.01190291,-0.3290549,1.573291,-0.184671,-0.06986186,1.613605,0.3324055,-0.06030539,1.626401,NA,NA,Unknown,Open,
0.6171875,-0.7270508,0.625,-0.0703125,0.9750977,0.7080078,6,-4,0,-1,17,1,6,6,4,3,-68,-16,21,10,8,19,-148.125,-148.125,-148.125,118.8125,118.8125,118.8125,3.24839,4.217586,5.301116,6.756944,4.868842,7.308922,-0.03120014,-0.1809992,1.338503,0.1296192,-0.03886523,1.386077,0.08557638,0.4279611,1.642794,0.02310692,-0.148297,1.406333,0.1476048,-0.03331739,1.342182,0.07206842,-0.02502155,1.639705,0.06957487,-0.3352777,1.614973,-0.1013886,0.1597733,1.612912,-0.0108676,-0.3260616,1.577488,-0.192483,-0.04221041,1.574198,0.3555459,-0.03902429,1.555662,NA,NA,Unknown,Unknown,
0.5234375,-0.6020508,0.4921875,-0.1455078,0.7563477,0.7475586,1,7,-2,4,5,0,-13,-9,3,37,21,9,5,0,-1,2,-106.5,-106.5,-106.5,125.3125,125.3125,125.3125,3.043051,4.615479,5.116476,6.978755,5.457772,7.473055,0.02912887,-0.08602142,1.292976,0.1246015,0.1178986,1.381643,0.08597133,0.4271317,1.646834,0.03696538,-0.0182737,1.282143,0.1614735,0.1021345,1.34,0.07266141,-0.02271486,1.645409,0.06857824,-0.3328779,1.619454,-0.09882594,0.1636373,1.612409,-0.01150906,-0.3239428,1.580959,-0.2022079,-0.01944828,1.523553,0.3343345,-0.007323514,1.482797,NA,NA,Unknown,Unknown,
0.3339844,-0.5981445,0.3569336,-0.02929688,0.5761719,0.4287109,-1,-9,-1,1,-3,-1,1,1,-2,-5,-8,-3,-7,1,-1,-1,-82.3125,-82.3125,-82.3125,81,81,81,2.922137,4.823495,4.983234,7.200196,5.964807,7.629803,0.06140363,-0.002715623,1.285288,0.1411409,0.2278796,1.398367,0.08379479,0.4317958,1.652126,0.06491426,0.06713909,1.2725,0.1035294,0.2116815,1.366691,0.07333247,-0.02052517,1.645921,0.06724068,-0.3336401,1.621802,-0.09666476,0.1656599,1.611402,-0.01414742,-0.3243216,1.587588,-0.1990066,-0.002532085,1.492525,0.3261896,0.03392061,1.434308,NA,NA,Unknown,Unknown,
0.222168,-0.7104492,0.284668,0.07128906,0.3969727,0.2524414,-4,-7,-6,-6,-19,-17,22,9,-1,1,-5,0,2,7,3,2,-48.125,-48.125,-48.125,-7.875,-7.875,-7.875,2.843398,4.941782,4.859454,7.344864,6.292908,7.820175,0.08513895,0.05349531,1.29203,0.1500631,0.2707716,1.414786,0.08243326,0.4356608,1.653229,0.06923174,0.11478,1.286267,0.0958014,0.2715074,1.401762,0.0743023,-0.01842001,1.647405,0.06548122,-0.3319488,1.62293,-0.09507793,0.1694652,1.610545,-0.01662903,-0.321689,1.590087,-0.1932484,0.01636935,1.4678,0.312879,0.06883673,1.4108,NA,NA,Unknown,Unknown,
0.08007813,-0.9931641,0.2124023,0.1352539,0.4433594,0.02978516,-5,-16,-2,7,10,6,7,7,-5,-5,-2,8,-16,15,10,-6,1.1875,1.1875,1.1875,-61.3125,-61.3125,-61.3125,2.835407,5.107714,4.749865,7.408929,6.294363,7.990284,0.1047269,0.09832709,1.305642,0.1090879,0.2701954,1.428559,0.07882649,0.4389607,1.656353,0.08355895,0.1650846,1.300182,0.09788126,0.2316041,1.435842,0.07450717,-0.01798883,1.647609,0.06380012,-0.3351957,1.623344,-0.09393655,0.1739082,1.610394,-0.02023963,-0.3259434,1.595005,-0.1847676,0.0267119,1.456144,0.3137269,0.06613119,1.411447,NA,NA,Unknown,NotTracked,
0.03369141,-0.9765625,0.2231445,-0.1254883,0.3232422,0.05957031,-6,-8,-2,0,-11,-1,26,13,3,-4,-9,-4,-50,-9,14,34,5.1875,5.1875,5.1875,-27.375,-27.375,-27.375,2.841528,5.286947,4.69743,7.256026,5.77462,7.921444,0.0869844,0.1386049,1.320931,0.09318508,0.1380343,1.32161,0.07917336,0.4360683,1.659402,0.06608699,0.1764327,1.318667,0.06292172,0.09712864,1.302945,0.07397301,-0.01871404,1.647586,0.06373383,-0.3402076,1.62368,-0.09533884,0.1775351,1.610197,-0.02025839,-0.330754,1.595633,-0.1630649,0.03718397,1.434111,0.3271919,0.01352407,1.456303,NA,NA,NotTracked,NotTracked,
-0.237793,-0.8447266,0.152832,-0.378418,1.12207,0.1000977,-10,-5,0,3,1,-1,4,-1,6,1,-6,-7,3,-13,15,38,-13.25,-13.25,-13.25,-17.6875,-17.6875,-17.6875,2.795179,5.395117,4.622988,7.152558,5.138819,7.707312,0.0470443,0.1636609,1.345644,0.09707135,-0.01888399,1.372639,0.07817468,0.4357825,1.660212,0.03658801,0.2185108,1.343692,0.09584293,-0.07141827,1.4225,0.0738349,-0.01905527,1.647324,0.0646007,-0.3448157,1.623257,-0.09790943,0.1816841,1.611145,-0.01937177,-0.3351484,1.595165,-0.173159,0.03693522,1.439417,0.3393434,-0.009870959,1.484883,NA,NA,NotTracked,NotTracked,
-0.3637695,-0.7602539,0.08984375,0.4013672,1.663086,0.6645508,-7,-8,-4,-4,-5,-1,19,12,10,2,-7,-5,-7,4,0,-11,-21.5625,-21.5625,-21.5625,-21.375,-21.375,-21.375,2.740635,5.396889,4.536599,7.097075,4.649207,7.56674,0.08136359,0.1878597,1.371183,0.1302599,-0.09797202,1.365023,0.0774724,0.437359,1.659869,0.04914097,0.2423172,1.3638,0.08265346,-0.08984414,1.418368,0.07406601,-0.01773729,1.646361,0.06473375,-0.3444449,1.622988,-0.09910823,0.1838372,1.611817,-0.01869237,-0.3339125,1.591596,-0.1836015,0.04176758,1.443338,0.351303,-0.02214934,1.51254,NA,NA,Unknown,Unknown,
-0.418457,-0.8564453,0.08789063,0.1333008,1.40918,0.4316406,-4,-6,-3,-1,-1,0,-9,-5,-1,4,-1,4,9,-5,1,11,15.8125,15.8125,15.8125,-63.9375,-63.9375,-63.9375,2.737491,5.363646,4.508784,6.997429,4.580048,7.540861,0.05936674,0.1689939,1.38076,0.1323677,-0.09371844,1.376992,0.07737406,0.4357858,1.660157,0.04695255,0.2285015,1.3755,0.08920841,-0.06259797,1.43775,0.07308901,-0.01916645,1.644866,0.06503576,-0.3442022,1.622708,-0.09976485,0.1852641,1.611981,-0.01804332,-0.3335264,1.590296,-0.1904981,0.04411079,1.446175,0.3545038,-0.02669405,1.52384,NA,NA,Unknown,Unknown,
-0.2207031,-0.9267578,0.1499023,0.140625,0.9750977,0.284668,2,3,-1,2,-1,-3,6,-1,4,-4,-6,0,-4,2,-1,4,18,18,18,-14.5625,-14.5625,-14.5625,2.76993,5.332515,4.534134,6.928978,4.770929,7.531723,0.06175606,0.1560418,1.378655,0.136305,-0.06634856,1.38698,0.07782416,0.4346764,1.658729,0.04982483,0.2148528,1.381308,0.1425551,-0.1285655,1.460727,0.0733052,-0.01926388,1.644886,0.06525958,-0.3437652,1.622133,-0.1003639,0.1860677,1.611842,-0.01753703,-0.3329498,1.588793,-0.1954228,0.04385131,1.449819,0.3547884,-0.02931798,1.528415,NA,NA,Unknown,Unknown,
-0.07617188,-0.9384766,0.2353516,0.03369141,0.8432617,0.3510742,-2,-3,1,-2,-3,2,2,1,-5,-7,-7,4,-3,0,-3,-1,33.125,33.125,33.125,-12.5,-12.5,-12.5,2.867655,5.272842,4.576303,6.916382,4.857859,7.534877,0.07631265,0.1433099,1.375526,0.1393013,-0.04932408,1.399957,0.07903792,0.4331215,1.657589,0.05445652,0.2010809,1.371933,0.1224292,-0.1062321,1.459973,0.07357863,-0.01952847,1.645003,0.0653597,-0.3433118,1.621729,-0.10037,0.1860016,1.611549,-0.01725863,-0.332498,1.588055,-0.1961249,0.03977301,1.452919,0.3540648,-0.03035164,1.530574,NA,NA,Unknown,Unknown,
-0.02685547,-0.9165039,0.3515625,0.04199219,0.6762695,0.3632813,-2,-1,-2,-1,1,3,1,-2,1,-1,2,1,1,-8,-6,-1,38.8125,38.8125,38.8125,-13.5625,-13.5625,-13.5625,2.93686,5.214015,4.611991,6.875791,4.948287,7.507667,0.0787933,0.1238795,1.375861,0.1734671,-0.0461647,1.404009,0.08020689,0.432158,1.656896,0.06702857,0.185559,1.375546,0.135235,-0.1048848,1.462445,0.07252674,-0.02057252,1.645027,0.06618173,-0.3412657,1.620891,-0.1003731,0.1850356,1.610826,-0.01549936,-0.3303104,1.585054,-0.1973194,0.03245276,1.460442,0.3517761,-0.03214525,1.533545,NA,NA,NotTracked,NotTracked,
-0.00390625,-0.75,0.4506836,0.1025391,0.7084961,0.3842773,-1,0,0,-1,-1,-2,0,-1,1,-2,-2,0,-2,0,-1,-1,62.3125,62.3125,62.3125,-24.75,-24.75,-24.75,3.052808,5.122235,4.658748,6.840028,4.904621,7.469119,0.08501395,0.09622238,1.380719,0.1294521,-0.0592172,1.398246,0.08137958,0.4315032,1.656059,0.07244079,0.1329405,1.352905,0.1156696,-0.1098743,1.424091,0.07220718,-0.02077759,1.644916,0.06656203,-0.3377485,1.619727,-0.1001416,0.1825847,1.609478,-0.0146212,-0.3268983,1.581609,-0.196015,0.0210513,1.469905,0.350771,-0.03542455,1.544838,NA,NA,NotTracked,NotTracked,
0.0078125,-0.7426758,0.4667969,0.1538086,0.7041016,0.4594727,2,-1,-2,-1,-3,-3,2,0,-4,-5,-7,-4,-3,-1,-2,0,82.5625,82.5625,82.5625,-39.375,-39.375,-39.375,3.199718,4.99009,4.728193,6.747027,4.718972,7.407861,0.1126636,0.0476711,1.393778,0.1310083,-0.1057779,1.413896,0.08204327,0.4313713,1.655701,0.08649069,0.1137722,1.3842,0.1261892,-0.1614762,1.4362,0.0720064,-0.02063779,1.644832,0.06701456,-0.3336356,1.619083,-0.1002355,0.1788457,1.608416,-0.01340058,-0.3230225,1.579448,-0.2040065,0.002785317,1.499372,0.3487605,-0.04121661,1.565779,NA,NA,NotTracked,NotTracked,
0.05615234,-0.894043,0.5107422,0.2250977,0.8051758,0.53125,1,0,-2,-1,-4,-5,-2,-1,1,-3,-4,-2,-3,-2,2,0,122.8125,122.8125,122.8125,-33.25,-33.25,-33.25,3.386152,4.710437,4.870566,6.695938,4.524462,7.329459,0.06042419,-0.02603849,1.402475,0.1362533,-0.1711112,1.424164,0.08247765,0.4313799,1.655177,0.05111226,0.008559253,1.354543,0.1404587,-0.2304611,1.451583,0.07177383,-0.02058554,1.644054,0.06738876,-0.3325408,1.618306,-0.1001904,0.1699384,1.603134,-0.01244924,-0.322145,1.578027,-0.2100524,-0.02185593,1.534001,0.3333651,-0.05284845,1.594601,NA,NA,NotTracked,NotTracked,
0.1279297,-0.7744141,0.6308594,0.3193359,0.8398438,0.5043945,-3,-2,-2,1,3,0,1,-4,0,-1,-2,-1,-3,0,-4,-3,67.3125,67.3125,67.3125,-65.875,-65.875,-65.875,3.502622,4.424753,5.00394,6.621762,4.289868,7.244194,0.05027323,-0.1138769,1.410846,0.1787259,-0.2290132,1.443719,0.0828753,0.4314034,1.654377,0.03233788,-0.188764,1.448581,0.1909557,-0.3047193,1.4768,0.07099529,-0.02090686,1.64179,0.06672103,-0.3323704,1.61612,-0.09951864,0.1677191,1.602417,-0.01284537,-0.3218631,1.57603,-0.1994711,-0.03235339,1.562455,0.3199293,-0.06041437,1.615226,NA,NA,NotTracked,NotTracked,
0.5361328,-0.8901367,0.4858398,0.4858398,0.7568359,0.53125,-1,-1,1,2,4,9,3,-4,1,-1,-1,1,0,-1,-2,-2,88.1875,88.1875,88.1875,-74.5625,-74.5625,-74.5625,3.549139,4.081797,5.186584,6.525264,3.973584,7.147587,0.02043674,-0.2204658,1.416436,0.1974977,-0.3011459,1.450312,0.08305068,0.4317245,1.653365,-0.009483099,-0.291895,1.466579,0.2110081,-0.3534555,1.453938,0.06939585,-0.02160823,1.639482,0.06505832,-0.3335421,1.614362,-0.09978199,0.1658643,1.602692,-0.01427597,-0.3229105,1.574004,-0.1868791,-0.05668439,1.593151,0.3127235,-0.07524208,1.631381,NA,NA,NotTracked,NotTracked,
0.7583008,-0.715332,0.3837891,0.6386719,0.7011719,0.4223633,-5,-1,0,-1,26,7,0,-8,2,2,1,-2,-1,-1,-4,0,114.3125,114.3125,114.3125,-30.75,-30.75,-30.75,3.619883,3.620363,5.433597,6.529704,3.737911,7.039879,-0.04139464,-0.3040129,1.418419,0.2345335,-0.3211946,1.494998,0.08336297,0.4318777,1.651634,-0.06151113,-0.3574708,1.4225,0.2627826,-0.3303289,1.470881,0.06982843,-0.02270743,1.635972,0.06630014,-0.335277,1.60993,-0.1003344,0.1637495,1.602792,-0.01417179,-0.3257919,1.56897,-0.1721485,-0.06852265,1.608266,0.3075129,-0.08941829,1.644659,NA,NA,Unknown,NotTracked,
0.8476563,-0.6791992,0.2636719,0.7792969,0.6523438,0.3198242,-5,-3,-2,-6,1,-2,-3,-26,2,1,0,-1,-1,-1,-2,1,139.875,139.875,139.875,-52.9375,-52.9375,-52.9375,3.612015,3.335478,5.683151,6.553415,3.539334,6.929983,-0.08724613,-0.3575402,1.464807,0.2467422,-0.3565642,1.519042,0.08359408,0.4318244,1.650395,-0.1354966,-0.3869568,1.462176,0.2908404,-0.3996703,1.5165,0.0716332,-0.02293738,1.633925,0.07286987,-0.3358676,1.606609,-0.1005601,0.1619003,1.602972,-0.008823913,-0.3274075,1.565635,-0.1609849,-0.09132302,1.622975,0.3044522,-0.100652,1.654634,NA,NA,Unknown,NotTracked,
1.017578,-0.3535156,0.2133789,0.8945313,0.5820313,0.2666016,-1,0,-2,-3,0,1,0,1,-3,-1,0,0,0,0,1,-3,49.75,49.75,49.75,-68.5,-68.5,-68.5,3.404737,2.986814,6.127386,6.596632,3.372317,6.754602,-0.1261982,-0.3898789,1.508784,0.2613962,-0.3863823,1.536955,0.08361115,0.4319522,1.649599,-0.1824424,-0.3960371,1.513864,0.3053942,-0.3693728,1.536895,0.07196179,-0.02306429,1.633346,0.07314905,-0.3359679,1.606641,-0.1008578,0.1608792,1.603178,-0.008547696,-0.3274386,1.565698,-0.1587566,-0.1083121,1.630786,0.3019637,-0.1125114,1.660454,NA,NA,NotTracked,NotTracked,
1.140137,-0.1743164,0.08642578,0.9389648,0.3764648,0.1943359,-7,-1,0,1,5,0,-2,0,1,0,-3,-1,-1,-19,-4,0,23.0625,23.0625,23.0625,-30.3125,-30.3125,-30.3125,2.873241,2.805522,6.729236,6.706139,3.23593,6.498496,-0.1644945,-0.4176853,1.554137,0.2757797,-0.4232776,1.554258,0.08364273,0.432046,1.648914,-0.2138261,-0.4205644,1.559965,0.3224453,-0.4378989,1.558,0.07196043,-0.02313795,1.633315,0.07270411,-0.3362658,1.607902,-0.1012454,0.1601887,1.603694,-0.008819578,-0.3275399,1.567055,-0.1615223,-0.1148339,1.634966,0.3010879,-0.1183254,1.663672,NA,NA,NotTracked,NotTracked,
1.087402,-0.1689453,0.02050781,0.9370117,0.4604492,0.1586914,1,4,1,3,2,2,2,12,-1,-2,-1,-2,-2,-4,0,-2,-17.375,-17.375,-17.375,20.75,20.75,20.75,2.210134,2.736617,7.391676,6.823544,3.181897,6.39367,-0.2050319,-0.4280201,1.592694,0.2913075,-0.4315389,1.5687,0.0838737,0.4320281,1.648321,-0.2438499,-0.4195479,1.604095,0.3349941,-0.4373364,1.571384,0.07213221,-0.02325184,1.633364,0.07302315,-0.3364915,1.608843,-0.101436,0.1596446,1.603887,-0.008344547,-0.327677,1.568223,-0.165715,-0.119472,1.638075,0.3012108,-0.1214572,1.664834,NA,NA,NotTracked,NotTracked,
0.9868164,-0.2133789,0.1206055,0.9047852,0.3925781,0.1772461,-20,-4,-2,0,0,-3,-5,-43,1,-2,-2,-1,0,-2,-4,-1,25.8125,25.8125,25.8125,2.5625,2.5625,2.5625,2.106905,2.752006,7.512654,6.881521,3.167512,6.344271,-0.2182568,-0.4249177,1.608873,0.3000964,-0.4316518,1.57471,0.08395605,0.4319827,1.648094,-0.2573246,-0.4201626,1.615609,0.3454701,-0.4353923,1.578453,0.07224338,-0.02330545,1.633359,0.07304287,-0.3364856,1.609168,-0.1013943,0.1596072,1.604301,-0.008244277,-0.3275918,1.568696,-0.1706313,-0.1205661,1.642664,0.3022132,-0.1243887,1.665938,NA,NA,NotTracked,NotTracked,
0.9428711,-0.1743164,0.1542969,0.8642578,0.3837891,0.2304688,7,4,1,1,2,3,3,30,-2,0,1,0,0,-1,-3,-1,35.4375,35.4375,35.4375,-7.25,-7.25,-7.25,2.45414,2.791412,7.229697,6.882457,3.183715,6.325221,-0.2193853,-0.4237738,1.602635,0.3037344,-0.4319156,1.570651,0.08410802,0.4320006,1.647967,-0.2570347,-0.4128743,1.61171,0.3538269,-0.426968,1.590667,0.07227661,-0.02331309,1.633398,0.0729215,-0.3365182,1.609654,-0.1013611,0.1595368,1.604803,-0.008289692,-0.3274958,1.569273,-0.1741611,-0.1199844,1.647022,0.3029689,-0.1258639,1.666631,NA,NA,NotTracked,NotTracked,
0.9335938,-0.1923828,0.1044922,0.8637695,0.3828125,0.2114258,-5,-4,-2,-4,-4,-6,-9,-39,-1,-1,-1,-1,-2,-1,0,4,-5.4375,-5.4375,-5.4375,-11.5,-11.5,-11.5,2.757449,2.839039,6.942859,6.855639,3.20681,6.33358,-0.2116046,-0.4205821,1.58175,0.3025924,-0.4307865,1.561197,0.08430122,0.4319701,1.647732,-0.2498344,-0.4117182,1.592722,0.3416439,-0.4272633,1.554125,0.07232758,-0.02333119,1.633524,0.07264256,-0.3364468,1.6104,-0.101082,0.159849,1.60581,-0.008550302,-0.3273082,1.570143,-0.1750067,-0.1191851,1.64877,0.3030548,-0.1264999,1.666536,NA,NA,NotTracked,NotTracked,
0.9545898,-0.2768555,0.05810547,0.8857422,0.3857422,0.1806641,-9,-4,-1,-1,-1,0,-2,-21,0,-2,-1,-1,1,-1,-8,-3,-13,-13,-13,16,16,16,2.984352,2.896543,6.664087,6.815934,3.230131,6.390983,-0.2001649,-0.4180085,1.560939,0.2971144,-0.4277577,1.55334,0.08463648,0.4319728,1.647772,-0.2377941,-0.4250742,1.567308,0.3400689,-0.4342282,1.549134,0.07234619,-0.02346575,1.633923,0.07224493,-0.3365875,1.611302,-0.1009599,0.1598625,1.60675,-0.008910488,-0.3273315,1.57128,-0.1745353,-0.1190729,1.648918,0.3029543,-0.1272228,1.665662,NA,NA,NotTracked,NotTracked,
0.9755859,-0.1879883,0.01220703,0.8862305,0.3730469,0.1533203,-3,-3,-3,0,-2,-2,-1,-7,1,-1,1,-1,-1,2,-5,5,-1.0625,-1.0625,-1.0625,12.5625,12.5625,12.5625,3.110955,2.927647,6.527992,6.79143,3.246961,6.445081,-0.186205,-0.4170189,1.544391,0.2894197,-0.4279477,1.546256,0.08498113,0.431866,1.648092,-0.2225564,-0.4018126,1.550108,0.3365342,-0.4416294,1.546667,0.07239192,-0.02359544,1.634927,0.07192378,-0.3367237,1.612567,-0.1010422,0.1596801,1.608074,-0.009160006,-0.3274163,1.572658,-0.171206,-0.1196486,1.646932,0.3025444,-0.1276729,1.663843,NA,NA,NotTracked,NotTracked,
0.9775391,-0.2163086,0.04736328,0.8862305,0.3793945,0.1616211,-1,-2,0,0,-1,-1,0,3,1,-1,0,-1,-1,-1,-6,-3,-16.5,-16.5,-16.5,11.25,11.25,11.25,3.163708,2.940222,6.450282,6.77453,3.261251,6.489255,-0.1738003,-0.4147476,1.537034,0.281769,-0.4260485,1.541158,0.08538037,0.431678,1.648564,-0.2167968,-0.4027961,1.545476,0.3311205,-0.4301851,1.541917,0.07238078,-0.02406024,1.636196,0.07151879,-0.3370146,1.613868,-0.1010175,0.1592527,1.609945,-0.009520775,-0.3276543,1.574216,-0.1674078,-0.1202014,1.643618,0.3016028,-0.1278322,1.661555,NA,NA,NotTracked,NotTracked,
0.965332,-0.2290039,0.08544922,0.8798828,0.3764648,0.1738281,0,0,0,-1,-2,-1,-3,-1,-1,-1,0,0,0,1,-1,3,7.125,7.125,7.125,-1.9375,-1.9375,-1.9375,3.240203,2.952695,6.363693,6.749902,3.27705,6.521728,-0.1653133,-0.4151571,1.533195,0.2776907,-0.4241433,1.537991,0.08563048,0.4313872,1.649154,-0.2109676,-0.4304276,1.5365,0.3260809,-0.4329776,1.532615,0.07238054,-0.02441283,1.637299,0.07115905,-0.3373094,1.614665,-0.1010272,0.1588767,1.611409,-0.009922174,-0.3280278,1.575445,-0.1649159,-0.1212854,1.641098,0.3008312,-0.1277066,1.6597,NA,NA,NotTracked,NotTracked,
0.9404297,-0.2382813,0.1357422,0.8696289,0.4101563,0.2177734,-5,-1,0,1,1,0,1,0,1,-2,-2,1,-3,1,-1,-1,-5.75,-5.75,-5.75,-2.5,-2.5,-2.5,3.289441,2.958025,6.310585,6.735157,3.284871,6.534623,-0.1582414,-0.4149516,1.533127,0.2750407,-0.4237649,1.537062,0.08591777,0.431283,1.649696,-0.21061,-0.4213797,1.543041,0.3269269,-0.4338374,1.536621,0.0724535,-0.02453677,1.638155,0.07096777,-0.3373634,1.61511,-0.1010941,0.1585859,1.612667,-0.01007552,-0.3280439,1.575768,-0.1634205,-0.121577,1.63965,0.300274,-0.1272685,1.658848,NA,NA,NotTracked,NotTracked,
0.9326172,-0.2607422,0.1542969,0.8486328,0.4038086,0.2075195,-1,-2,-1,0,-2,0,0,-2,-3,0,-1,-1,0,-2,-1,-3,-2.1875,-2.1875,-2.1875,-3.125,-3.125,-3.125,3.308385,2.962085,6.285767,6.724862,3.286834,6.537752,-0.1539356,-0.4154706,1.532406,0.2743095,-0.4212511,1.537248,0.08623005,0.4312057,1.650192,-0.2027398,-0.432254,1.534692,0.3259462,-0.4298795,1.5359,0.0724069,-0.02464401,1.638687,0.0708491,-0.3374188,1.615368,-0.1012987,0.1583205,1.613692,-0.01016266,-0.3280736,1.575872,-0.1625452,-0.1217382,1.639193,0.3000012,-0.1272835,1.65856,NA,NA,NotTracked,NotTracked,
0.9536133,-0.2568359,0.1352539,0.8540039,0.4018555,0.2075195,-1,-1,-1,0,-4,-2,1,2,-1,-1,-2,-2,-2,-2,-2,-2,5.5,5.5,5.5,3.5625,3.5625,3.5625,3.320248,2.957633,6.28018,6.723522,3.279704,6.540922,-0.1506219,-0.4163379,1.534076,0.2737212,-0.4218531,1.539902,0.08624561,0.4311255,1.650844,-0.2047336,-0.4256187,1.543381,0.3303759,-0.4411548,1.552021,0.07242838,-0.02480481,1.63933,0.07085834,-0.3375589,1.615666,-0.1015021,0.15788,1.615032,-0.01015891,-0.328196,1.576167,-0.1619352,-0.1220269,1.639149,0.2995955,-0.1273432,1.658277,NA,NA,NotTracked,NotTracked,
0.9658203,-0.2490234,0.1225586,0.8735352,0.4072266,0.2060547,-1,-2,-1,-1,-1,-3,-1,-2,-1,-1,-2,0,0,2,0,-2,2.1875,2.1875,2.1875,3.625,3.625,3.625,3.312362,2.948647,6.293401,6.735507,3.264502,6.540148,-0.1495778,-0.4165389,1.536764,0.273964,-0.4232585,1.543558,0.08642641,0.4310943,1.652032,-0.1980397,-0.4184861,1.533562,0.329464,-0.4440223,1.551319,0.07236616,-0.02500571,1.639991,0.07082375,-0.3376963,1.616025,-0.1015155,0.1575131,1.616392,-0.01019674,-0.3282886,1.576487,-0.1613838,-0.1225292,1.639233,0.2993789,-0.1274319,1.658251,NA,NA,NotTracked,NotTracked,
