ALX,ALY,ALZ,ARX,ARY,ARZ,EMG0L,EMG1L,EMG2L,EMG3L,EMG4L,EMG5L,EMG6L,EMG7L,EMG0R,EMG1R,EMG2R,EMG3R,EMG4R,EMG5R,EMG6R,EMG7R,GLX,GLY,GLZ,GRX,GRY,GRZ,ORL,OPL,OYL,ORR,OPR,OYR,LHNX,LHNY,LHNZ,RHNX,RHNY,RHNZ,HX,HY,HZ,LTX,LTY,LTZ,RTX,RTY,RTZ,SpineMidX,SpineMidY,SpineMidZ,SpineBaseX,SpineBaseY,SpineBaseZ,ShoulderLeftX,ShoulderLeftY,ShoulderLeftZ,ShoulderRightX,ShoulderRightY,ShoulderRightZ,ElbowLeftX,ElbowLeftY,ElbowLeftZ,ElbowRightX,ElbowRightY,ElbowRightZ,Myo_Pose_left,Myo_Pose_Right,Kinect_pose_left,Kinect_pose_right
0.965332,-0.2006836,0.05908203,0.890625,0.3623047,0.1416016,3,4,0,0,-1,-3,-30,-1,-2,0,1,-1,0,13,12,1,12.1875,12.1875,12.1875,2.125,2.125,2.125,3.077019,2.88048,6.150359,7.04096,3.103482,7.440218,-0.1850779,-0.4250971,1.555403,0.2810658,-0.4465559,1.571147,0.0655669,0.4323039,1.659056,-0.2397197,-0.4210307,1.561264,0.216618,-0.4153651,1.543823,0.04750622,-0.02587826,1.640898,0.04190351,-0.3397978,1.622042,-0.1250104,0.1592279,1.616205,-0.03892292,-0.3300651,1.586027,-0.189175,-0.1176511,1.641814,0.2783043,-0.1367754,1.648621,NA,NA,NotTracked,NotTracked,
0.9921875,-0.2128906,0.05273438,0.8852539,0.3637695,0.1538086,0,0,0,-3,-2,2,20,-1,2,-1,-1,2,-3,-14,1,3,0.9375,0.9375,0.9375,1.1875,1.1875,1.1875,3.082282,2.880692,6.150346,7.038668,3.105993,7.442868,-0.1835188,-0.4237881,1.552968,0.2822666,-0.4464195,1.569844,0.06550282,0.4323865,1.658932,-0.2349901,-0.4223394,1.56035,0.2167602,-0.4180227,1.541298,0.04747891,-0.02588622,1.640874,0.04165782,-0.3397831,1.62192,-0.1250273,0.1590628,1.61637,-0.03915133,-0.330017,1.585997,-0.1881405,-0.1186078,1.641716,0.2785207,-0.1369387,1.648629,NA,NA,NotTracked,NotTracked,
0.9750977,-0.2211914,0.03564453,0.8945313,0.3623047,0.1323242,5,12,0,-1,0,0,5,-1,1,-1,-1,1,-1,9,-9,-1,-4.1875,-4.1875,-4.1875,-4.3125,-4.3125,-4.3125,3.07865,2.876826,6.150039,7.035823,3.112604,7.442249,-0.1805379,-0.4232881,1.551853,0.2836019,-0.4455821,1.567919,0.06551507,0.4323508,1.658797,-0.2340865,-0.4028228,1.563607,0.2164944,-0.4382732,1.5434,0.04742087,-0.02589379,1.640831,0.04128379,-0.339776,1.621628,-0.1249903,0.15897,1.616499,-0.03948493,-0.3299668,1.585838,-0.1873893,-0.1186072,1.641658,0.2788649,-0.1370638,1.648722,NA,NA,NotTracked,NotTracked,
0.9711914,-0.2333984,0.03564453,0.8959961,0.3383789,0.1362305,-1,0,-3,-2,-1,-2,5,-3,-1,-3,1,-2,0,0,-1,-1,-4.1875,-4.1875,-4.1875,-5.8125,-5.8125,-5.8125,3.065186,2.873853,6.158018,7.030207,3.119687,7.439949,-0.1795151,-0.4222732,1.552786,0.2839911,-0.4467205,1.566401,0.06556322,0.4323581,1.658671,-0.2316552,-0.4268849,1.562118,0.2191928,-0.4195891,1.544947,0.04741194,-0.02590868,1.640818,0.04112273,-0.3397562,1.621512,-0.1249145,0.1588805,1.616624,-0.03961416,-0.329937,1.585797,-0.186524,-0.1185903,1.641338,0.2791877,-0.1372802,1.648636,NA,NA,NotTracked,NotTracked,
0.9755859,-0.2275391,0.05371094,0.9077148,0.3452148,0.1289063,0,-1,-2,0,-1,-2,6,0,0,2,0,-4,-1,1,-2,3,0.25,0.25,0.25,-4.6875,-4.6875,-4.6875,3.057884,2.87342,6.164087,7.028821,3.123496,7.438215,-0.1775977,-0.4197899,1.551729,0.2847468,-0.4462084,1.561285,0.06587334,0.4323785,1.658235,-0.2277391,-0.4216033,1.555125,0.2186842,-0.4151503,1.541796,0.04732376,-0.02597673,1.640456,0.04069171,-0.3397648,1.620507,-0.1247588,0.1586421,1.616631,-0.04005951,-0.3299204,1.585028,-0.1848401,-0.1188227,1.64042,0.2797805,-0.1373882,1.648244,NA,NA,NotTracked,NotTracked,
0.9672852,-0.2265625,0.06835938,0.9140625,0.3583984,0.1230469,-3,-4,4,0,-1,-1,0,-1,-1,-2,-2,-1,-1,4,2,-4,1.3125,1.3125,1.3125,-9.75,-9.75,-9.75,3.051161,2.875184,6.172167,7.012385,3.140333,7.435421,-0.1773003,-0.4217012,1.550865,0.2850748,-0.4462456,1.558323,0.06601145,0.4323398,1.657983,-0.2282869,-0.4127915,1.558166,0.2206944,-0.4117474,1.543,0.04738776,-0.02601774,1.640212,0.04061032,-0.3397518,1.619758,-0.124681,0.158541,1.616585,-0.0401716,-0.3298668,1.584339,-0.1840203,-0.1194096,1.639798,0.2800453,-0.1375935,1.647914,NA,NA,NotTracked,NotTracked,
0.9633789,-0.2348633,0.08837891,0.9101563,0.3535156,0.1298828,-3,-2,-1,1,0,0,-9,-1,1,2,-1,1,0,0,-10,-7,1.625,1.625,1.625,-6.0625,-6.0625,-6.0625,3.043463,2.878577,6.182189,6.997302,3.145945,7.44269,-0.1774965,-0.4202473,1.550615,0.2840244,-0.4464573,1.555995,0.06629656,0.4322315,1.657415,-0.2279935,-0.4097549,1.555625,0.219081,-0.41996,1.543628,0.04738915,-0.02608727,1.63983,0.04045573,-0.3397715,1.619091,-0.1245954,0.1584768,1.616544,-0.0403293,-0.3298543,1.583726,-0.1835811,-0.119262,1.639424,0.2802519,-0.1375874,1.647539,NA,NA,NotTracked,NotTracked,
0.9501953,-0.2431641,0.09326172,0.9052734,0.3510742,0.1376953,-1,0,-1,-1,-1,-1,1,-3,2,0,0,0,-1,-3,-4,-3,2.8125,2.8125,2.8125,-1.4375,-1.4375,-1.4375,3.034054,2.883959,6.195099,6.989663,3.147615,7.449781,-0.1782387,-0.4203621,1.550348,0.2835611,-0.447648,1.55467,0.06651306,0.4322031,1.657177,-0.231916,-0.4147014,1.559684,0.2225621,-0.4057125,1.544435,0.04738415,-0.02612446,1.639584,0.0403114,-0.3397737,1.618555,-0.1244849,0.1584546,1.616446,-0.04048668,-0.3298166,1.583221,-0.1835365,-0.118891,1.639234,0.2805302,-0.1376411,1.646852,NA,NA,NotTracked,NotTracked,
0.9526367,-0.2353516,0.08740234,0.8881836,0.3676758,0.137207,-6,-9,-1,0,1,2,8,1,3,2,-1,-1,-1,-1,3,0,6.375,6.375,6.375,3.0625,3.0625,3.0625,3.021846,2.888272,6.213789,6.969219,3.15044,7.476725,-0.1793365,-0.4216772,1.548037,0.2821154,-0.447109,1.55066,0.06705392,0.4321411,1.656433,-0.2333441,-0.431675,1.559917,0.2207501,-0.4157842,1.54318,0.0474843,-0.02616477,1.63888,0.04016631,-0.3398688,1.617332,-0.1243102,0.1583084,1.616078,-0.04061615,-0.3298447,1.581948,-0.1832808,-0.1186498,1.638797,0.280927,-0.1377888,1.645476,NA,NA,NotTracked,NotTracked,
0.9604492,-0.2246094,0.08642578,0.8886719,0.3637695,0.1337891,8,7,-1,-2,-1,-1,3,1,-3,-2,-2,-1,0,-2,1,-3,6.5625,6.5625,6.5625,0.25,0.25,0.25,3.013528,2.89236,6.230741,6.957005,3.152107,7.490764,-0.1796384,-0.4214563,1.545648,0.2804479,-0.4460731,1.548681,0.06733126,0.4321316,1.655792,-0.2330365,-0.4088948,1.551741,0.2208955,-0.406491,1.536,0.04762721,-0.02624125,1.638046,0.04018899,-0.3399432,1.616302,-0.1241373,0.1581899,1.615671,-0.04058609,-0.329889,1.580977,-0.1832569,-0.1189102,1.637952,0.2809089,-0.1381385,1.644307,NA,NA,NotTracked,NotTracked,
0.9624023,-0.2290039,0.07666016,0.8916016,0.3647461,0.1323242,-6,-6,-2,0,-2,-1,9,2,2,-3,-2,0,-2,-1,-3,-5,5.6875,5.6875,5.6875,-2.625,-2.625,-2.625,3.000593,2.892816,6.25013,6.94805,3.153268,7.498999,-0.1808991,-0.4220721,1.544571,0.2797833,-0.4464704,1.547566,0.06749661,0.4321002,1.655391,-0.2335132,-0.4162275,1.554927,0.2195324,-0.4359771,1.5354,0.0476357,-0.02622852,1.637374,0.04020521,-0.3399755,1.615432,-0.1240453,0.1581398,1.615357,-0.04057198,-0.3298969,1.58002,-0.1832258,-0.1189398,1.637343,0.2809518,-0.138208,1.643731,NA,NA,NotTracked,NotTracked,
0.9770508,-0.2119141,0.06933594,0.8930664,0.3745117,0.1333008,-1,-3,0,-1,-2,-1,0,-1,0,1,-1,0,0,-10,-5,-5,3.4375,3.4375,3.4375,-4.3125,-4.3125,-4.3125,2.997969,2.892771,6.258192,6.941524,3.155957,7.500203,-0.1809106,-0.4224593,1.544048,0.278976,-0.4469247,1.547198,0.06761831,0.4321155,1.655133,-0.2349212,-0.4120389,1.550041,0.2203834,-0.4110242,1.5336,0.04772344,-0.02634856,1.636614,0.04029823,-0.3401207,1.614514,-0.123963,0.1579872,1.614918,-0.0404848,-0.3300429,1.579044,-0.1831816,-0.1188497,1.636645,0.2810353,-0.1383724,1.64281,NA,NA,NotTracked,NotTracked,
0.96875,-0.215332,0.07080078,0.8935547,0.3793945,0.1513672,-5,-3,1,2,1,1,6,3,5,-1,-1,0,-3,-6,-15,-3,-3.3125,-3.3125,-3.3125,-3.3125,-3.3125,-3.3125,3.004551,2.891566,6.249239,6.939866,3.157653,7.498687,-0.1815276,-0.4215982,1.54159,0.2783332,-0.4457814,1.544551,0.06795337,0.4323378,1.653659,-0.2354847,-0.3992929,1.547727,0.2192596,-0.4192222,1.531832,0.04786669,-0.02624823,1.635068,0.04059833,-0.3399452,1.612659,-0.1236901,0.1579948,1.613599,-0.04015039,-0.329772,1.577091,-0.1832579,-0.1187734,1.634309,0.2807889,-0.1387039,1.640635,NA,NA,NotTracked,NotTracked,
0.9741211,-0.2202148,0.07617188,0.9047852,0.3647461,0.1328125,0,4,-1,1,0,1,1,-1,-2,-1,-3,-1,-1,7,2,-4,-5.375,-5.375,-5.375,4.375,4.375,4.375,3.007106,2.89074,6.243458,6.943931,3.157063,7.49605,-0.1811225,-0.4224303,1.538893,0.2781143,-0.4460069,1.543045,0.06815488,0.4322522,1.652634,-0.2325477,-0.4211763,1.541556,0.2214526,-0.4207435,1.535092,0.04785024,-0.02618687,1.634223,0.0406452,-0.3399234,1.611569,-0.1235074,0.1578733,1.61241,-0.04008674,-0.329707,1.575957,-0.1834278,-0.1191518,1.632392,0.2806616,-0.1387321,1.639766,NA,NA,NotTracked,NotTracked,
0.9624023,-0.222168,0.07275391,0.9160156,0.3691406,0.1132813,-10,-12,-3,-3,-1,-3,7,-6,2,1,2,0,1,8,-4,8,-1.875,-1.875,-1.875,6.5,6.5,6.5,3.023368,2.893731,6.220233,6.948054,3.156089,7.495573,-0.1814971,-0.4215256,1.537306,0.2778469,-0.4451622,1.541524,0.06825562,0.4321269,1.65163,-0.2329881,-0.4155287,1.539161,0.2175153,-0.4257588,1.527556,0.04802485,-0.02614273,1.63307,0.04092881,-0.3398072,1.609879,-0.123501,0.1578694,1.611303,-0.03981534,-0.3296091,1.574243,-0.183344,-0.119355,1.63049,0.2801383,-0.1392292,1.637808,NA,NA,NotTracked,NotTracked,
0.9521484,-0.2133789,0.07519531,0.9208984,0.3774414,0.09716797,6,5,-2,-1,0,-3,-8,0,0,0,-1,0,0,-3,-16,-10,-3.0625,-3.0625,-3.0625,2.5625,2.5625,2.5625,3.034094,2.896585,6.206652,6.958559,3.15501,7.491185,-0.1810513,-0.4227275,1.536103,0.2771318,-0.4479552,1.541252,0.0684654,0.4319365,1.650741,-0.2331434,-0.4120469,1.541698,0.2188088,-0.4244707,1.529033,0.04818302,-0.0261911,1.631948,0.04096268,-0.3398546,1.609001,-0.1234867,0.1579035,1.610234,-0.03980072,-0.3296482,1.573352,-0.1834379,-0.1192163,1.628934,0.2799771,-0.1392975,1.636629,NA,NA,NotTracked,NotTracked,
0.9609375,-0.230957,0.07470703,0.9038086,0.3574219,0.1025391,-4,-6,-5,-1,-1,0,-3,-3,1,0,3,-2,0,0,0,9,-3.75,-3.75,-3.75,-3.625,-3.625,-3.625,3.035808,2.899843,6.201241,6.960337,3.156575,7.486321,-0.1798146,-0.4229922,1.533958,0.2768487,-0.4470309,1.539937,0.06852795,0.4319071,1.650302,-0.2312862,-0.4061704,1.531683,0.2179845,-0.425211,1.523174,0.04823064,-0.02617311,1.631271,0.04114095,-0.3398171,1.608101,-0.1235552,0.1578968,1.609452,-0.03963371,-0.3296602,1.572321,-0.1834116,-0.1187775,1.62806,0.2798074,-0.1392978,1.635511,NA,NA,NotTracked,NotTracked,
0.9609375,-0.230957,0.07470703,0.9038086,0.3574219,0.1025391,-4,-6,-5,-1,-1,0,-3,-3,1,0,3,-2,0,0,0,9,-3.75,-3.75,-3.75,-3.625,-3.625,-3.625,3.035808,2.899843,6.201241,6.960337,3.156575,7.486321,-0.1797675,-0.4219676,1.530646,0.2768491,-0.4462202,1.537359,0.06846343,0.4318738,1.649274,-0.2325159,-0.411412,1.537487,0.2166356,-0.4388858,1.52245,0.04816683,-0.02619141,1.630107,0.04107603,-0.3398243,1.60688,-0.1236157,0.1578482,1.608042,-0.0397162,-0.3296616,1.571126,-0.1833595,-0.1189848,1.626319,0.2797735,-0.1391325,1.634133,NA,NA,NotTracked,NotTracked,
0.9609375,-0.2290039,0.09033203,0.8955078,0.3618164,0.1240234,-5,-11,-3,-1,-1,-1,0,1,2,-2,0,-1,-1,0,-2,5,-3.8125,-3.8125,-3.8125,-3.125,-3.125,-3.125,3.036944,2.902242,6.19601,6.959678,3.159077,7.48358,-0.1798827,-0.4215294,1.528174,0.2764321,-0.4460639,1.535475,0.06832857,0.4317674,1.648108,-0.2325249,-0.4080243,1.534289,0.218114,-0.4293174,1.525182,0.04818343,-0.02630029,1.628699,0.04120027,-0.3398001,1.605438,-0.1236823,0.1576006,1.606427,-0.03963008,-0.3296767,1.569397,-0.1835077,-0.1190739,1.624503,0.2796561,-0.139097,1.632563,NA,NA,NotTracked,NotTracked,
0.9633789,-0.2236328,0.08251953,0.8847656,0.3706055,0.1376953,3,1,1,-3,-1,-1,-5,-2,1,1,-2,-1,-2,-1,-3,-1,-4.9375,-4.9375,-4.9375,-2.4375,-2.4375,-2.4375,3.034016,2.90227,6.193826,6.960054,3.160364,7.481548,-0.1786844,-0.4231651,1.526667,0.277274,-0.4451555,1.534667,0.06821522,0.4317755,1.647273,-0.2316244,-0.4008393,1.5295,0.2186042,-0.4247457,1.523319,0.0481002,-0.02630147,1.627663,0.04127282,-0.3398192,1.604321,-0.1238011,0.1575281,1.605348,-0.03955369,-0.3296979,1.568098,-0.1836048,-0.1191419,1.623313,0.2796225,-0.1389113,1.63197,NA,NA,NotTracked,NotTracked,
0.9658203,-0.2333984,0.07714844,0.8852539,0.371582,0.1367188,-2,-4,-5,-1,0,0,-1,0,1,-1,0,-1,0,4,1,1,-2.9375,-2.9375,-2.9375,-4.4375,-4.4375,-4.4375,3.028735,2.90154,6.195275,6.96386,3.163131,7.4705,-0.1797447,-0.4239035,1.52278,0.2793773,-0.4445951,1.532736,0.06779972,0.4316899,1.644522,-0.2329302,-0.412383,1.532846,0.2176623,-0.4030272,1.513353,0.04790052,-0.02637039,1.625156,0.04121789,-0.3399621,1.601725,-0.1239987,0.1573541,1.60297,-0.03957788,-0.3299135,1.565658,-0.1838384,-0.1186848,1.619607,0.2795055,-0.1386519,1.630539,NA,NA,NotTracked,NotTracked,
0.9736328,-0.2236328,0.06347656,0.8891602,0.3774414,0.1367188,0,-2,-4,-1,1,1,-1,-1,0,-1,0,-1,-1,4,4,-1,2.125,2.125,2.125,-0.125,-0.125,-0.125,3.020692,2.899493,6.203365,6.978838,3.160307,7.454556,-0.1804078,-0.4244549,1.521223,0.2822887,-0.4450625,1.533305,0.06753365,0.4317968,1.642555,-0.2354359,-0.4027863,1.53444,0.2195273,-0.4260988,1.519867,0.04771762,-0.02643776,1.623284,0.04115788,-0.3399622,1.599948,-0.1241089,0.1573389,1.600094,-0.0396042,-0.3299635,1.563961,-0.1839581,-0.1181159,1.61632,0.2797183,-0.1386219,1.629524,NA,NA,NotTracked,NotTracked,
0.9628906,-0.2241211,0.07910156,0.8862305,0.3686523,0.1279297,-9,-10,-2,-3,-2,-1,-4,-3,1,0,1,0,0,-5,-5,-2,-2.5625,-2.5625,-2.5625,-3.75,-3.75,-3.75,3.015085,2.898592,6.207253,6.98881,3.158845,7.437634,-0.1807943,-0.4264456,1.519262,0.2838022,-0.4452872,1.532634,0.06722914,0.4315929,1.640469,-0.2343439,-0.4134175,1.523393,0.2201193,-0.4164317,1.520472,0.04749622,-0.02643946,1.621407,0.0412325,-0.3400286,1.598166,-0.1245266,0.1571723,1.598332,-0.03953356,-0.330037,1.56219,-0.1839266,-0.1184536,1.61411,0.2799979,-0.1379825,1.628046,NA,NA,NotTracked,NotTracked,
0.9580078,-0.2265625,0.08203125,0.8925781,0.3706055,0.1386719,0,0,-2,-1,-1,0,0,-2,-3,-3,-3,-1,-2,-5,-2,-2,-1.4375,-1.4375,-1.4375,-1.75,-1.75,-1.75,3.012122,2.899745,6.207918,6.991061,3.160877,7.426579,-0.1812772,-0.4252664,1.515461,0.2840551,-0.4447401,1.529328,0.06693796,0.4314838,1.63838,-0.237221,-0.4014749,1.527056,0.2205183,-0.4152676,1.51953,0.0473858,-0.02646184,1.619482,0.04133069,-0.3398934,1.59595,-0.1246214,0.1572117,1.595851,-0.03935743,-0.329875,1.559387,-0.1842704,-0.118622,1.611096,0.2801695,-0.1379075,1.626405,NA,NA,NotTracked,NotTracked,
0.9711914,-0.2216797,0.07568359,0.8979492,0.3647461,0.1357422,1,1,2,1,2,-1,4,0,0,-1,-3,-2,1,2,4,2,-0.6875,-0.6875,-0.6875,-2.8125,-2.8125,-2.8125,3.009482,2.900022,6.210282,6.985536,3.164195,7.427524,-0.1822481,-0.4273196,1.513847,0.2844615,-0.4436368,1.528438,0.06654104,0.4314869,1.637136,-0.2327511,-0.4103878,1.513889,0.2200948,-0.4127602,1.515085,0.04727342,-0.02644718,1.617819,0.04136465,-0.3397447,1.594205,-0.1249291,0.157048,1.5934,-0.03928769,-0.3298021,1.557102,-0.1846382,-0.118823,1.608378,0.2802424,-0.1379291,1.625116,NA,NA,NotTracked,NotTracked,
0.9667969,-0.2260742,0.07373047,0.8969727,0.3671875,0.1245117,-1,1,-3,-1,0,-1,0,2,2,0,0,0,0,-8,-1,-3,-2.3125,-2.3125,-2.3125,-1.625,-1.625,-1.625,3.010051,2.902104,6.20643,6.977692,3.16764,7.434018,-0.1829018,-0.4269339,1.512232,0.2830474,-0.4441071,1.526527,0.06624254,0.4314635,1.636075,-0.2349642,-0.4188556,1.516044,0.2209712,-0.4082365,1.514852,0.04706478,-0.02648226,1.616668,0.04137213,-0.3397952,1.592678,-0.1251597,0.1569387,1.592257,-0.03932884,-0.3299319,1.555588,-0.1850102,-0.1194684,1.606223,0.2800693,-0.1379206,1.62429,NA,NA,NotTracked,NotTracked,
0.9599609,-0.2304688,0.08056641,0.8945313,0.3754883,0.1337891,6,2,0,-1,-3,-1,-1,-1,-4,-6,-3,0,-1,12,7,-5,-0.875,-0.875,-0.875,0.0625,0.0625,0.0625,3.021947,2.905891,6.191441,6.966351,3.170209,7.444323,-0.1819523,-0.4246902,1.510469,0.2808297,-0.4434434,1.525948,0.06596795,0.431394,1.635445,-0.233526,-0.404964,1.511738,0.221391,-0.3981694,1.511938,0.04692704,-0.02649422,1.615661,0.0414241,-0.339719,1.591519,-0.1254463,0.1568477,1.591159,-0.03925493,-0.3297957,1.553945,-0.1855242,-0.1190776,1.604897,0.2798524,-0.1378551,1.6234,NA,NA,NotTracked,NotTracked,
0.9570313,-0.2207031,0.07421875,0.890625,0.3706055,0.1298828,-1,10,2,-4,-1,0,4,-1,-1,0,0,-1,-1,4,-2,-6,-0.5625,-0.5625,-0.5625,0.375,0.375,0.375,3.03556,2.909216,6.174802,6.957639,3.170829,7.453058,-0.1815573,-0.4244885,1.508499,0.2797996,-0.4428393,1.52572,0.06556093,0.4313963,1.634866,-0.2323528,-0.4126933,1.504515,0.2196417,-0.4314091,1.517,0.04674769,-0.02642402,1.615131,0.04149586,-0.3395264,1.590944,-0.125728,0.15687,1.59053,-0.03913671,-0.3296592,1.553182,-0.1857101,-0.1192044,1.604037,0.2794304,-0.1378615,1.622909,NA,NA,NotTracked,NotTracked,
0.9741211,-0.2119141,0.05859375,0.8891602,0.3735352,0.1137695,0,2,-2,-2,-1,1,9,0,-2,-3,-4,-4,-4,-15,5,1,-4.625,-4.625,-4.625,-1.5625,-1.5625,-1.5625,3.031409,2.906928,6.175049,6.964643,3.166632,7.445094,-0.1808307,-0.4245681,1.507714,0.2793953,-0.4438855,1.527831,0.06510547,0.4312827,1.634171,-0.2316159,-0.4114818,1.50559,0.2190215,-0.4206434,1.514735,0.04641248,-0.02632253,1.614696,0.04145657,-0.3395139,1.590461,-0.1260647,0.1567426,1.589952,-0.03915693,-0.3296553,1.552683,-0.1859729,-0.1194507,1.603196,0.2790983,-0.1380734,1.622387,NA,NA,NotTracked,NotTracked,
1.033691,-0.2211914,0.02587891,0.8911133,0.3618164,0.1152344,-2,0,8,-11,63,15,10,1,7,-1,0,0,-1,7,8,5,-20.25,-20.25,-20.25,1.1875,1.1875,1.1875,3.015745,2.899401,6.166853,6.980352,3.156483,7.428031,-0.1800602,-0.4265243,1.50851,0.2801021,-0.4433708,1.531359,0.06465171,0.4311389,1.633703,-0.2319441,-0.4136615,1.507909,0.2192262,-0.4060534,1.515533,0.0461976,-0.02634883,1.614096,0.04138717,-0.3394165,1.590047,-0.1264575,0.1566592,1.58949,-0.03921912,-0.3295503,1.552016,-0.1863642,-0.1192292,1.602172,0.2786484,-0.138108,1.62218,NA,NA,NotTracked,NotTracked,
1.067383,-0.409668,0.1152344,0.9282227,0.3857422,0.08935547,4,5,-18,-7,-65,-6,9,4,-1,-12,-7,-4,-3,-19,2,1,-79.625,-79.625,-79.625,0.4375,0.4375,0.4375,3.126047,2.943452,5.916101,7.012719,3.143643,7.394186,-0.1768096,-0.428481,1.506344,0.2824257,-0.4452778,1.534189,0.06417957,0.4310808,1.633096,-0.2271033,-0.4120981,1.503627,0.2188601,-0.4126095,1.513301,0.04593173,-0.02628191,1.613838,0.04122321,-0.339362,1.589844,-0.1267438,0.1566069,1.589146,-0.03942495,-0.3295018,1.551722,-0.1869165,-0.1191471,1.601972,0.2780915,-0.1385278,1.622382,NA,NA,NotTracked,NotTracked,
1.045898,-0.6489258,0.3696289,1.026855,0.534668,-0.02392578,-5,-6,-25,-11,-21,6,28,0,26,5,-23,0,-2,-10,-2,0,-179.8125,-179.8125,-179.8125,-80.75,-80.75,-80.75,3.292634,3.101294,5.487821,7.006618,3.177784,7.321328,-0.1567553,-0.4212466,1.480355,0.2832297,-0.4437248,1.524329,0.06377766,0.4309917,1.632416,-0.2000027,-0.4122435,1.468448,0.2193315,-0.4156978,1.517938,0.04547429,-0.0262767,1.61353,0.04103016,-0.3393979,1.5897,-0.1274051,0.1566063,1.588948,-0.03961153,-0.3295608,1.551728,-0.1933454,-0.1135158,1.601251,0.2779417,-0.1386446,1.623508,NA,NA,NotTracked,NotTracked,
0.6928711,-0.8930664,0.4257813,0.9916992,0.6699219,0.3427734,-3,0,11,11,-13,-9,-24,-8,3,-49,-64,-1,-2,-1,-3,-5,-225.875,-225.875,-225.875,-93.5625,-93.5625,-93.5625,3.284159,3.390495,5.084713,6.800386,3.394222,7.283999,-0.1050592,-0.3594139,1.439896,0.294267,-0.4132528,1.473562,0.06317453,0.430988,1.631157,-0.1576974,-0.3299768,1.396182,0.2546818,-0.4064539,1.44235,0.04563827,-0.02605873,1.613068,0.04297744,-0.3386166,1.58868,-0.1282946,0.1566181,1.588739,-0.03853964,-0.3295393,1.550944,-0.2133621,-0.08404253,1.59406,0.2803307,-0.1361561,1.627474,NA,NA,NotTracked,NotTracked,
0.4189453,-0.7783203,0.4267578,0.8188477,0.8442383,0.5908203,-1,-3,-9,31,2,0,-22,-3,-14,-12,-32,-2,-6,5,1,-1,-210.4375,-210.4375,-210.4375,-59.375,-59.375,-59.375,3.143565,3.799739,4.655219,6.72399,3.601825,7.280412,-0.02618875,-0.3012185,1.393641,0.3143936,-0.3221625,1.39421,0.06229776,0.4310682,1.630224,-0.03775473,-0.325138,1.359069,0.2829204,-0.3192881,1.354667,0.04564208,-0.02602623,1.612906,0.04341124,-0.3384474,1.588516,-0.1286733,0.157008,1.588057,-0.03815014,-0.3302501,1.550642,-0.2232075,-0.05884938,1.569964,0.2835575,-0.1145842,1.634974,NA,NA,Open,Unknown,
0.5864258,-0.6704102,0.4379883,0.421875,1.120117,0.7290039,-1,-6,-16,-6,15,3,16,7,-23,-37,-3,-25,-23,-7,-5,-11,-193,-193,-193,-4.75,-4.75,-4.75,2.994895,4.011381,4.38583,6.681113,4.222671,7.288559,0.0373189,-0.2496553,1.410689,0.3336728,-0.1907426,1.319763,0.06143469,0.4310911,1.629878,0.04342433,-0.3141514,1.441188,0.3006575,-0.1642559,1.286667,0.04343922,-0.0257891,1.614909,0.03990778,-0.3383558,1.592585,-0.1284606,0.1584845,1.585244,-0.04037435,-0.3300652,1.553993,-0.2178655,-0.04288461,1.53179,0.2843768,-0.08228291,1.63013,NA,NA,Open,Unknown,
0.6303711,-0.800293,0.4697266,-0.04589844,0.9008789,0.7050781,2,2,4,3,-7,-4,-3,2,-7,2,23,-7,-9,-4,-3,-2,-147.1875,-147.1875,-147.1875,-11.625,-11.625,-11.625,2.847004,4.156385,4.151455,6.640611,4.859919,7.312647,0.06071085,-0.1716146,1.424684,0.3378824,0.001788564,1.292577,0.06009119,0.431033,1.630239,0.05594362,-0.2417752,1.45665,0.3099036,0.03059595,1.283077,0.04079108,-0.02522778,1.618071,0.03725962,-0.3373308,1.59646,-0.1267708,0.1597959,1.579228,-0.04185969,-0.3289831,1.556271,-0.2067605,-0.03542788,1.491957,0.297293,-0.1038439,1.566926,NA,NA,Unknown,Unknown,
0.4291992,-0.7836914,0.3144531,-0.3886719,0.8125,0.6567383,-4,-3,22,3,-4,4,9,-26,-7,-23,-67,-26,-8,-7,-38,-4,-93.375,-93.375,-93.375,6.75,6.75,6.75,2.734562,4.302656,3.897075,6.639718,5.55738,7.325807,0.0381863,-0.132607,1.4331,0.3269883,0.1781004,1.320094,0.05843958,0.4305341,1.631409,0.03563053,-0.1093903,1.3619,0.2980347,0.2092503,1.344692,0.041425,-0.02492348,1.620969,0.03635341,-0.3367143,1.598557,-0.1218176,0.1608876,1.583232,-0.04283289,-0.327947,1.557143,-0.1833867,-0.0245606,1.461189,0.3111079,-0.04874931,1.530646,NA,NA,Unknown,Open,
0.4741211,-0.7568359,0.1938477,-0.3164063,0.6879883,0.5830078,3,0,-10,-8,-7,-1,11,11,11,13,-8,1,3,-4,2,-1,-51.375,-51.375,-51.375,-26,-26,-26,2.678606,4.407717,3.795846,6.603354,6.208163,7.311793,0.0863124,-0.120462,1.435978,0.3090135,0.2888875,1.385354,0.05589383,0.4302474,1.633881,0.07397604,-0.077979,1.368125,0.2779936,0.3008594,1.410263,0.04123684,-0.02519121,1.622558,0.03541109,-0.3371839,1.599638,-0.1191132,0.161394,1.58429,-0.04414561,-0.3277885,1.557661,-0.1662554,-0.02620031,1.443323,0.3225879,-0.04966782,1.491566,NA,NA,Unknown,Open,
0.4277344,-0.8642578,0.1103516,-0.3120117,0.5678711,0.4931641,-4,-6,-12,-3,2,5,-54,-17,7,-10,-5,3,0,-3,6,3,-28.5,-28.5,-28.5,-32.375,-32.375,-32.375,2.649057,4.475422,3.774909,6.574038,6.399593,7.297167,0.1241764,-0.08987688,1.437251,0.2909897,0.3327308,1.443369,0.0526569,0.4297428,1.637567,0.1034108,-0.06328607,1.363818,0.2617613,0.3069876,1.488412,0.03891252,-0.02473015,1.625408,0.03440589,-0.336902,1.600413,-0.1161007,0.1627936,1.573231,-0.04565088,-0.3270339,1.558627,-0.1589804,-0.02429237,1.437315,0.3217778,0.03433029,1.427048,NA,NA,Open,Closed,
0.3125,-0.9594727,0.105957,-0.5825195,0.3242188,0.03857422,12,-1,-9,-1,6,-6,-26,-2,1,3,-8,-4,3,-3,4,-1,3.5,3.5,3.5,-73.625,-73.625,-73.625,2.633077,4.589123,3.793007,6.184274,7.159226,7.047996,0.1097004,-0.07251074,1.436367,0.2755828,0.3389936,1.474971,0.04921611,0.4289269,1.640851,0.07190388,-0.03443354,1.366667,0.2498129,0.3086722,1.510741,0.03582278,-0.02462556,1.627868,0.03379763,-0.3368078,1.60071,-0.1143921,0.1635234,1.576851,-0.04668681,-0.3266555,1.559498,-0.1521783,-0.02167965,1.434114,0.3187534,0.04029538,1.422089,NA,NA,Open,Unknown,
0.2426758,-0.7675781,0.002929688,-0.9316406,-0.03173828,0.08300781,-11,-7,1,-7,-7,-8,-7,-2,-9,-14,-88,8,-11,-8,9,-9,-3.5625,-3.5625,-3.5625,-83.75,-83.75,-83.75,2.617139,4.630717,3.883216,6.158352,7.342679,7.1653,0.1170211,-0.03856552,1.419477,0.2447142,0.3712372,1.525993,0.04609459,0.4286138,1.64339,0.0719347,-0.02082588,1.357621,0.2208595,0.3244154,1.546571,0.03564657,-0.02476932,1.628419,0.03351839,-0.3367421,1.600748,-0.1148317,0.1633959,1.572605,-0.04707092,-0.3265399,1.55986,-0.1514684,-0.02163657,1.434067,0.314764,0.07926761,1.402157,NA,NA,Unknown,NotTracked,
0.1547852,-1.13623,0.1621094,-1.032227,-0.02539063,-0.07763672,4,-1,-5,2,0,2,-11,5,-7,2,6,-1,-3,1,3,1,0.375,0.375,0.375,-49.875,-49.875,-49.875,2.581522,4.613107,3.933214,0.1338382,7.394043,1.283226,0.1138709,-0.0409743,1.415837,0.2308632,0.3704793,1.537957,0.0433241,0.4282507,1.6462,0.1160592,-0.0827475,1.462355,0.2071281,0.3224296,1.5415,0.03458188,-0.02487456,1.629796,0.03321047,-0.3364943,1.600802,-0.1141907,0.1633398,1.579239,-0.04755057,-0.3262365,1.560259,-0.1517074,-0.02077346,1.434601,0.3045024,0.09079737,1.393567,NA,NA,Unknown,NotTracked,
0.04443359,-0.9765625,0.07568359,-0.9995117,-0.09814453,-0.01367188,7,-4,0,-8,-4,-9,-8,7,-2,-7,4,-6,-10,0,4,0,-6.9375,-6.9375,-6.9375,-64.375,-64.375,-64.375,2.582474,4.640702,3.95601,0.5952077,7.319659,1.809911,0.1082877,-0.02957967,1.389215,0.2232899,0.3657593,1.536999,0.04152809,0.4275968,1.647995,0.1035072,-0.02733955,1.439333,0.2098224,0.3156639,1.53482,0.03474478,-0.02486006,1.630406,0.03298358,-0.3363094,1.600807,-0.1147093,0.1639052,1.580809,-0.04808338,-0.3260738,1.560944,-0.1544056,-0.01695203,1.43417,0.301269,0.09496772,1.389413,NA,NA,Unknown,NotTracked,
0.2456055,-0.9257813,-0.01074219,-0.8574219,-0.1274414,0.05371094,4,3,2,-5,0,18,23,3,4,5,11,3,8,1,7,0,2.625,2.625,2.625,-58.625,-58.625,-58.625,2.57129,4.674758,3.990786,0.8887644,7.255993,2.225017,0.1110169,-0.03116214,1.401176,0.2181166,0.3480598,1.50194,0.04038577,0.4273247,1.649568,0.09949571,-0.07551189,1.452218,0.2087355,0.2908678,1.512875,0.03420165,-0.02502314,1.63168,0.0327967,-0.3360247,1.600925,-0.1148874,0.1644015,1.582908,-0.04847669,-0.3257848,1.561722,-0.1558197,-0.01573414,1.435242,0.2736411,0.08427986,1.380975,NA,NA,Open,NotTracked,
0.3515625,-0.9243164,0.3481445,-0.6650391,0.08251953,-0.1293945,-8,-14,-10,-8,-16,6,25,-10,-14,-7,-8,-4,-1,4,0,-17,-15.6875,-15.6875,-15.6875,-118.25,-118.25,-118.25,2.556911,4.646329,4.013197,0.5418665,7.295647,1.984035,0.1064491,-0.03323336,1.401464,0.1462966,0.3438804,1.438216,0.03957591,0.426921,1.649921,0.09929106,-0.07381553,1.452939,0.1358736,0.3158961,1.457,0.03540336,-0.02475104,1.631609,0.03240068,-0.3355307,1.601239,-0.1139733,0.1642716,1.587506,-0.04945607,-0.3250128,1.563344,-0.1590507,-0.008014951,1.439275,0.2634809,0.07314038,1.383192,NA,NA,Unknown,Closed,
0.769043,-0.847168,0.02246094,-0.9296875,0.2856445,-0.2348633,-7,-10,-6,-6,-7,-7,-6,-5,-3,-3,-15,-24,-23,-66,-34,9,-0.5625,-0.5625,-0.5625,-155,-155,-155,2.562461,4.612192,3.984558,8.007822,6.921159,9.743587,0.1292745,-0.02721713,1.395035,0.06284442,0.2366064,1.377928,0.03441725,0.4392862,1.646627,0.137449,-0.0541013,1.452667,0.09916785,0.1771967,1.434667,0.03706361,-0.02634773,1.630267,0.03189762,-0.3371618,1.602086,-0.1156954,0.1629221,1.585729,-0.05043877,-0.3284837,1.568554,-0.1599685,-0.009592374,1.437524,0.2444568,0.05251184,1.385093,NA,NA,Unknown,Unknown,
-0.04589844,-0.8955078,-0.3896484,-0.2568359,0.7080078,0.2041016,-7,-10,-2,1,-6,0,26,-6,7,8,21,19,115,63,4,4,42.625,42.625,42.625,33.25,33.25,33.25,2.569693,4.707515,3.986457,7.627483,5.815762,9.512174,0.1217673,-0.03141801,1.4067,0.01988089,0.1269062,1.363653,0.03579953,0.4330394,1.651013,0.08523125,-0.1056303,1.447118,-0.04354876,0.0954306,1.417,0.03823555,-0.02751575,1.631833,0.03375976,-0.3427191,1.603475,-0.1157158,0.162016,1.586216,-0.04867616,-0.3340047,1.568184,-0.1502792,-0.01271663,1.437965,0.2330203,0.03713414,1.395211,NA,NA,Unknown,NotTracked,
-0.1835938,0.08056641,0.4013672,0.1318359,1.413574,0.0703125,3,3,-2,-9,9,-7,9,-5,15,18,19,46,-36,22,-39,-13,-123.5625,-123.5625,-123.5625,23.75,23.75,23.75,2.537412,4.675626,4.025976,7.695418,5.512038,9.599684,0.151634,0.05597539,1.36694,-0.01200581,0.09163248,1.364424,0.03585101,0.4311302,1.652112,0.1740265,-0.004806853,1.365947,0.01497735,0.08391487,1.355333,0.037093,-0.0268797,1.633769,0.03424339,-0.3398254,1.604512,-0.1178709,0.1611849,1.583994,-0.04756346,-0.3313988,1.569112,-0.1390349,-0.0162501,1.436393,0.2287901,0.01934212,1.394043,NA,NA,NotTracked,NotTracked,
0.9707031,-0.8251953,0.2963867,-0.1723633,1.67041,-0.08837891,4,2,3,9,0,-4,-13,0,-9,-8,-1,-11,41,19,-28,-14,49.5,49.5,49.5,-28.3125,-28.3125,-28.3125,2.635305,4.65934,4.023719,7.692821,5.413157,9.648451,0.03797213,0.09905284,1.370257,0.004659448,0.09837491,1.370536,0.03520665,0.4299914,1.652652,0.05020068,0.08552341,1.343333,0.007991957,0.11116,1.363546,0.03606476,-0.02637464,1.635214,0.03473376,-0.3379634,1.605767,-0.1197163,0.1604804,1.583551,-0.0466856,-0.3299272,1.570302,-0.1347529,-0.02111912,1.439341,0.2273974,0.0108839,1.39403,NA,NA,NotTracked,NotTracked,
0.7714844,-0.9790039,0.4555664,-0.3178711,1.252441,-0.2602539,-5,1,-2,0,-2,12,21,2,-4,6,7,10,-62,-121,-35,-2,-5.1875,-5.1875,-5.1875,15.5,15.5,15.5,2.672288,4.670427,4.01074,7.647292,5.413705,9.698887,-0.01061514,0.08078504,1.371778,-0.005989891,0.09208535,1.370172,0.03453259,0.4295272,1.652729,0.04901196,0.07936982,1.354643,-0.02318798,0.09898919,1.363308,0.03519403,-0.02602881,1.636283,0.03514243,-0.3372143,1.606521,-0.1209917,0.1594988,1.582814,-0.04618981,-0.3294317,1.570693,-0.1343012,-0.02367471,1.441186,0.2278333,0.008951993,1.394938,NA,NA,NotTracked,NotTracked,
0.6494141,-0.8046875,0.2172852,-0.2822266,0.9189453,-0.02587891,-3,-10,3,5,4,6,-23,-6,1,-2,5,12,30,6,-1,-2,-5.875,-5.875,-5.875,3.5,3.5,3.5,2.68139,4.639514,4.010566,7.621698,5.426268,9.699721,0.02773641,0.1127703,1.38335,-0.0196275,0.08235368,1.373438,0.03400766,0.4290979,1.652686,0.05896184,0.1101805,1.377,-0.04198936,0.09388929,1.3589,0.03454072,-0.02582408,1.636786,0.03532902,-0.3366023,1.607013,-0.1218336,0.159141,1.582674,-0.04585787,-0.3289561,1.571128,-0.1333008,-0.02553989,1.442024,0.2282061,0.007819199,1.395476,NA,NA,NotTracked,NotTracked,
0.2036133,-1.020996,0.4682617,-0.2836914,0.9912109,-0.03076172,-6,-1,1,1,-1,-9,-38,-11,5,14,8,9,0,-45,-10,0,0.125,0.125,0.125,1.1875,1.1875,1.1875,2.726528,4.592629,3.991781,7.618622,5.408467,9.704453,-0.0560055,0.05945309,1.383186,-0.008246918,0.08986655,1.37239,0.03366753,0.4286684,1.652748,-0.07970877,0.02585194,1.415333,0.001101664,0.1100024,1.362,0.03422835,-0.02564302,1.637091,0.0355338,-0.3360288,1.607164,-0.1225133,0.1588801,1.582521,-0.04551944,-0.3284682,1.571116,-0.1327203,-0.02609034,1.442048,0.2279533,0.006832387,1.395759,NA,NA,NotTracked,NotTracked,
-0.4057617,-1.125977,-0.2490234,-0.2436523,0.9282227,-0.02246094,3,4,3,-3,2,-4,-7,3,2,-1,7,8,8,-3,6,-4,4.4375,4.4375,4.4375,-9.375,-9.375,-9.375,2.716709,4.606372,3.980586,7.598722,5.4282,9.683212,-0.0279937,0.07573738,1.377911,-0.01031433,0.09354136,1.371762,0.03361374,0.4284157,1.652782,0.04261486,0.07927164,1.363167,-0.01349582,0.1095299,1.356388,0.03402136,-0.02563706,1.637367,0.03562846,-0.335928,1.607248,-0.1229068,0.1586254,1.582282,-0.04538279,-0.3283697,1.571018,-0.1334469,-0.02776347,1.443603,0.2284051,0.005229585,1.396871,NA,NA,NotTracked,NotTracked,
