ALX,ALY,ALZ,ARX,ARY,ARZ,EMG0L,EMG1L,EMG2L,EMG3L,EMG4L,EMG5L,EMG6L,EMG7L,EMG0R,EMG1R,EMG2R,EMG3R,EMG4R,EMG5R,EMG6R,EMG7R,GLX,GLY,GLZ,GRX,GRY,GRZ,ORL,OPL,OYL,ORR,OPR,OYR,LHNX,LHNY,LHNZ,RHNX,RHNY,RHNZ,HX,HY,HZ,LTX,LTY,LTZ,RTX,RTY,RTZ,SpineMidX,SpineMidY,SpineMidZ,SpineBaseX,SpineBaseY,SpineBaseZ,ShoulderLeftX,ShoulderLeftY,ShoulderLeftZ,ShoulderRightX,ShoulderRightY,ShoulderRightZ,ElbowLeftX,ElbowLeftY,ElbowLeftZ,ElbowRightX,ElbowRightY,ElbowRightZ,Myo_Pose_left,Myo_Pose_Right,Kinect_pose_left,Kinect_pose_right
0.9589844,-0.2382813,0.1245117,0.9013672,0.3422852,0.1547852,0,-3,-2,-1,-3,-1,0,-1,0,-4,-2,0,-4,1,-4,-1,0.25,0.25,0.25,0.9375,0.9375,0.9375,3.210143,2.927503,6.107304,6.815526,3.137933,6.186717,-0.1523277,-0.4176299,1.506129,0.2582119,-0.4121844,1.519275,0.07245468,0.4293062,1.625681,-0.09782295,-0.3816373,1.490364,0.2070145,-0.379022,1.497609,0.05869678,-0.02815855,1.621594,0.05911512,-0.3412723,1.601341,-0.1152621,0.1554788,1.59187,-0.02199401,-0.3325199,1.56196,-0.1672231,-0.1202698,1.600802,0.2864469,-0.1243249,1.635456,NA,NA,NotTracked,NotTracked,
0.9589844,-0.2382813,0.1245117,0.9057617,0.3461914,0.1552734,0,-3,-2,-1,-3,-1,0,-1,-2,0,-2,0,0,0,-2,-3,0.25,0.25,0.25,0.75,0.75,0.75,3.210143,2.927503,6.107304,6.817243,3.137129,6.185573,-0.1531809,-0.4186572,1.50611,0.2588824,-0.4121127,1.519541,0.07245384,0.4293168,1.625626,-0.09793416,-0.388804,1.489428,0.2064935,-0.3965685,1.493311,0.05864707,-0.0281433,1.62151,0.05902488,-0.3413101,1.601228,-0.1152764,0.1555106,1.591678,-0.02207698,-0.332549,1.561868,-0.1673066,-0.1203437,1.60068,0.2864707,-0.1243013,1.635141,NA,NA,NotTracked,NotTracked,
0.9589844,-0.2382813,0.1245117,0.8979492,0.3466797,0.1499023,0,-3,-2,-1,-3,-1,0,-1,1,3,-1,1,1,1,-3,1,0.25,0.25,0.25,0.3125,0.3125,0.3125,3.210143,2.927503,6.107304,6.820457,3.135883,6.183814,-0.1538159,-0.4181305,1.505447,0.2590667,-0.4143378,1.518328,0.07252213,0.4292409,1.625307,-0.09773839,-0.3911726,1.489357,0.2059842,-0.3962342,1.493153,0.05861588,-0.02812063,1.621281,0.059003,-0.3412966,1.601019,-0.1153112,0.155577,1.59136,-0.02209187,-0.3325287,1.561653,-0.1673903,-0.1202777,1.600339,0.2864772,-0.1241078,1.634894,NA,NA,NotTracked,NotTracked,
0.9589844,-0.2382813,0.1245117,0.9091797,0.3417969,0.1606445,0,-3,-2,-1,-3,-1,0,-1,3,1,-3,-3,-4,-1,0,-1,0.25,0.25,0.25,1.125,1.125,1.125,3.210143,2.927503,6.107304,6.824436,3.13489,6.180645,-0.1535514,-0.4180661,1.505514,0.2593674,-0.4139794,1.518427,0.07252421,0.4292179,1.62524,-0.09705129,-0.4006271,1.490748,0.2069729,-0.3866289,1.495157,0.05858987,-0.02808134,1.621197,0.05897474,-0.3412696,1.600934,-0.1152664,0.1556342,1.591108,-0.02210381,-0.3324819,1.561537,-0.1675766,-0.1201304,1.600069,0.2865254,-0.1240088,1.63454,NA,NA,NotTracked,NotTracked,
0.9589844,-0.2382813,0.1245117,0.8945313,0.3427734,0.1621094,0,-3,-2,-1,-3,-1,0,-1,1,0,1,2,-2,-2,0,-3,0.25,0.25,0.25,-0.875,-0.875,-0.875,3.210143,2.927503,6.107304,6.825207,3.135306,6.180357,-0.1538559,-0.4186857,1.504912,0.2592416,-0.4141105,1.517908,0.07249627,0.4291723,1.625049,-0.09754914,-0.404317,1.489022,0.2061239,-0.3893082,1.49391,0.05847764,-0.02804291,1.62095,0.05886628,-0.3412432,1.600698,-0.115311,0.1556958,1.590886,-0.02220299,-0.3324556,1.561294,-0.1677971,-0.1201161,1.599608,0.2864741,-0.1237974,1.63394,NA,NA,NotTracked,NotTracked,
0.9589844,-0.2382813,0.1245117,0.9008789,0.3413086,0.1547852,0,-3,-2,-1,-3,-1,0,-1,1,-1,-2,0,-4,0,-2,2,0.25,0.25,0.25,0.125,0.125,0.125,3.210143,2.927503,6.107304,6.826396,3.135818,6.18051,-0.1541448,-0.4180501,1.505401,0.2594379,-0.4137704,1.517771,0.07251611,0.4291215,1.624874,-0.09749392,-0.3965223,1.489439,0.2067731,-0.3887469,1.495024,0.05843571,-0.0280426,1.620818,0.05886534,-0.3412679,1.600596,-0.1153707,0.1557172,1.590781,-0.02220277,-0.3324954,1.561193,-0.1679042,-0.1206741,1.598916,0.2866473,-0.1233415,1.633482,NA,NA,NotTracked,NotTracked,
0.9589844,-0.2382813,0.1245117,0.9018555,0.340332,0.1469727,0,-3,-2,-1,-3,-1,0,-1,1,-6,0,1,0,-3,1,0,0.25,0.25,0.25,-0.125,-0.125,-0.125,3.210143,2.927503,6.107304,6.8271,3.135846,6.179851,-0.1535444,-0.4182236,1.505074,0.2592829,-0.413464,1.517775,0.07250987,0.4290907,1.624658,-0.09785953,-0.3971231,1.48923,0.2065162,-0.3920253,1.494736,0.05838073,-0.02796804,1.620715,0.0588779,-0.3412541,1.60055,-0.1154815,0.1557321,1.590605,-0.0221949,-0.3324961,1.561169,-0.1678302,-0.120511,1.598767,0.2866293,-0.1233293,1.633272,NA,NA,NotTracked,NotTracked,
0.9589844,-0.2382813,0.1245117,0.8950195,0.3481445,0.1503906,0,-3,-2,-1,-3,-1,0,-1,-1,-2,1,1,2,-4,-2,-1,0.25,0.25,0.25,0.875,0.875,0.875,3.210143,2.927503,6.107304,6.828588,3.135767,6.180635,-0.1535244,-0.4183134,1.504903,0.2593819,-0.4135551,1.517897,0.07248479,0.4291213,1.6246,-0.09682166,-0.4166442,1.488133,0.2065484,-0.3879065,1.495065,0.05839321,-0.02794531,1.620611,0.05888822,-0.3412155,1.600364,-0.1155756,0.1557191,1.590458,-0.02216865,-0.33246,1.560909,-0.1679397,-0.120556,1.598564,0.2866199,-0.1233605,1.633056,NA,NA,NotTracked,NotTracked,
0.9589844,-0.2382813,0.1245117,0.9003906,0.340332,0.1582031,0,-3,-2,-1,-3,-1,0,-1,-2,1,-1,-2,-1,0,-2,-4,0.25,0.25,0.25,0.625,0.625,0.625,3.210143,2.927503,6.107304,6.828534,3.135472,6.181195,-0.1527015,-0.417512,1.503722,0.2596151,-0.4142333,1.517266,0.07243864,0.4291678,1.624565,-0.09830589,-0.3851383,1.487897,0.2065342,-0.3898411,1.494683,0.05835474,-0.02788279,1.6205,0.05892079,-0.3411441,1.6002,-0.1155765,0.1557334,1.590288,-0.02213724,-0.33239,1.560731,-0.1679273,-0.1205452,1.598556,0.2866682,-0.1232989,1.632899,NA,NA,NotTracked,NotTracked,
0.9589844,-0.2382813,0.1245117,0.9023438,0.34375,0.1542969,0,-3,-2,-1,-3,-1,0,-1,0,3,-2,0,0,0,-2,-1,0.25,0.25,0.25,0.1875,0.1875,0.1875,3.210143,2.927503,6.107304,6.827899,3.135602,6.181062,-0.1527187,-0.4176131,1.504986,0.259538,-0.4140283,1.518073,0.07241271,0.4291233,1.624403,-0.09773034,-0.3964607,1.488752,0.2049305,-0.4115294,1.490709,0.05833834,-0.02788715,1.620465,0.05891798,-0.3411529,1.60019,-0.1155992,0.1557379,1.590214,-0.02214749,-0.3324008,1.560728,-0.1677517,-0.1207107,1.598427,0.2867446,-0.1231115,1.632854,NA,NA,NotTracked,NotTracked,
0.9589844,-0.2382813,0.1245117,0.9052734,0.3442383,0.1557617,0,-3,-2,-1,-3,-1,0,-1,-17,9,11,0,-1,-1,-8,0,0.25,0.25,0.25,0.1875,0.1875,0.1875,3.210143,2.927503,6.107304,6.827899,3.135602,6.181062,-0.152256,-0.4183288,1.50463,0.2577526,-0.413075,1.515293,0.07243584,0.4291046,1.624318,-0.09665687,-0.400952,1.489141,0.2071082,-0.3827248,1.493174,0.05832884,-0.02789768,1.620302,0.05888785,-0.3411792,1.600036,-0.1156103,0.1557501,1.590201,-0.02218453,-0.3324291,1.560636,-0.1676645,-0.1204984,1.598237,0.2867324,-0.1231944,1.632685,NA,NA,NotTracked,NotTracked,
0.9589844,-0.2382813,0.1245117,0.9946289,0.3813477,0.03515625,0,-3,-2,-1,-3,-1,0,-1,39,5,38,-23,-3,-5,-11,9,0.25,0.25,0.25,-13.875,-13.875,-13.875,3.210143,2.927503,6.107304,6.807684,3.145638,6.195934,-0.1531608,-0.4176094,1.504341,0.2431761,-0.3968231,1.494004,0.07245968,0.4291452,1.624219,-0.09712118,-0.3947155,1.48858,0.1984869,-0.3538958,1.488111,0.05830136,-0.02786865,1.620129,0.05870137,-0.3410102,1.599881,-0.1156279,0.1557605,1.590118,-0.02243522,-0.3321436,1.560141,-0.1674897,-0.1205389,1.598096,0.288053,-0.1217497,1.633951,NA,NA,NotTracked,NotTracked,
0.9589844,-0.2382813,0.1245117,1.117188,0.8725586,0.5986328,0,-3,-2,-1,-3,-1,0,-1,-24,-44,-50,52,-7,-3,-5,0,0.25,0.25,0.25,46,46,46,3.210143,2.927503,6.107304,6.579101,3.481699,6.439643,-0.1536426,-0.4174123,1.504436,0.2210439,-0.3089466,1.456582,0.07255639,0.4291704,1.623983,-0.09854431,-0.3813883,1.488547,0.1796441,-0.358981,1.437,0.0577739,-0.02776996,1.619776,0.05545617,-0.3404988,1.599247,-0.1155065,0.1557848,1.589931,-0.02592344,-0.3309958,1.55905,-0.1674391,-0.1197058,1.597972,0.2926279,-0.1067783,1.638835,NA,NA,NotTracked,NotTracked,
0.9589844,-0.2382813,0.1245117,0.7504883,1.106934,0.6826172,0,-3,-2,-1,-3,-1,0,-1,-19,9,13,-15,14,-1,1,3,0.25,0.25,0.25,24.5,24.5,24.5,3.210143,2.927503,6.107304,6.557959,3.983845,6.553374,-0.1543344,-0.417354,1.505687,0.1628624,-0.1682305,1.432662,0.07314277,0.429126,1.623455,-0.09818516,-0.3864899,1.488714,0.1482455,-0.1727431,1.402667,0.05731609,-0.02767366,1.619525,0.05349086,-0.3402659,1.598716,-0.1146379,0.1556858,1.589337,-0.02766293,-0.3305139,1.558243,-0.1668778,-0.1187003,1.597279,0.2949703,-0.0699589,1.628724,NA,NA,NotTracked,Unknown,
0.9589844,-0.2382813,0.1245117,-0.3208008,0.7519531,0.4248047,0,-3,-2,-1,-3,-1,0,-1,10,-8,-11,4,0,-4,-3,-4,0.25,0.25,0.25,41.875,41.875,41.875,3.210143,2.927503,6.107304,6.550006,4.705445,6.63282,-0.1561806,-0.4176121,1.505193,0.1729177,0.05270954,1.362879,0.07446288,0.4289643,1.622726,-0.09964535,-0.4063696,1.488111,0.1400173,0.0502671,1.3805,0.05721956,-0.02757485,1.619676,0.05316593,-0.3400483,1.599015,-0.113102,0.1553372,1.587791,-0.02787317,-0.3303438,1.559186,-0.1669224,-0.1181284,1.596973,0.2921243,-0.05894198,1.553802,NA,NA,NotTracked,Unknown,
0.9589844,-0.2382813,0.1245117,-0.5366211,0.6547852,0.3393555,0,-3,-2,-1,-3,-1,0,-1,-1,3,20,-9,-4,0,-1,-4,0.25,0.25,0.25,131.8125,131.8125,131.8125,3.210143,2.927503,6.107304,6.7321,5.469958,6.716027,-0.1561537,-0.4165406,1.502225,0.1723281,0.1376446,1.456204,0.07488392,0.4287123,1.621909,-0.1002171,-0.3895368,1.488714,0.1377098,0.1281096,1.508524,0.05701387,-0.02783941,1.620015,0.05208392,-0.340956,1.599287,-0.1120725,0.1558411,1.587263,-0.0303253,-0.3319049,1.562684,-0.1667977,-0.1156664,1.595224,0.3012912,-0.05651053,1.540641,NA,NA,NotTracked,Lasso,
0.9589844,-0.2382813,0.1245117,-0.3686523,0.6308594,0.3066406,0,-3,-2,-1,-3,-1,0,-1,4,15,14,10,6,-2,-11,-2,0.25,0.25,0.25,68.1875,68.1875,68.1875,3.210143,2.927503,6.107304,7.248373,6.336234,7.134199,-0.1546994,-0.4128023,1.49584,0.1749883,0.2343489,1.457637,0.07472003,0.4284675,1.620991,-0.1001628,-0.3926097,1.489342,0.1469261,0.2202965,1.488467,0.05945719,-0.02515477,1.619768,0.05074191,-0.3402871,1.598776,-0.1107518,0.1563104,1.586807,-0.03251804,-0.3309058,1.563782,-0.1657708,-0.1102661,1.592288,0.3114221,-0.03937824,1.502159,NA,NA,NotTracked,Unknown,
0.9589844,-0.2382813,0.1245117,-0.2954102,0.4985352,0.2211914,0,-3,-2,-1,-3,-1,0,-1,-2,0,1,-1,5,1,-2,-9,0.25,0.25,0.25,1.125,1.125,1.125,3.210143,2.927503,6.107304,7.576992,6.466367,7.498126,-0.1518466,-0.4105147,1.488153,0.1737368,0.2335411,1.477858,0.07503961,0.4281006,1.620461,-0.09794403,-0.3752132,1.488222,0.1662011,0.1663015,1.543146,0.06055684,-0.02468293,1.619914,0.05007139,-0.3402637,1.598627,-0.1092476,0.1569088,1.586698,-0.03358047,-0.3307496,1.563996,-0.1655333,-0.1078421,1.591335,0.3191042,-0.01980455,1.48524,NA,NA,NotTracked,Unknown,
0.9589844,-0.2382813,0.1245117,-0.4150391,0.3833008,0.1484375,0,-3,-2,-1,-3,-1,0,-1,16,8,5,-1,-4,-3,1,-8,0.25,0.25,0.25,-57.375,-57.375,-57.375,3.210143,2.927503,6.107304,7.663218,6.427971,7.668603,-0.1498787,-0.4081531,1.482263,0.1133751,0.297801,1.49642,0.07522589,0.4277282,1.620161,-0.09721324,-0.3670608,1.4877,0.08633617,0.274641,1.545304,0.06058355,-0.02478701,1.619793,0.04932882,-0.3410261,1.598513,-0.1088563,0.1569977,1.587329,-0.0345391,-0.3317479,1.564976,-0.1652806,-0.1077116,1.591085,0.3233188,-0.0144894,1.476301,NA,NA,Unknown,NotTracked,
0.9589844,-0.2382813,0.1245117,-0.8349609,0.6801758,0.2197266,0,-3,-2,-1,-3,-1,0,-1,0,-1,5,5,3,-2,-3,0,0.25,0.25,0.25,-75.0625,-75.0625,-75.0625,3.210143,2.927503,6.107304,7.382692,6.280896,7.523296,-0.1477839,-0.4097934,1.482007,0.1405258,0.2103881,1.475631,0.07424391,0.4278472,1.620766,-0.09605496,-0.3692625,1.4855,0.1139325,0.1579302,1.523421,0.06020921,-0.02517947,1.619364,0.04886024,-0.3418803,1.598659,-0.1095983,0.1563222,1.588738,-0.03495423,-0.3331996,1.566677,-0.1648795,-0.1082905,1.591254,0.3182112,-0.01770125,1.474605,NA,NA,Unknown,NotTracked,
0.9589844,-0.2382813,0.1245117,-0.8110352,0.8120117,0.06982422,0,-3,-2,-1,-3,-1,0,-1,1,-5,-3,-5,-5,-1,2,8,0.25,0.25,0.25,-75.8125,-75.8125,-75.8125,3.210143,2.927503,6.107304,7.1724,6.132838,7.460344,-0.146207,-0.4107514,1.488774,0.1134422,0.2014692,1.460364,0.07261018,0.4305353,1.622656,-0.1105793,-0.4113236,1.467033,0.09661797,0.1541739,1.5159,0.05889186,-0.02727893,1.618394,0.04893354,-0.3437275,1.599012,-0.1104638,0.1558452,1.591802,-0.03434971,-0.3355468,1.568696,-0.1641016,-0.109356,1.592418,0.3014455,-0.02891624,1.476987,NA,NA,Unknown,Unknown,
0.9589844,-0.2382813,0.1245117,-0.7524414,1.057617,0.1679688,0,-3,-2,-1,-3,-1,0,-1,0,4,4,2,7,2,-3,-5,0.25,0.25,0.25,-57.3125,-57.3125,-57.3125,3.210143,2.927503,6.107304,7.138314,6.074478,7.495088,-0.1431508,-0.412849,1.501104,0.09512987,0.1857885,1.468684,0.07231492,0.4335158,1.624749,-0.09227709,-0.3680233,1.488483,0.06328703,0.1412965,1.50556,0.05740689,-0.02976131,1.617677,0.04942266,-0.3452792,1.599609,-0.111394,0.1554655,1.592052,-0.0335262,-0.337173,1.569693,-0.1631943,-0.1114736,1.595592,0.2936087,-0.03198873,1.47703,NA,NA,NotTracked,Unknown,
0.9589844,-0.2382813,0.1245117,-0.6845703,0.953125,0.144043,0,-3,-2,-1,-3,-1,0,-1,0,-3,2,5,1,-4,-6,-4,0.25,0.25,0.25,-51,-51,-51,3.210143,2.927503,6.107304,7.138807,6.072114,7.589008,-0.1448647,-0.4154314,1.511558,0.08982517,0.1800606,1.487081,0.07236017,0.4341595,1.625269,-0.093394,-0.3785389,1.488097,0.04138638,0.1346287,1.499746,0.05696947,-0.03040908,1.61722,0.04947116,-0.3455254,1.59981,-0.1121872,0.1553283,1.592353,-0.03343096,-0.3373024,1.569816,-0.1628887,-0.1128852,1.599389,0.2901046,-0.03264284,1.475988,NA,NA,NotTracked,Unknown,
0.9589844,-0.2382813,0.1245117,-0.5493164,0.8916016,0.1147461,0,-3,-2,-1,-3,-1,0,-1,-6,-6,-12,-8,-6,0,0,-1,0.25,0.25,0.25,-26.9375,-26.9375,-26.9375,3.210143,2.927503,6.107304,7.187789,6.097505,7.714196,-0.1495277,-0.4170816,1.518916,0.08767329,0.180513,1.495577,0.07259166,0.434229,1.625342,-0.09328755,-0.416925,1.492375,0.03021408,0.1339808,1.498191,0.05677517,-0.03078694,1.617028,0.04943292,-0.3457515,1.600085,-0.1128523,0.1552937,1.59262,-0.03335591,-0.3374614,1.570191,-0.1632494,-0.1133935,1.602427,0.2893168,-0.0325711,1.474923,NA,NA,NotTracked,NotTracked,
0.9589844,-0.2382813,0.1245117,-0.5219727,0.7050781,0.1298828,0,-3,-2,-1,-3,-1,0,-1,-19,-12,0,5,1,-2,3,4,0.25,0.25,0.25,-9.625,-9.625,-9.625,3.210143,2.927503,6.107304,7.258771,6.128592,7.883459,-0.1550849,-0.4214088,1.521412,0.08742531,0.1814665,1.492073,0.07261291,0.4343707,1.625365,-0.09529831,-0.407982,1.491587,0.0271537,0.1357923,1.499137,0.05654123,-0.03106279,1.616979,0.04906381,-0.3460492,1.600725,-0.11342,0.1553434,1.592869,-0.03357563,-0.3376454,1.570869,-0.1638948,-0.1138048,1.60502,0.2894084,-0.03266529,1.475176,NA,NA,NotTracked,NotTracked,
0.9589844,-0.2382813,0.1245117,-0.5053711,0.7021484,0.1557617,0,-3,-2,-1,-3,-1,0,-1,0,1,2,2,-3,1,-3,-6,0.25,0.25,0.25,15.5,15.5,15.5,3.210143,2.927503,6.107304,7.244981,6.087739,7.869732,-0.1590421,-0.4226826,1.523875,0.08478612,0.1701823,1.478912,0.07236597,0.4348449,1.625699,-0.1011928,-0.410366,1.497503,0.02397112,0.1276642,1.494719,0.05617077,-0.03115286,1.61701,0.0484385,-0.3461002,1.60156,-0.1141507,0.1555568,1.593261,-0.03391794,-0.3375587,1.571416,-0.1652392,-0.1138714,1.607354,0.2915376,-0.03507672,1.482483,NA,NA,NotTracked,NotTracked,
0.9589844,-0.2382813,0.1245117,-0.300293,0.6586914,0.3325195,0,-3,-2,-1,-3,-1,0,-1,-4,0,0,-1,-5,-2,0,-1,0.25,0.25,0.25,-24.0625,-24.0625,-24.0625,3.210143,2.927503,6.107304,7.093444,5.971883,7.647798,-0.1634431,-0.4230061,1.521825,0.06878112,0.1170474,1.44859,0.07202565,0.4344283,1.625869,-0.1047419,-0.4130349,1.500139,0.02688008,0.0753614,1.47167,0.05591065,-0.03036358,1.618086,0.04817652,-0.3456458,1.602325,-0.1149021,0.1558718,1.593564,-0.03396735,-0.3372527,1.571694,-0.1661086,-0.1142755,1.608548,0.2978877,-0.04104738,1.510731,NA,NA,NotTracked,Unknown,
0.9589844,-0.2382813,0.1245117,-0.2880859,0.8007813,0.4584961,0,-3,-2,-1,-3,-1,0,-1,-2,-2,3,0,-2,-2,2,-1,0.25,0.25,0.25,-69,-69,-69,3.210143,2.927503,6.107304,6.749368,5.341877,7.268667,-0.1635578,-0.4211893,1.518957,0.05383082,0.05970467,1.390234,0.07123968,0.4330393,1.625976,-0.1050267,-0.3901368,1.497118,0.0226821,0.05300045,1.424429,0.05530816,-0.02930854,1.620112,0.04792254,-0.3440749,1.602893,-0.1142165,0.1559732,1.593904,-0.03378716,-0.3356599,1.571241,-0.1670006,-0.1140091,1.609369,0.3016395,-0.04333083,1.531481,NA,NA,NotTracked,Unknown,
0.9589844,-0.2382813,0.1245117,-0.190918,0.7519531,0.5009766,0,-3,-2,-1,-3,-1,0,-1,2,3,-3,-4,-1,-1,1,1,0.25,0.25,0.25,-51.8125,-51.8125,-51.8125,3.210143,2.927503,6.107304,6.645454,4.878675,7.135547,-0.1621967,-0.4198992,1.517085,0.09062844,-0.09932016,1.422701,0.07095528,0.4323707,1.625863,-0.1059767,-0.3857403,1.501143,0.06265329,-0.1612184,1.433084,0.05460511,-0.02849753,1.621398,0.04762553,-0.3422294,1.603279,-0.1146396,0.1560754,1.594656,-0.03363369,-0.3335181,1.570526,-0.1676031,-0.1139831,1.610016,0.3051093,-0.05140129,1.553752,NA,NA,NotTracked,Unknown,
0.9589844,-0.2382813,0.1245117,0.2075195,0.7875977,0.3759766,0,-3,-2,-1,-3,-1,0,-1,-1,-1,6,4,1,-5,4,2,0.25,0.25,0.25,-92.625,-92.625,-92.625,3.210143,2.927503,6.107304,6.576131,4.276989,6.93063,-0.1606919,-0.4199856,1.517476,0.1274457,-0.1943281,1.43025,0.07070308,0.4318663,1.625913,-0.1056697,-0.4038635,1.5,0.1666751,-0.2305992,1.381152,0.05396074,-0.02769135,1.622106,0.04729823,-0.340981,1.603523,-0.1153889,0.1564036,1.595463,-0.03368119,-0.3318536,1.569593,-0.1680462,-0.1140819,1.610836,0.3000185,-0.06209956,1.588956,NA,NA,NotTracked,Unknown,
0.9589844,-0.2382813,0.1245117,0.949707,0.3867188,0.7626953,0,-3,-2,-1,-3,-1,0,-1,-4,-1,2,2,-1,-1,6,1,0.25,0.25,0.25,-36.9375,-36.9375,-36.9375,3.210143,2.927503,6.107304,6.51449,3.865391,6.802599,-0.1598396,-0.4194729,1.518543,0.175916,-0.3037753,1.441268,0.07045841,0.4315506,1.625983,-0.1063005,-0.3775039,1.500312,0.1850681,-0.3576294,1.4393,0.05310725,-0.02728843,1.622124,0.04550793,-0.3400769,1.60254,-0.1159001,0.1565203,1.595793,-0.03577023,-0.3299832,1.56708,-0.1682568,-0.1139411,1.61117,0.2970483,-0.07537523,1.609704,NA,NA,NotTracked,Unknown,
0.9589844,-0.2382813,0.1245117,0.8359375,0.8984375,0.3227539,0,-3,-2,-1,-3,-1,0,-1,1,3,-2,-2,-2,-4,0,-1,0.25,0.25,0.25,5.8125,5.8125,5.8125,3.210143,2.927503,6.107304,6.6364,3.553618,6.660076,-0.1594981,-0.4194694,1.519069,0.2153967,-0.3498509,1.483353,0.07035554,0.4313737,1.626077,-0.105575,-0.3860134,1.497557,0.2622922,-0.3750749,1.465231,0.05263127,-0.02693551,1.622069,0.04477658,-0.3396175,1.602063,-0.1160765,0.1565797,1.595695,-0.03682691,-0.3290887,1.565256,-0.1686831,-0.1140563,1.611079,0.2958234,-0.08665186,1.625187,NA,NA,NotTracked,Unknown,
0.9589844,-0.2382813,0.1245117,0.9052734,0.6625977,0.3300781,0,-3,-2,-1,-3,-1,0,-1,-3,-3,-2,-2,-1,1,3,0,0.25,0.25,0.25,-68,-68,-68,3.210143,2.927503,6.107304,6.651786,3.360776,6.545288,-0.1593619,-0.4199932,1.519139,0.2388241,-0.379636,1.511651,0.07037424,0.4313433,1.626213,-0.1058941,-0.3830857,1.496624,0.2863041,-0.3874041,1.503286,0.0526558,-0.02680621,1.622001,0.04574254,-0.3392733,1.601871,-0.1165398,0.1567257,1.595241,-0.03543573,-0.328818,1.564077,-0.1693359,-0.1150372,1.610533,0.2939783,-0.1013468,1.635391,NA,NA,NotTracked,NotTracked,
0.9589844,-0.2382813,0.1245117,0.878418,0.3261719,0.3129883,0,-3,-2,-1,-3,-1,0,-1,0,-1,2,0,-6,-4,-1,0,0.25,0.25,0.25,-58,-58,-58,3.210143,2.927503,6.107304,6.673765,3.209373,6.387441,-0.1597247,-0.4197401,1.518579,0.2534838,-0.3968688,1.531221,0.07041614,0.4313,1.626269,-0.1057414,-0.3972476,1.496934,0.3011994,-0.3986273,1.530792,0.05281368,-0.02665235,1.621983,0.04728393,-0.3388815,1.601887,-0.1168684,0.1570052,1.594676,-0.03355558,-0.3286838,1.563252,-0.1699375,-0.1159385,1.609903,0.2935309,-0.1077319,1.642328,NA,NA,NotTracked,NotTracked,
0.9589844,-0.2382813,0.1245117,0.953125,0.4902344,0.1879883,0,-3,-2,-1,-3,-1,0,-1,-2,-4,-1,1,-1,-1,-1,1,0.25,0.25,0.25,-28.5,-28.5,-28.5,3.210143,2.927503,6.107304,6.793449,3.117762,6.202815,-0.158792,-0.4185661,1.516417,0.2665452,-0.4133311,1.546697,0.07049896,0.4313273,1.626354,-0.1055183,-0.387945,1.497481,0.3172642,-0.4215911,1.547,0.05329066,-0.02647866,1.621965,0.04980241,-0.3388644,1.602069,-0.117173,0.1573949,1.593715,-0.03090564,-0.3290181,1.56318,-0.1702091,-0.1163975,1.609192,0.2918007,-0.1138743,1.646796,NA,NA,NotTracked,NotTracked,
0.9589844,-0.2382813,0.1245117,0.9624023,0.3837891,0.06884766,0,-3,-2,-1,-3,-1,0,-1,-3,-2,-2,0,-1,-2,-1,-1,0.25,0.25,0.25,-10.25,-10.25,-10.25,3.210143,2.927503,6.107304,6.881224,3.053664,6.06362,-0.1575895,-0.4185585,1.51647,0.2705458,-0.4201397,1.554301,0.07066746,0.4313154,1.626472,-0.1049597,-0.3806244,1.495965,0.3186553,-0.423969,1.5502,0.05383169,-0.02636619,1.622005,0.05190339,-0.3389978,1.602412,-0.1171382,0.1574887,1.592849,-0.02875744,-0.3293472,1.563102,-0.1704641,-0.1168601,1.608298,0.2903667,-0.1184309,1.648977,NA,NA,NotTracked,NotTracked,
0.9589844,-0.2382813,0.1245117,0.9746094,0.324707,0.1499023,0,-3,-2,-1,-3,-1,0,-1,1,-2,-1,-2,1,-2,0,-1,0.25,0.25,0.25,-14.8125,-14.8125,-14.8125,3.210143,2.927503,6.107304,6.874704,3.055065,6.042785,-0.1563062,-0.4172456,1.516467,0.2703121,-0.4231322,1.553319,0.07083,0.4313813,1.626532,-0.1048036,-0.3906183,1.49646,0.318341,-0.4317183,1.550812,0.05434809,-0.02620129,1.622033,0.05329034,-0.3388958,1.602598,-0.1169457,0.1575522,1.592306,-0.02740396,-0.3293908,1.562949,-0.170722,-0.1173385,1.607652,0.2894961,-0.1203064,1.649999,NA,NA,NotTracked,NotTracked,
0.9589844,-0.2382813,0.1245117,0.9287109,0.331543,0.15625,0,-3,-2,-1,-3,-1,0,-1,0,1,-2,0,-2,-1,-2,0,0.25,0.25,0.25,-3.6875,-3.6875,-3.6875,3.210143,2.927503,6.107304,6.843097,3.06865,6.067212,-0.1553662,-0.41717,1.51376,0.2667257,-0.4212509,1.546077,0.07090414,0.4314169,1.626541,-0.1024236,-0.3991658,1.494407,0.3144717,-0.4232638,1.544445,0.05457639,-0.02616751,1.621971,0.05377021,-0.3390441,1.602585,-0.1167941,0.1574354,1.591933,-0.02687967,-0.3295859,1.562807,-0.1706418,-0.1174965,1.607127,0.2889318,-0.1216069,1.650499,NA,NA,NotTracked,NotTracked,
0.9589844,-0.2382813,0.1245117,0.8735352,0.3530273,0.1645508,0,-3,-2,-1,-3,-1,0,-1,3,-1,0,-1,2,1,1,11,0.25,0.25,0.25,9.875,9.875,9.875,3.210143,2.927503,6.107304,6.793966,3.106519,6.137909,-0.1549124,-0.4181747,1.511876,0.2622757,-0.4155697,1.538128,0.07103179,0.4315146,1.62669,-0.1024143,-0.3769501,1.490125,0.3075711,-0.4150546,1.532072,0.05494269,-0.02608257,1.621976,0.05438191,-0.3389624,1.602558,-0.116725,0.1574302,1.591878,-0.02623386,-0.3295328,1.562598,-0.1704486,-0.1180773,1.606233,0.2887773,-0.1217064,1.650606,NA,NA,NotTracked,NotTracked,
0.9589844,-0.2382813,0.1245117,0.8833008,0.3413086,0.1933594,0,-3,-2,-1,-3,-1,0,-1,1,3,0,1,-2,2,-2,3,0.25,0.25,0.25,9.1875,9.1875,9.1875,3.210143,2.927503,6.107304,6.755043,3.146752,6.201221,-0.1552282,-0.4183014,1.510045,0.257948,-0.4129548,1.528709,0.07117677,0.4315408,1.62688,-0.1013099,-0.3985779,1.489334,0.3071486,-0.418081,1.530332,0.05506375,-0.02604205,1.621979,0.05465906,-0.3389231,1.602474,-0.116717,0.1574213,1.591874,-0.02589712,-0.3295005,1.562358,-0.1703256,-0.1182712,1.605885,0.2882251,-0.1219259,1.650017,NA,NA,NotTracked,NotTracked,
0.9589844,-0.2382813,0.1245117,0.8959961,0.3212891,0.1699219,0,-3,-2,-1,-3,-1,0,-1,-1,0,1,-2,-1,0,-10,-3,0.25,0.25,0.25,1.1875,1.1875,1.1875,3.210143,2.927503,6.107304,6.739303,3.16858,6.222247,-0.1552809,-0.4183635,1.511067,0.2541931,-0.4091353,1.522517,0.07136644,0.4316623,1.627342,-0.1015781,-0.3774874,1.492694,0.3003809,-0.4082158,1.517968,0.05512002,-0.02604708,1.622001,0.05468147,-0.3389471,1.602403,-0.1166706,0.1573794,1.592032,-0.02587579,-0.329514,1.562195,-0.1702877,-0.1183673,1.605789,0.2875426,-0.122208,1.648321,NA,NA,NotTracked,NotTracked,
0.9589844,-0.2382813,0.1245117,0.9111328,0.3217773,0.1499023,0,-3,-2,-1,-3,-1,0,-1,1,-3,-2,-1,0,0,1,0,0.25,0.25,0.25,4,4,4,3.210143,2.927503,6.107304,6.736553,3.178227,6.232732,-0.1561807,-0.4167019,1.51236,0.2516834,-0.4077596,1.517398,0.07150361,0.4317963,1.627988,-0.101975,-0.390786,1.492154,0.2994695,-0.4165776,1.514474,0.05525032,-0.02605098,1.622002,0.05470086,-0.3389416,1.602339,-0.116513,0.1572884,1.592354,-0.02586923,-0.3295337,1.562025,-0.1701471,-0.118577,1.60558,0.2863096,-0.1224954,1.64549,NA,NA,NotTracked,NotTracked,
0.9589844,-0.2382813,0.1245117,0.9077148,0.3310547,0.1630859,0,-3,-2,-1,-3,-1,0,-1,-1,0,-1,-2,-1,-3,-1,0,0.25,0.25,0.25,7.375,7.375,7.375,3.210143,2.927503,6.107304,6.740642,3.179371,6.245536,-0.1563282,-0.417984,1.512507,0.2508133,-0.4075476,1.515491,0.07166222,0.4318602,1.628497,-0.1018926,-0.3877733,1.493906,0.2976421,-0.4164219,1.505864,0.05537067,-0.02608466,1.622111,0.05472115,-0.3389816,1.602331,-0.1163539,0.1572196,1.592575,-0.02586087,-0.3295957,1.562018,-0.1700634,-0.1187348,1.605541,0.2856353,-0.1227325,1.643665,NA,NA,NotTracked,NotTracked,
0.9589844,-0.2382813,0.1245117,0.8901367,0.3500977,0.1787109,0,-3,-2,-1,-3,-1,0,-1,0,-1,0,-1,-2,-2,-1,0,0.25,0.25,0.25,0.3125,0.3125,0.3125,3.210143,2.927503,6.107304,6.74331,3.177365,6.247504,-0.1555962,-0.4166098,1.511893,0.2504814,-0.4072226,1.515225,0.07203377,0.431923,1.628952,-0.1002362,-0.3846934,1.492034,0.298788,-0.411973,1.510108,0.055465,-0.02607276,1.62211,0.05479697,-0.3390683,1.602149,-0.1161761,0.157105,1.592773,-0.02579952,-0.3296871,1.561913,-0.1698117,-0.1187858,1.605289,0.2852566,-0.1229058,1.642075,NA,NA,NotTracked,NotTracked,
0.9589844,-0.2382813,0.1245117,0.8916016,0.3417969,0.1787109,0,-3,-2,-1,-3,-1,0,-1,1,-2,-2,0,0,-1,-2,-1,0.25,0.25,0.25,-1.25,-1.25,-1.25,3.210143,2.927503,6.107304,6.744736,3.173273,6.24379,-0.1555176,-0.4170416,1.512068,0.2511764,-0.4081807,1.516328,0.07230698,0.4319685,1.629437,-0.1011877,-0.3766293,1.493357,0.2988263,-0.4119629,1.508687,0.05587228,-0.02598178,1.622189,0.05490274,-0.3390557,1.602101,-0.1159484,0.1570623,1.593256,-0.0257011,-0.3296947,1.561887,-0.169742,-0.1189413,1.605275,0.285232,-0.1230059,1.641278,NA,NA,NotTracked,NotTracked,
0.9589844,-0.2382813,0.1245117,0.8979492,0.3427734,0.1860352,0,-3,-2,-1,-3,-1,0,-1,-1,1,0,0,-3,1,-2,-2,0.25,0.25,0.25,1.5625,1.5625,1.5625,3.210143,2.927503,6.107304,6.758126,3.15859,6.23203,-0.1553269,-0.4170268,1.513458,0.2534959,-0.4097213,1.520028,0.07288548,0.4321079,1.63042,-0.1014695,-0.3857156,1.492172,0.3027424,-0.4168668,1.516054,0.05607539,-0.02599506,1.622294,0.05490462,-0.3390881,1.60209,-0.1157129,0.1570172,1.593639,-0.02570223,-0.3297305,1.561923,-0.1694137,-0.1192499,1.605414,0.2852572,-0.1232254,1.640923,NA,NA,NotTracked,NotTracked,
