ALX,ALY,ALZ,ARX,ARY,ARZ,EMG0L,EMG1L,EMG2L,EMG3L,EMG4L,EMG5L,EMG6L,EMG7L,EMG0R,EMG1R,EMG2R,EMG3R,EMG4R,EMG5R,EMG6R,EMG7R,GLX,GLY,GLZ,GRX,GRY,GRZ,ORL,OPL,OYL,ORR,OPR,OYR,LHNX,LHNY,LHNZ,RHNX,RHNY,RHNZ,HX,HY,HZ,LTX,LTY,LTZ,RTX,RTY,RTZ,SpineMidX,SpineMidY,SpineMidZ,SpineBaseX,SpineBaseY,SpineBaseZ,ShoulderLeftX,ShoulderLeftY,ShoulderLeftZ,ShoulderRightX,ShoulderRightY,ShoulderRightZ,ElbowLeftX,ElbowLeftY,ElbowLeftZ,ElbowRightX,ElbowRightY,ElbowRightZ,Myo_Pose_left,Myo_Pose_Right,Kinect_pose_left,Kinect_pose_right
0.9667969,-0.2192383,0.07373047,0.8798828,0.3852539,0.2202148,1,-2,-2,-2,-2,-1,-1,5,-3,0,0,-1,0,2,-2,-2,-0.0625,-0.0625,-0.0625,0.5625,0.5625,0.5625,2.977556,2.869651,6.233111,6.670745,3.242077,2.353786,-0.2546033,-0.4219972,1.518489,0.1747837,-0.4204655,1.507573,-0.008659445,0.4306562,1.619367,-0.197442,-0.3931589,1.488295,0.1265008,-0.40308,1.477671,-0.0235166,-0.02889526,1.609871,-0.02899813,-0.3423593,1.587137,-0.1982868,0.154628,1.589059,-0.1078042,-0.3329554,1.549057,-0.2562497,-0.1260142,1.605358,0.1981435,-0.1311222,1.614024,NA,NA,NotTracked,NotTracked,
0.9672852,-0.2260742,0.06982422,0.8852539,0.3916016,0.2099609,1,0,-2,-1,0,-1,2,8,8,-6,-15,-2,-2,-4,0,2,-2.6875,-2.6875,-2.6875,-0.5,-0.5,-0.5,2.972092,2.867017,6.235854,6.67129,3.241779,2.35325,-0.2551658,-0.4225764,1.518455,0.1738328,-0.419849,1.508055,-0.008726055,0.4306068,1.619214,-0.1964306,-0.4065777,1.486837,0.1264054,-0.4004599,1.478648,-0.02361557,-0.02894365,1.609747,-0.02905472,-0.3424015,1.587082,-0.1984043,0.1546517,1.588865,-0.1078549,-0.3329934,1.549019,-0.2565256,-0.1262575,1.605315,0.1979582,-0.1310422,1.614074,NA,NA,NotTracked,NotTracked,
0.9677734,-0.2275391,0.08154297,0.9575195,0.4277344,0.1508789,3,-1,-1,-1,1,-1,2,9,-9,-9,-8,-4,-2,-1,-1,-2,-2.3125,-2.3125,-2.3125,-3.6875,-3.6875,-3.6875,2.971503,2.866997,6.235298,6.668338,3.247281,2.356395,-0.2551719,-0.42214,1.518583,0.172748,-0.4189349,1.507676,-0.008974411,0.4305437,1.618772,-0.1966534,-0.4046516,1.485647,0.1246369,-0.4100959,1.478637,-0.02379534,-0.02900388,1.609561,-0.02912846,-0.3424363,1.587022,-0.1985994,0.1546044,1.588548,-0.1079383,-0.3330268,1.548947,-0.2567563,-0.1261848,1.605127,0.1977474,-0.1310062,1.614122,NA,NA,NotTracked,NotTracked,
0.9707031,-0.2211914,0.07861328,0.9418945,0.4125977,0.1884766,4,-2,-2,-2,-3,-2,-3,-11,0,3,4,1,0,0,0,-1,2.25,2.25,2.25,-23.1875,-23.1875,-23.1875,2.975117,2.868566,6.233113,6.642811,3.264942,2.365414,-0.255084,-0.4236795,1.518287,0.1702638,-0.4177172,1.504158,-0.00917802,0.4305085,1.618539,-0.1962465,-0.4064979,1.484681,0.1255088,-0.4050365,1.476676,-0.02407194,-0.02901147,1.609318,-0.0293278,-0.3424115,1.586867,-0.1987996,0.1546897,1.588452,-0.1082058,-0.3330168,1.548663,-0.2571226,-0.1261961,1.605018,0.1975809,-0.1308494,1.614328,NA,NA,NotTracked,NotTracked,
0.9594727,-0.215332,0.07666016,0.9204102,0.4223633,0.3271484,-2,-2,-1,-3,-1,-3,-4,-13,-1,1,3,-1,0,0,-9,-3,2.0625,2.0625,2.0625,-24.9375,-24.9375,-24.9375,2.97654,2.87194,6.234478,6.592349,3.295904,2.388907,-0.2555828,-0.4233678,1.518058,0.1658212,-0.4145046,1.498675,-0.009549717,0.4304004,1.618156,-0.1968792,-0.4002517,1.485616,0.1213312,-0.4102942,1.471662,-0.0243903,-0.02902894,1.609087,-0.02988658,-0.3423736,1.586521,-0.1990221,0.1546646,1.588282,-0.108809,-0.3329641,1.548306,-0.2575607,-0.1258974,1.604793,0.1973893,-0.1304825,1.614681,NA,NA,NotTracked,NotTracked,
0.9526367,-0.21875,0.08007813,0.8413086,0.4560547,0.3686523,-2,-2,-3,-3,-2,-2,-2,-2,-1,0,0,0,0,0,0,-4,-2.0625,-2.0625,-2.0625,-11.25,-11.25,-11.25,2.973612,2.875226,6.236761,6.536471,3.345319,2.43101,-0.2566923,-0.4236119,1.517814,0.1543346,-0.4032604,1.484787,-0.01016111,0.430371,1.617798,-0.1969702,-0.4060515,1.484783,0.1139037,-0.3719785,1.46896,-0.02557723,-0.02894275,1.608693,-0.03131141,-0.3421847,1.586051,-0.1996013,0.1545083,1.587948,-0.1102903,-0.3327134,1.547721,-0.2579483,-0.1255727,1.604801,0.1965226,-0.1284461,1.616928,NA,NA,NotTracked,NotTracked,
0.9609375,-0.2236328,0.08398438,0.7900391,0.4746094,0.3754883,-2,-1,-2,-2,-2,-3,-3,-6,16,1,4,-1,-2,-8,1,1,-3.1875,-3.1875,-3.1875,-7.125,-7.125,-7.125,2.973726,2.876927,6.233225,6.51128,3.374857,2.454944,-0.2578193,-0.4242568,1.516424,0.1478268,-0.3980906,1.478173,-0.01055282,0.4301953,1.617437,-0.1984779,-0.4131576,1.482978,0.108624,-0.3638917,1.46532,-0.02626248,-0.02896517,1.608421,-0.03214242,-0.3421499,1.585683,-0.1998158,0.1545236,1.587823,-0.1111531,-0.3326581,1.547433,-0.2581199,-0.1254841,1.604804,0.1962593,-0.1269659,1.617803,NA,NA,NotTracked,NotTracked,
1,-0.2143555,0.09814453,0.78125,0.4584961,0.3481445,2,0,0,-1,-2,-1,-1,9,-6,-19,-9,-8,-5,1,1,-2,0.4375,0.4375,0.4375,-3.1875,-3.1875,-3.1875,2.986076,2.878124,6.220454,6.491209,3.404863,2.476499,-0.2580713,-0.4239849,1.516743,0.1404975,-0.3935125,1.469616,-0.0110631,0.4300582,1.617096,-0.1975738,-0.4026777,1.485902,0.1002922,-0.369089,1.460393,-0.02689222,-0.02896042,1.608163,-0.0331693,-0.3419793,1.585257,-0.2000634,0.1545016,1.587701,-0.1122387,-0.3323853,1.547075,-0.2582932,-0.1252852,1.604737,0.1958,-0.1247782,1.618419,NA,NA,NotTracked,NotTracked,
0.9990234,-0.215332,0.09228516,0.84375,0.4638672,0.2749023,1,-1,1,2,0,2,2,27,-4,-9,24,4,2,-5,-1,0,1.3125,1.3125,1.3125,16.0625,16.0625,16.0625,2.990642,2.878033,6.216647,6.451537,3.494819,2.552131,-0.2590105,-0.4248425,1.515604,0.1324943,-0.3865739,1.461862,-0.01150801,0.4301696,1.617017,-0.1973078,-0.4054739,1.485319,0.09052321,-0.3687643,1.455429,-0.02785986,-0.02893682,1.607879,-0.03462474,-0.3418975,1.584819,-0.2004344,0.1544878,1.587467,-0.1138043,-0.332155,1.54678,-0.2585348,-0.1245479,1.604631,0.1958072,-0.1238976,1.61846,NA,NA,NotTracked,NotTracked,
0.9702148,-0.2114258,0.06738281,0.9785156,0.6166992,0.4541016,2,2,1,0,-1,-3,2,17,-4,-7,-55,-3,-3,-3,-2,-4,4.1875,4.1875,4.1875,-4.5,-4.5,-4.5,3.002971,2.881394,6.208445,6.419437,3.580163,2.598446,-0.2592542,-0.4244629,1.515413,0.1229298,-0.3718357,1.450309,-0.01210984,0.4302157,1.616936,-0.1978569,-0.4068674,1.484632,0.08263764,-0.3764991,1.456568,-0.02876763,-0.02889388,1.607646,-0.03634332,-0.3419057,1.584249,-0.2008484,0.154452,1.587346,-0.115654,-0.3318375,1.546226,-0.2587098,-0.1242161,1.604477,0.1961228,-0.1208847,1.618528,NA,NA,NotTracked,NotTracked,
0.9287109,-0.1987305,0.07714844,0.9663086,0.6401367,0.5249023,-2,0,0,0,-1,1,2,13,-3,-1,-4,-2,0,1,1,-1,-1.125,-1.125,-1.125,-19.1875,-19.1875,-19.1875,3.013864,2.884262,6.198304,6.388006,3.633684,2.625832,-0.2585702,-0.4257526,1.512632,0.1015424,-0.3304835,1.41213,-0.01311633,0.430119,1.616305,-0.2002045,-0.3963688,1.485122,0.1087759,-0.3964301,1.4253,-0.0305803,-0.02869567,1.607002,-0.03944696,-0.3416406,1.583258,-0.2016172,0.1544675,1.586864,-0.1185867,-0.3311258,1.545316,-0.2591253,-0.1233461,1.604071,0.197449,-0.1100134,1.616732,NA,NA,NotTracked,Unknown,
0.9423828,-0.215332,0.1040039,0.859375,0.6606445,0.6005859,-5,1,0,0,-2,-1,0,6,4,13,5,5,3,0,-1,1,-10,-10,-10,-18.125,-18.125,-18.125,3.018301,2.883949,6.185108,6.355397,3.696075,2.655535,-0.2587613,-0.4258077,1.513061,0.07092182,-0.3003339,1.423029,-0.01346384,0.430128,1.616221,-0.1998787,-0.3904237,1.485278,0.1083876,-0.3726842,1.452867,-0.03118947,-0.02873253,1.606866,-0.04026867,-0.3417516,1.58309,-0.2019907,0.1544573,1.586714,-0.1192669,-0.3310367,1.545115,-0.2592355,-0.1232008,1.603926,0.1987362,-0.1020462,1.614382,NA,NA,NotTracked,Unknown,
0.9799805,-0.2260742,0.1157227,0.6791992,0.5986328,0.6040039,-3,0,-2,2,-1,-3,-2,2,12,11,38,20,8,0,1,2,-10.6875,-10.6875,-10.6875,-9.875,-9.875,-9.875,3.021899,2.880304,6.169367,6.307722,3.843017,2.703535,-0.2585445,-0.4255341,1.511471,0.0584297,-0.2687609,1.404838,-0.0137756,0.4302019,1.615905,-0.2001515,-0.3942056,1.485221,0.08349504,-0.3371438,1.442,-0.03144713,-0.0286929,1.606698,-0.04062008,-0.3417452,1.582888,-0.2022464,0.1543448,1.586506,-0.119515,-0.3310181,1.544958,-0.259337,-0.1232302,1.603726,0.1975526,-0.09753344,1.610042,NA,NA,NotTracked,Unknown,
0.9833984,-0.1923828,0.06005859,0.5683594,0.6152344,0.5922852,-1,0,0,-2,-1,-3,-1,-4,15,44,31,2,2,-1,1,6,-5.1875,-5.1875,-5.1875,16.125,16.125,16.125,3.030579,2.871497,6.151834,6.281007,4.104956,2.767218,-0.2577079,-0.4257552,1.512611,0.04968213,-0.2213257,1.38266,-0.0140952,0.4302458,1.615817,-0.1996422,-0.3989667,1.485376,0.02945113,-0.2643586,1.421455,-0.03163136,-0.02858915,1.60671,-0.04073491,-0.3415765,1.582912,-0.2024363,0.1543543,1.586344,-0.1195549,-0.3309317,1.545009,-0.2593638,-0.1231284,1.603548,0.1969424,-0.09139615,1.606762,NA,NA,NotTracked,Unknown,
0.9750977,-0.1904297,0.05859375,0.3022461,0.7050781,0.7543945,-6,1,0,0,0,2,2,28,-20,-40,-65,-12,-11,-5,-4,-9,-10.3125,-10.3125,-10.3125,0.8125,0.8125,0.8125,3.034498,2.86901,6.142012,6.256689,4.517813,2.852974,-0.2573452,-0.4258662,1.511918,0.03484017,-0.1612966,1.37888,-0.01440358,0.4303838,1.615596,-0.1996397,-0.3993436,1.485485,-0.01066921,-0.1302325,1.410074,-0.03171986,-0.0285056,1.60673,-0.04067502,-0.3414283,1.583023,-0.2025353,0.1542898,1.585991,-0.1193753,-0.3308774,1.545151,-0.2594824,-0.1228977,1.603077,0.1966963,-0.08320291,1.597803,NA,NA,NotTracked,Unknown,
0.9614258,-0.2104492,0.08691406,0.04980469,0.6630859,0.7133789,2,0,-1,-2,-2,-2,0,-3,-6,0,68,-21,-4,-2,-2,-8,-19.75,-19.75,-19.75,3.5,3.5,3.5,3.044898,2.866374,6.111207,6.246377,4.752169,2.906891,-0.2552931,-0.4255985,1.510334,0.02345792,-0.06778294,1.356609,-0.01515556,0.4304258,1.614944,-0.1969802,-0.4407243,1.4805,-0.003580075,-0.01304935,1.404923,-0.03183414,-0.02829577,1.60665,-0.04055811,-0.340592,1.583223,-0.202718,0.1541898,1.585067,-0.1190485,-0.3302643,1.545089,-0.2599375,-0.1218659,1.601151,0.2519961,-0.08769118,1.565616,NA,NA,NotTracked,Closed,
0.9477539,-0.2416992,0.1123047,-0.1518555,0.7021484,0.7626953,0,-2,-1,-1,1,1,0,8,10,25,34,-3,22,5,9,26,-25.4375,-25.4375,-25.4375,17.125,17.125,17.125,3.050094,2.86663,6.078231,6.258278,5.016482,2.974622,-0.2541434,-0.4259239,1.510476,0.01674715,-0.01071089,1.358845,-0.01537748,0.4306493,1.614766,-0.1972528,-0.4118555,1.482568,0.009707279,0.04503115,1.4043,-0.03194436,-0.02824179,1.606678,-0.04059587,-0.3404793,1.583316,-0.2026369,0.1538247,1.58433,-0.119024,-0.3302155,1.545102,-0.2600546,-0.1220386,1.600599,0.2496491,-0.09360015,1.575506,NA,NA,NotTracked,Unknown,
0.9707031,-0.2324219,0.1049805,-0.3950195,0.6982422,0.652832,0,-1,-2,-1,-1,-2,-7,-1,8,-6,-6,-7,1,-1,2,13,-24.125,-24.125,-24.125,16.75,16.75,16.75,3.055531,2.866326,6.045629,6.281291,5.298226,3.060149,-0.2531479,-0.4254239,1.508987,0.01558317,0.05987179,1.350173,-0.01549258,0.4306583,1.61462,-0.1974788,-0.406082,1.483525,-0.02307012,0.009445876,1.426182,-0.03199206,-0.02825936,1.606704,-0.04061977,-0.3404998,1.583347,-0.2099163,0.1532335,1.585175,-0.1190158,-0.3303313,1.545297,-0.2603329,-0.1212902,1.599549,0.2359164,-0.09382277,1.561125,NA,NA,NotTracked,Unknown,
1.005371,-0.2387695,0.09375,-0.4418945,0.6523438,0.7011719,0,-1,-1,0,-1,1,0,4,-41,-2,0,-3,-6,0,5,17,-32.3125,-32.3125,-32.3125,21.6875,21.6875,21.6875,3.057818,2.868785,6.008169,6.334961,5.601081,3.167604,-0.2531714,-0.4237095,1.509017,0.0156162,0.1097333,1.369303,-0.01587612,0.4306476,1.614412,-0.1980422,-0.4061297,1.483395,-0.03124358,0.1135945,1.338,-0.03280845,-0.02862183,1.60706,-0.04089663,-0.3415368,1.583462,-0.2098092,0.153312,1.584969,-0.1195208,-0.3318844,1.546248,-0.2601169,-0.120967,1.598655,0.231012,-0.09243222,1.554003,NA,NA,NotTracked,Unknown,
1.028809,-0.2729492,0.08984375,-0.590332,0.5961914,0.6235352,0,-1,-2,-6,1,0,2,2,0,9,-26,-5,-1,-2,-2,-6,-27.125,-27.125,-27.125,23.5625,23.5625,23.5625,3.079577,2.88493,5.953327,6.420956,5.892923,3.304063,-0.2518901,-0.4229102,1.507374,0.01819568,0.1490517,1.391938,-0.01646337,0.4311214,1.613868,-0.1971969,-0.4127898,1.482558,-0.02135208,0.1478504,1.353625,-0.03389608,-0.02874388,1.60703,-0.04140468,-0.3431885,1.583475,-0.2151494,0.1539824,1.586622,-0.1204708,-0.3342974,1.548457,-0.2598851,-0.1206181,1.597172,0.1968833,-0.06671046,1.521098,NA,NA,NotTracked,Unknown,
1.027832,-0.28125,0.1289063,-0.5419922,0.6079102,0.6254883,-2,-2,-3,-8,0,-2,-5,-1,22,25,15,-2,-18,2,3,8,-17.875,-17.875,-17.875,12,12,12,3.132191,2.91765,5.877587,6.537698,6.130385,3.471853,-0.2460537,-0.418634,1.497138,0.02029089,0.2263619,1.420625,-0.01847358,0.4349109,1.612516,-0.1922159,-0.4184497,1.475,-0.009191193,0.1921651,1.406591,-0.03676875,-0.03196725,1.604545,-0.04255922,-0.3459542,1.582881,-0.2158151,0.1541539,1.586223,-0.1222933,-0.3371148,1.551269,-0.2593747,-0.118634,1.594298,0.1850641,-0.06646886,1.48785,NA,NA,NotTracked,Unknown,
0.9956055,-0.3212891,0.1206055,-0.2958984,0.5546875,0.5512695,1,3,8,3,9,11,29,6,-7,-32,8,2,-19,-10,-13,-13,6.125,6.125,6.125,-0.625,-0.625,-0.625,3.20458,2.980483,5.797685,6.60871,6.224121,3.579049,-0.2409472,-0.4162429,1.488728,0.0208253,0.2508484,1.445541,-0.01926079,0.4359351,1.612147,-0.189059,-0.3982488,1.471362,-0.003811431,0.183431,1.511312,-0.03708497,-0.03239228,1.604375,-0.042679,-0.3463462,1.582801,-0.2168659,0.1541166,1.586412,-0.122468,-0.3376839,1.551925,-0.2590243,-0.1173762,1.592945,0.1782079,-0.06157478,1.472813,NA,NA,NotTracked,Unknown,
1.063965,-0.3168945,0.1601563,-0.2958984,0.5546875,0.5512695,3,0,-2,0,-1,10,11,6,-19,-27,-35,-30,-21,-9,1,-13,12.125,12.125,12.125,-0.625,-0.625,-0.625,3.323164,3.079847,5.689909,6.60871,6.224121,3.579049,-0.2334658,-0.4109083,1.476904,0.02136985,0.2652303,1.46963,-0.01934923,0.435784,1.61199,-0.1824811,-0.385363,1.465917,-0.01088018,0.1983994,1.522714,-0.03711902,-0.03249788,1.604291,-0.04264141,-0.3465452,1.58266,-0.2173741,0.1541265,1.586378,-0.122438,-0.3379283,1.552238,-0.2589258,-0.1162343,1.590864,0.177099,-0.06071977,1.461923,NA,NA,NotTracked,Unknown,
1.066406,-0.4741211,0.3720703,-0.4121094,0.5322266,0.4907227,-4,-5,-3,-8,12,21,3,-1,6,18,-1,29,21,2,-5,-8,-27.3125,-27.3125,-27.3125,-25.9375,-25.9375,-25.9375,3.43328,3.220796,5.55219,6.678495,6.308588,3.698484,-0.2224771,-0.4022642,1.460425,0.02036363,0.2593901,1.480135,-0.01949026,0.4355143,1.611939,-0.1740307,-0.363969,1.4587,-0.01767292,0.1985992,1.523708,-0.03710497,-0.03250058,1.604271,-0.04204959,-0.3464848,1.582368,-0.2178782,0.1542043,1.586444,-0.1218378,-0.3379916,1.552454,-0.2590578,-0.1147798,1.589331,0.1759235,-0.05694135,1.458846,NA,NA,NotTracked,NotTracked,
1.00293,-0.6757813,0.5932617,-0.3071289,0.5200195,0.3022461,-6,-8,-15,0,-3,-26,2,-2,-3,10,3,9,18,4,-5,-10,-48.5625,-48.5625,-48.5625,-43.75,-43.75,-43.75,3.508067,3.423424,5.407683,6.914153,6.486566,4.094389,-0.207313,-0.3861026,1.441331,0.01720567,0.2548703,1.47717,-0.01963404,0.4355685,1.612084,-0.1652613,-0.3646575,1.456271,-0.02358055,0.1950861,1.52298,-0.03701451,-0.032473,1.604231,-0.04119727,-0.346275,1.582064,-0.218358,0.154341,1.586657,-0.1210953,-0.3380328,1.552926,-0.2593398,-0.1122976,1.588652,0.1751166,-0.05501251,1.458366,NA,NA,Unknown,NotTracked,
0.8657227,-0.7880859,0.9018555,-0.4619141,0.4272461,0.07421875,-4,3,-21,18,27,7,-9,0,10,7,9,-5,-17,-4,-2,16,-14.3125,-14.3125,-14.3125,-14.875,-14.875,-14.875,3.601909,3.706765,5.256745,6.934249,6.489927,4.164208,-0.1614924,-0.3126194,1.375535,0.009235934,0.2472974,1.448593,-0.02120048,0.4382185,1.61478,-0.1646322,-0.3403313,1.3742,-0.02728094,0.1895476,1.514577,-0.03617145,-0.03317305,1.60349,-0.03663044,-0.347427,1.580344,-0.2195158,0.1546348,1.587213,-0.1171194,-0.3407668,1.552731,-0.2617271,-0.09379668,1.585713,0.1739407,-0.05519207,1.458611,NA,NA,Unknown,Unknown,
0.4477539,-0.7514648,0.8193359,-1.152832,0.4765625,0.277832,-10,-10,-4,-5,49,26,1,-4,4,17,8,21,32,-9,-15,-13,-2.6875,-2.6875,-2.6875,-61.375,-61.375,-61.375,3.689642,4.047232,5.12131,6.703891,6.35553,3.928841,-0.1107255,-0.2585701,1.3805,0.005761382,0.2403791,1.439057,-0.02200849,0.4395706,1.616241,-0.1118659,-0.3392524,1.39275,-0.02898333,0.1828993,1.5083,-0.03605384,-0.03347285,1.603272,-0.03655026,-0.3475131,1.580309,-0.2202417,0.1547957,1.587562,-0.1170027,-0.3409832,1.552731,-0.2621585,-0.0815563,1.582121,0.1729952,-0.05567393,1.45883,NA,NA,Unknown,Unknown,
0.3203125,-0.6831055,0.7011719,-1.152832,0.4765625,0.277832,8,9,29,38,17,-9,13,13,-14,2,4,-5,-5,2,4,-2,-23.125,-23.125,-23.125,-61.375,-61.375,-61.375,3.735006,4.414927,4.982021,6.703891,6.35553,3.928841,-0.09438789,-0.183055,1.352899,0.001164132,0.2380987,1.435297,-0.0221657,0.4398252,1.616479,-0.05624394,-0.2168111,1.401286,-0.02991244,0.174978,1.502875,-0.03602466,-0.03357765,1.603281,-0.03680669,-0.3476286,1.580828,-0.2204885,0.1548668,1.587629,-0.1170155,-0.3408578,1.553297,-0.2612276,-0.06452536,1.57399,0.1709795,-0.0569248,1.45746,NA,NA,Unknown,Unknown,
0.2646484,-0.6142578,0.8037109,-0.9375,0.7089844,0.3847656,13,18,5,-2,-17,4,11,19,11,5,5,1,-2,1,9,11,-50.8125,-50.8125,-50.8125,-14,-14,-14,3.726846,4.79957,4.813444,6.663631,6.337648,3.896632,-0.05863925,-0.1161667,1.337522,-0.001657354,0.2371549,1.434193,-0.02213031,0.4401078,1.616801,-0.02958411,-0.1744258,1.4011,-0.03088827,0.1735212,1.503471,-0.03607668,-0.03352061,1.603295,-0.03709636,-0.3476039,1.581172,-0.220484,0.1548885,1.587628,-0.1171783,-0.340708,1.553407,-0.261467,-0.06403774,1.566287,0.163102,-0.0587372,1.454368,NA,NA,Unknown,Unknown,
0.08837891,-0.5092773,0.7749023,-0.5859375,0.612793,0.4018555,15,18,-8,-52,-8,8,-14,3,-4,12,10,5,3,2,0,2,-50.3125,-50.3125,-50.3125,4.9375,4.9375,4.9375,3.682053,5.186033,4.65735,6.701674,6.388926,3.944181,-0.04788543,-0.04858508,1.337702,-0.007026601,0.2384587,1.428137,-0.02209208,0.4402169,1.616894,-0.008263127,-0.07989146,1.387,-0.03164993,0.1726208,1.500063,-0.03635104,-0.03391049,1.603043,-0.03731764,-0.3476067,1.58154,-0.2205472,0.1549064,1.587586,-0.1172765,-0.3405635,1.553695,-0.2632583,-0.06259345,1.548513,0.1581111,-0.0572925,1.446605,NA,NA,Unknown,Unknown,
0.08837891,-0.5092773,0.7749023,-0.5859375,0.612793,0.4018555,15,18,-8,-52,-8,8,-14,3,-4,12,10,5,3,2,0,2,-50.3125,-50.3125,-50.3125,4.9375,4.9375,4.9375,3.682053,5.186033,4.65735,6.701674,6.388926,3.944181,-0.03070118,0.02678956,1.338579,-0.004377858,0.2319119,1.420312,-0.02203915,0.4400001,1.616493,0.02354711,0.0307282,1.315133,-0.02900911,0.1834105,1.404843,-0.03700525,-0.03443781,1.60323,-0.03806449,-0.348049,1.582135,-0.2206128,0.1550397,1.587528,-0.1178291,-0.3406421,1.55441,-0.258071,-0.06078139,1.530186,0.147238,-0.05259307,1.435574,NA,NA,Unknown,NotTracked,
0.2919922,-0.5625,0.6425781,-0.6625977,0.5791016,0.5224609,-5,-6,-9,7,-10,-10,-2,-5,-7,2,1,-1,-5,-5,-1,-5,-61.875,-61.875,-61.875,3.1875,3.1875,3.1875,3.511631,5.613365,4.432014,6.700862,6.416055,3.942257,-0.03006646,0.08342325,1.346866,0.001451918,0.1280544,1.348809,-0.02186793,0.4404644,1.616245,0.003244143,0.06646925,1.351062,-0.04852274,0.09490563,1.315926,-0.03762775,-0.0337597,1.600248,-0.03939048,-0.3509749,1.583084,-0.2156166,0.1570272,1.584684,-0.119334,-0.3428158,1.556662,-0.2436548,-0.05541451,1.507119,0.1447804,-0.06398586,1.430081,NA,NA,NotTracked,NotTracked,
-0.02636719,0,-0.7006836,-0.3974609,0.7041016,0.4755859,0,6,-5,-15,-7,0,-16,9,-4,1,6,25,-5,1,-1,-8,-50.8125,-50.8125,-50.8125,13.5625,13.5625,13.5625,3.466236,5.703837,4.401446,6.594297,6.326805,3.729583,-0.02623615,0.1101585,1.365393,-0.01289455,0.1710192,1.366814,-0.02209756,0.4410329,1.615808,0.01896147,0.1100686,1.351,-0.05603615,0.1120535,1.3425,-0.03846055,-0.03230581,1.600231,-0.04007715,-0.3521652,1.583339,-0.2178656,0.1567156,1.584766,-0.1203454,-0.3439565,1.557722,-0.236866,-0.05363688,1.497392,0.141795,-0.06350197,1.429095,NA,NA,NotTracked,NotTracked,
1.21875,-1.058594,1.057129,-1.057617,0.6723633,1.066895,-12,-18,1,7,1,-9,1,-10,10,1,-5,1,-13,-12,1,4,-65.9375,-65.9375,-65.9375,-54.75,-54.75,-54.75,3.385785,5.638385,4.493412,6.527452,6.313623,3.704379,0.005640897,0.1102178,1.378773,-0.005754399,0.2421645,1.369044,-0.01988248,0.4643551,1.611401,0.06987805,0.03777635,1.374698,-0.046777,0.1771343,1.337267,-0.03878229,-0.0234656,1.597087,-0.04059911,-0.3539075,1.583456,-0.2109806,0.154378,1.576197,-0.1211459,-0.345276,1.558372,-0.2334126,-0.05631477,1.490807,0.1398511,-0.06941417,1.425219,NA,NA,NotTracked,NotTracked,
-0.3598633,-0.293457,0.5917969,-0.6391602,0.4335938,0.1152344,-3,-3,1,-2,-9,1,10,-5,18,2,3,-2,5,-5,0,19,47.5625,47.5625,47.5625,7.4375,7.4375,7.4375,3.491664,5.491499,4.466576,6.530144,6.387287,3.658874,0.003867479,0.1143053,1.375346,-0.002897862,0.2476131,1.371388,-0.022061,0.4593017,1.613432,0.0687391,0.03915626,1.375022,-0.05156333,0.1752204,1.329824,-0.0390351,-0.02305113,1.597352,-0.04071954,-0.3540857,1.583556,-0.215629,0.1545498,1.578566,-0.1214506,-0.3454835,1.559086,-0.2337248,-0.05547215,1.489979,0.1375241,-0.06633397,1.424111,NA,NA,NotTracked,NotTracked,
-0.4458008,-0.659668,0.5073242,-1.129395,0.8691406,0.2202148,0,3,-6,-9,-4,-3,-22,-6,10,-4,-7,-10,-9,56,51,74,-99.375,-99.375,-99.375,147.9375,147.9375,147.9375,3.428813,5.353422,4.508155,6.640319,6.428328,3.619875,0.01101191,0.1116389,1.353864,-0.008875096,0.2800399,1.376134,-0.02457107,0.4471308,1.618027,0.0722587,0.04743953,1.370645,-0.04091894,0.2657788,1.340654,-0.04166045,-0.02506206,1.599592,-0.0411649,-0.3548292,1.583728,-0.2183248,0.1557178,1.580698,-0.1224916,-0.3463804,1.561721,-0.2399519,-0.05066717,1.483573,0.1371042,-0.05920913,1.417177,NA,NA,NotTracked,NotTracked,
-0.2470703,-1.033691,0.7138672,-1.067871,0.7177734,0.1479492,-7,-8,-11,3,-27,-14,-23,-7,2,12,8,16,-18,15,18,-74,-122.4375,-122.4375,-122.4375,150.5,150.5,150.5,3.296818,5.245412,4.543845,6.842731,6.479274,3.66059,0.01618654,0.09516492,1.340202,-0.01109653,0.2784261,1.363144,-0.02444831,0.4479395,1.621306,0.079425,0.04758633,1.362192,-0.03041069,0.2734446,1.323654,-0.04207613,-0.02583352,1.6004,-0.04126739,-0.3549244,1.583809,-0.2191831,0.1560571,1.581441,-0.1229276,-0.3467498,1.563784,-0.2413933,-0.0495326,1.482558,0.1415928,-0.05258426,1.412474,NA,NA,NotTracked,NotTracked,
-0.07617188,-1.018066,0.5063477,-1.051758,0.4667969,0.1606445,0,-1,10,-10,-5,-8,12,-4,-5,-1,3,24,-39,8,12,-56,-89.9375,-89.9375,-89.9375,218.1875,218.1875,218.1875,3.184226,5.174525,4.52235,7.116157,6.479704,3.71737,0.02023153,0.06936547,1.325691,-0.03093964,0.3014546,1.35867,-0.02428765,0.4479922,1.622144,0.08806803,0.02981302,1.368546,-0.04268668,0.3103571,1.303583,-0.04201232,-0.02591666,1.600555,-0.04130195,-0.353619,1.583743,-0.2194331,0.1561236,1.581659,-0.1227122,-0.3454341,1.563423,-0.2423927,-0.04771866,1.478919,0.1151384,0.02055544,1.358956,NA,NA,NotTracked,NotTracked,
-0.04638672,-0.9907227,0.5014648,-0.9433594,0.5322266,0.1630859,-3,-5,-1,1,-7,15,40,-4,9,5,12,15,20,63,-27,29,-71.875,-71.875,-71.875,219.1875,219.1875,219.1875,3.103387,5.121168,4.461409,7.276292,6.464922,3.76609,0.03008123,0.05463123,1.315045,-0.03797884,0.2796393,1.353825,-0.02430373,0.448109,1.622047,0.04570021,0.02784319,1.274963,-0.04190863,0.2905388,1.2763,-0.04180976,-0.02578885,1.600862,-0.0413391,-0.3508687,1.584074,-0.2196513,0.1562488,1.581903,-0.1221779,-0.3425912,1.562323,-0.2439453,-0.04596429,1.47593,0.119778,0.02290662,1.360872,NA,NA,NotTracked,NotTracked,
-0.01171875,-0.9423828,0.402832,-0.7290039,0.5063477,-0.01318359,-2,-3,-2,-8,6,-6,30,8,18,8,-1,-7,100,84,37,46,-41.625,-41.625,-41.625,74.3125,74.3125,74.3125,3.053324,5.092563,4.395156,7.630226,6.281593,3.924923,0.04744792,0.03716668,1.312767,-0.02083784,0.2161991,1.309005,-0.02385958,0.4469703,1.623642,0.04430079,0.01091009,1.270857,-0.05237127,0.2270691,1.239125,-0.04122213,-0.02523178,1.600409,-0.04042241,-0.3474277,1.584532,-0.2157382,0.1550312,1.578446,-0.1206725,-0.3391533,1.559887,-0.2498123,-0.04590758,1.472965,0.132325,0.05989644,1.373575,NA,NA,NotTracked,NotTracked,
0.01464844,-0.9155273,0.3383789,-0.543457,0.1992188,0.08154297,-3,-3,-5,0,-7,-5,-5,5,-1,1,-7,5,-121,-128,21,32,-26.5625,-26.5625,-26.5625,32.25,32.25,32.25,3.015061,5.0724,4.34863,7.656435,6.154715,3.937946,0.04945906,0.03703944,1.316962,-0.05524245,0.1858777,1.273787,-0.02395795,0.4410051,1.62697,0.06124538,0.01155937,1.268125,-0.06506122,0.1706472,1.2249,-0.03990382,-0.02469718,1.601936,-0.04001803,-0.3478256,1.584805,-0.2170052,0.1540532,1.578673,-0.1197289,-0.3401171,1.557557,-0.2496161,-0.0464436,1.471715,0.133482,0.06048335,1.370674,NA,NA,NotTracked,NotTracked,
0.06787109,-0.7944336,0.2822266,0.1210938,0.2880859,-0.002929688,-1,0,-1,-1,-9,-12,7,-1,-5,0,0,8,27,33,-9,-16,-11.6875,-11.6875,-11.6875,39.875,39.875,39.875,3.002176,5.042525,4.315509,7.704153,5.417674,3.860485,0.04373388,0.03070441,1.318665,-0.06235943,0.1381765,1.260697,-0.02422884,0.4381505,1.628717,0.02730828,0.003111725,1.287944,-0.06055958,0.1170085,1.214333,-0.03927086,-0.02411143,1.603729,-0.03940799,-0.3464503,1.585411,-0.2185073,0.1554769,1.580511,-0.1188955,-0.3389919,1.55729,-0.2479049,-0.04370184,1.469721,0.1330674,0.06026487,1.366449,NA,NA,NotTracked,NotTracked,
0.1137695,-0.7993164,0.1796875,0.09667969,0.6132813,0.112793,-3,-2,-2,1,2,-2,5,-8,-1,1,-4,-16,20,-31,10,-5,-29.0625,-29.0625,-29.0625,52.1875,52.1875,52.1875,2.972319,4.972153,4.302774,7.723063,5.039917,3.828983,-0.01519889,0.0518699,1.279286,-0.07657903,0.03620877,1.256014,-0.02416771,0.4361937,1.629566,0.005983793,-0.004884256,1.3,-0.058396,-0.0104807,1.220176,-0.03881999,-0.01934642,1.606773,-0.03895637,-0.3275684,1.589147,-0.2032433,0.159212,1.578233,-0.1157102,-0.318607,1.561653,-0.2483018,-0.03843482,1.47049,0.1323734,0.06058595,1.366267,NA,NA,NotTracked,NotTracked,
0.3432617,-0.6953125,0.2700195,0.2832031,1.160156,-0.2421875,-2,-2,1,1,-1,-1,0,-2,-3,-1,1,-5,-18,9,-11,-1,20.0625,20.0625,20.0625,-10.125,-10.125,-10.125,2.976415,4.837233,4.29234,7.694367,4.782445,3.78932,-0.04617107,-0.03683831,1.27246,-0.03386761,-0.01928763,1.271888,-0.02449421,0.434477,1.630285,-0.05337647,-0.09186581,1.245687,-0.03276536,-0.08778375,1.252769,-0.03694063,-0.01861125,1.613083,-0.0377806,-0.3255236,1.58945,-0.2003253,0.1594732,1.577237,-0.1140488,-0.3167752,1.559393,-0.2511683,-0.0373546,1.470814,0.1358103,0.04827828,1.36684,NA,NA,NotTracked,NotTracked,
0.2172852,-0.8671875,0.4042969,0.3955078,0.8862305,0.3271484,-2,-1,1,2,1,-1,5,2,-1,-2,-4,-3,-28,4,-5,3,33.9375,33.9375,33.9375,-20.1875,-20.1875,-20.1875,3.011826,4.691803,4.297149,7.673466,4.634859,3.749704,-0.03739252,-0.04328329,1.279765,-0.0301255,-0.04308743,1.277625,-0.02483578,0.4336923,1.630863,-0.05374872,-0.08425869,1.238862,-0.02811398,-0.1116517,1.257364,-0.03657542,-0.01861143,1.614805,-0.0373721,-0.3252219,1.589698,-0.2000194,0.1596254,1.577167,-0.1135498,-0.3166079,1.559012,-0.252062,-0.03788947,1.472895,0.1404913,0.02748923,1.373347,NA,NA,NotTracked,NotTracked,
0.4692383,-0.9008789,0.4384766,0.6044922,0.9775391,0.1708984,-1,-1,-1,1,-1,-1,1,-1,1,1,0,-1,1,-32,-3,-9,49.125,49.125,49.125,-7.25,-7.25,-7.25,3.054953,4.529963,4.325921,7.662474,4.590041,3.735574,-0.04357312,-0.07792533,1.271166,-0.0390343,-0.09916153,1.283179,-0.02505888,0.4332606,1.630828,-0.04290719,-0.1325418,1.24775,-0.0507445,-0.1697336,1.271583,-0.03632938,-0.01833209,1.615906,-0.03676567,-0.3245014,1.590226,-0.199811,0.1597876,1.577145,-0.1129041,-0.3160309,1.558746,-0.2548816,-0.04000151,1.479942,0.1302473,-0.01687812,1.368238,NA,NA,NotTracked,NotTracked,
0.3779297,-0.9052734,0.4370117,0.4428711,1.25,-0.1381836,1,-3,0,4,9,5,2,0,-3,-2,-1,0,8,13,11,-2,101.25,101.25,101.25,-124.8125,-124.8125,-124.8125,3.140671,4.382102,4.373173,7.563187,4.602418,3.706766,-0.0541002,-0.09478623,1.280444,-0.030673,-0.08769259,1.284441,-0.02518618,0.4331245,1.630776,-0.06843269,-0.1365688,1.258615,0.003603764,-0.1331827,1.286696,-0.03619638,-0.01844511,1.616649,-0.03629051,-0.3245467,1.590811,-0.1997077,0.1599029,1.57713,-0.112531,-0.3160997,1.5587,-0.2586891,-0.042174,1.48864,0.1864357,0.01317503,1.417208,NA,NA,NotTracked,NotTracked,
0.3461914,-0.7915039,0.4697266,0.4228516,0.7363281,0.1606445,1,-1,0,-1,-8,-7,-3,0,2,5,4,-1,4,5,2,2,111.125,111.125,111.125,-153.125,-153.125,-153.125,3.191127,4.303223,4.40361,7.321805,4.605188,3.602989,-0.04875575,-0.1001244,1.288513,-0.03740086,-0.1051372,1.282872,-0.02548506,0.4326735,1.63027,-0.07361872,-0.1407507,1.261636,-0.03350805,-0.16732,1.263125,-0.03614474,-0.01883609,1.617004,-0.03587261,-0.3252091,1.591138,-0.2007116,0.1598717,1.57702,-0.1119243,-0.3169851,1.558241,-0.2665193,-0.04490837,1.50339,0.1956943,0.00434446,1.427144,NA,NA,NotTracked,NotTracked,
0.5874023,-0.7875977,0.4663086,0.3569336,0.7587891,0.2070313,-2,-1,1,3,1,3,-1,0,2,0,-1,-2,1,-1,-2,2,121.1875,121.1875,121.1875,-131.375,-131.375,-131.375,3.316876,4.057631,4.534071,7.257054,4.593296,3.567251,-0.07109504,-0.1684165,1.32874,-0.01902345,-0.1399571,1.295924,-0.0260717,0.4317405,1.628064,-0.06206234,-0.1951553,1.272706,-0.01239145,-0.1860234,1.284421,-0.03629146,-0.02008505,1.617072,-0.03531602,-0.3286513,1.591465,-0.2030777,0.1598338,1.576714,-0.1110202,-0.3207288,1.556282,-0.2732416,-0.04836757,1.524408,0.2148274,-0.02170621,1.46262,NA,NA,NotTracked,NotTracked,
0.4931641,-0.7099609,0.5576172,0.3261719,0.890625,0.2949219,0,-2,-2,-2,1,1,0,-2,0,-1,2,0,3,3,2,0,127.375,127.375,127.375,-91.3125,-91.3125,-91.3125,3.401804,3.883849,4.628677,7.161151,4.52962,3.486326,-0.07922991,-0.1796276,1.383226,-0.02509255,-0.1980847,1.325619,-0.02634307,0.4312626,1.626062,-0.1139902,-0.2551674,1.380786,0.01168901,-0.2906939,1.358846,-0.0363342,-0.02048934,1.616862,-0.03518305,-0.329515,1.591587,-0.2044763,0.1597241,1.576812,-0.1107973,-0.3221022,1.555641,-0.2764962,-0.05034396,1.536765,0.2300193,-0.02345382,1.480852,NA,NA,NotTracked,NotTracked,
0.7402344,-0.6918945,0.5283203,0.2524414,0.956543,0.4902344,-1,-1,0,-2,-1,-3,-17,-5,0,-1,1,2,5,7,-2,0,121.375,121.375,121.375,-124.8125,-124.8125,-124.8125,3.451439,3.713423,4.753572,7.011914,4.38119,3.357012,-0.1045968,-0.2066911,1.427221,-0.04679843,-0.2681995,1.362535,-0.02648482,0.4310358,1.624652,-0.05759849,-0.1266653,1.418875,-0.03233849,-0.3198855,1.339467,-0.03630381,-0.02114815,1.616467,-0.0345882,-0.3309375,1.591638,-0.2051354,0.1596756,1.576868,-0.110043,-0.3245295,1.554853,-0.2791755,-0.05437798,1.545962,0.2258642,-0.03581925,1.506005,NA,NA,NotTracked,NotTracked,
0.6367188,-0.7431641,0.5200195,0.3095703,0.8598633,0.4892578,0,-1,0,-1,3,1,-1,-1,0,0,-2,-1,-2,4,1,2,176.75,176.75,176.75,-145.4375,-145.4375,-145.4375,3.520946,3.55397,4.89855,6.901233,4.236903,3.24861,-0.1194549,-0.3149374,1.401619,0.02930422,-0.2285766,1.356988,-0.02672604,0.4306627,1.622268,-0.08372979,-0.3026356,1.3714,0.02332929,-0.2034526,1.308382,-0.03610542,-0.02201801,1.615304,-0.03406825,-0.3321926,1.590801,-0.2055531,0.1594166,1.576912,-0.1097302,-0.3256535,1.553527,-0.2790017,-0.06427316,1.556578,0.2242095,-0.04311583,1.5251,NA,NA,NotTracked,NotTracked,
0.918457,-0.4472656,0.3964844,0.3027344,0.8378906,0.5517578,-3,-1,-4,-1,-1,-1,-1,-2,-2,-3,-2,0,-3,-1,0,0,160.875,160.875,160.875,-146.4375,-146.4375,-146.4375,3.586987,3.313964,5.176404,6.847316,4.160668,3.188972,-0.1626527,-0.3497828,1.440352,0.07189429,-0.2881236,1.407143,-0.02679591,0.4308029,1.619034,-0.1213763,-0.3099223,1.446187,0.06391224,-0.2778377,1.347222,-0.03592685,-0.02372365,1.61043,-0.03404586,-0.3348721,1.585872,-0.2074195,0.1586067,1.577016,-0.1113842,-0.3271192,1.548457,-0.2763328,-0.07805399,1.574165,0.220369,-0.05431361,1.562222,NA,NA,Unknown,Unknown,
0.8823242,-0.5463867,0.4140625,0.3530273,0.8481445,0.6264648,0,0,0,0,-2,-1,1,-1,-2,-4,-6,-3,-2,-3,-1,-6,144.6875,144.6875,144.6875,-131.875,-131.875,-131.875,3.575521,3.246519,5.280108,6.808681,4.079112,3.120083,-0.1838286,-0.3611144,1.455809,0.105787,-0.3247115,1.403773,-0.02650455,0.4308722,1.616765,-0.1361404,-0.3198742,1.452451,0.06725773,-0.3087471,1.382406,-0.03606793,-0.02403919,1.608659,-0.03500562,-0.3353952,1.584259,-0.2078458,0.1582613,1.577047,-0.1131708,-0.3273147,1.546728,-0.271842,-0.09115711,1.585421,0.2189206,-0.06224677,1.57416,NA,NA,Unknown,Unknown,
0.8476563,-0.5014648,0.3037109,0.5063477,0.8291016,0.4829102,0,-2,-1,-1,-2,-2,-1,-3,0,-1,-2,-3,-4,0,0,-4,134.3125,134.3125,134.3125,-113.125,-113.125,-113.125,3.540682,3.119093,5.485499,6.732912,3.730809,2.835918,-0.2032797,-0.3850852,1.467035,0.1266094,-0.3506166,1.432009,-0.0260979,0.4308266,1.615323,-0.1530926,-0.348742,1.4553,0.08699758,-0.3456489,1.40937,-0.03614458,-0.02431135,1.6075,-0.0353949,-0.3357188,1.583301,-0.2081966,0.1580097,1.577072,-0.1139664,-0.3274218,1.545436,-0.2694429,-0.09882978,1.593177,0.2140512,-0.07928658,1.588287,NA,NA,NotTracked,Unknown,
0.972168,-0.3432617,0.1591797,0.6367188,0.7143555,0.4282227,0,-2,0,-2,-1,0,-2,0,-1,0,-1,1,-2,0,-1,-1,82.1875,82.1875,82.1875,-81.5,-81.5,-81.5,3.36112,2.937539,5.858552,6.747828,3.56152,2.681379,-0.2187554,-0.3992821,1.481806,0.14474,-0.3697236,1.459435,-0.02581733,0.4310205,1.614321,-0.1638681,-0.3789877,1.456772,0.1023014,-0.3585072,1.448373,-0.03614174,-0.02450285,1.606802,-0.03554874,-0.3358982,1.582993,-0.2084671,0.1578383,1.57717,-0.114253,-0.3274443,1.544953,-0.2677756,-0.1045959,1.59971,0.2112634,-0.08842381,1.596693,NA,NA,NotTracked,Unknown,
1.016113,-0.2958984,0.1103516,0.7041016,0.6918945,0.3833008,0,-2,-3,-2,-2,-1,0,0,-1,0,-2,-1,0,-2,-1,-1,56.4375,56.4375,56.4375,-67.6875,-67.6875,-67.6875,3.248855,2.885449,6.007099,6.811822,3.404778,2.506008,-0.2361624,-0.4112378,1.497995,0.1622044,-0.3901845,1.480845,-0.02548147,0.4311074,1.613447,-0.1788869,-0.4065284,1.463159,0.1121191,-0.3635405,1.47075,-0.03601599,-0.02470317,1.606249,-0.03564464,-0.3360691,1.582917,-0.2085648,0.1577272,1.577178,-0.1143326,-0.327497,1.544878,-0.2670883,-0.1087625,1.603364,0.2100522,-0.09999892,1.604706,NA,NA,NotTracked,Unknown,
1.106445,-0.1699219,0.02539063,0.8613281,0.590332,0.3198242,-13,-6,-4,-3,-5,-6,-10,-40,-1,0,-2,0,-1,1,-2,0,-1.25,-1.25,-1.25,-49.5625,-49.5625,-49.5625,2.804543,2.77599,6.488704,6.934392,3.258793,2.293356,-0.2650879,-0.4295302,1.532179,0.1954788,-0.4289534,1.524247,-0.0247789,0.4310726,1.611913,-0.2049079,-0.4056852,1.490767,0.1373673,-0.4083181,1.498647,-0.03565422,-0.02499335,1.605587,-0.03577925,-0.3366077,1.582871,-0.2085607,0.1576466,1.577162,-0.1144157,-0.3277918,1.544813,-0.2675161,-0.1141866,1.607383,0.2073191,-0.1126624,1.61448,NA,NA,NotTracked,NotTracked,
1.093262,-0.1484375,0.001953125,1.069824,0.5668945,0.168457,0,0,-1,-1,-2,0,0,5,-1,-2,-2,-1,-2,4,0,1,-28.9375,-28.9375,-28.9375,-38.1875,-38.1875,-38.1875,2.534031,2.7477,6.737063,7.110412,3.143751,2.050986,-0.2779193,-0.4330316,1.548843,0.2109503,-0.4375146,1.545888,-0.02435211,0.4310018,1.611222,-0.2142098,-0.4135759,1.5058,0.1451534,-0.4135769,1.523435,-0.03548478,-0.02511885,1.60534,-0.03584038,-0.3369206,1.582898,-0.2084443,0.1575902,1.57706,-0.1144542,-0.3279929,1.544819,-0.2678462,-0.1167001,1.608373,0.2056579,-0.1196345,1.618538,NA,NA,NotTracked,NotTracked,
1.007813,-0.1806641,0.02099609,1.09082,0.4619141,-0.04003906,-2,1,3,1,1,0,3,13,0,0,-1,0,-1,-2,-2,-1,-30.125,-30.125,-30.125,-38.125,-38.125,-38.125,2.439913,2.747065,6.797021,7.268428,3.074234,1.836996,-0.2886117,-0.4333766,1.561237,0.2251498,-0.4440892,1.564999,-0.02380434,0.4308871,1.610529,-0.2208965,-0.4167377,1.519895,0.1886131,-0.4396625,1.546129,-0.03541477,-0.02517232,1.605173,-0.03595241,-0.337101,1.582938,-0.2084086,0.1575308,1.576984,-0.1145655,-0.3281074,1.544867,-0.2685246,-0.1189438,1.609092,0.2047696,-0.1234001,1.620924,NA,NA,NotTracked,NotTracked,
0.9379883,-0.1899414,0.09667969,1.063477,0.4042969,-0.06445313,6,-2,0,-1,0,1,-1,9,1,-1,0,-2,4,40,-2,-1,-15.5625,-15.5625,-15.5625,-27.3125,-27.3125,-27.3125,2.509317,2.762563,6.705361,7.361079,3.043372,1.705639,-0.2937253,-0.4328838,1.56704,0.2309685,-0.4441383,1.576993,-0.02309275,0.4308012,1.609824,-0.2242035,-0.4063038,1.521556,0.194723,-0.4376888,1.558605,-0.03524249,-0.0252594,1.604917,-0.036089,-0.3372093,1.58295,-0.2082272,0.1575679,1.576798,-0.1146954,-0.3281336,1.544886,-0.2690226,-0.1194445,1.609708,0.2046408,-0.1264496,1.62327,NA,NA,NotTracked,NotTracked,
0.9155273,-0.222168,0.1655273,0.9824219,0.3662109,0.03662109,-3,-1,-3,-3,-2,0,1,7,-1,0,-1,-2,3,-1,1,-1,-3.3125,-3.3125,-3.3125,-2.25,-2.25,-2.25,2.645848,2.792387,6.56235,7.375548,3.035339,1.679828,-0.2967734,-0.4289782,1.562642,0.2298207,-0.4436076,1.582334,-0.02184106,0.4307335,1.608788,-0.2262864,-0.3972925,1.527,0.1934321,-0.4413988,1.565512,-0.03502814,-0.02535737,1.604561,-0.03628327,-0.3373161,1.582993,-0.2080432,0.1576848,1.576758,-0.1148868,-0.3281383,1.544924,-0.2718925,-0.1197637,1.612153,0.2058399,-0.1288526,1.628216,NA,NA,NotTracked,NotTracked,
0.9257813,-0.2451172,0.1801758,0.9438477,0.3876953,0.1020508,-1,-2,0,0,-2,-2,-3,-4,-1,0,-2,-2,-4,-34,-2,-1,0.375,0.375,0.375,5.1875,5.1875,5.1875,2.785906,2.830423,6.421731,7.357974,3.038961,1.700514,-0.2957624,-0.4292569,1.554711,0.2254746,-0.4427897,1.577366,-0.02124871,0.4307107,1.608255,-0.2273926,-0.3910244,1.527222,0.1916893,-0.4377898,1.557641,-0.03485964,-0.02535176,1.604334,-0.03631456,-0.3373373,1.582974,-0.2079011,0.1577934,1.576672,-0.1149071,-0.3281309,1.544914,-0.272634,-0.1191734,1.612495,0.2066696,-0.1287984,1.630008,NA,NA,NotTracked,NotTracked,
0.9448242,-0.265625,0.15625,0.855957,0.434082,0.2480469,2,-1,0,0,2,1,0,4,0,-1,0,0,3,35,2,0,5.75,5.75,5.75,-5.375,-5.375,-5.375,2.908518,2.876936,6.302253,7.228872,3.075753,1.832086,-0.2932791,-0.4274652,1.543449,0.2207602,-0.4380709,1.569124,-0.02079623,0.4305966,1.607911,-0.2260121,-0.3974267,1.524558,0.1859435,-0.4340344,1.549565,-0.03452644,-0.02545465,1.604019,-0.03634449,-0.3373752,1.58291,-0.2077423,0.1578462,1.576594,-0.1149324,-0.3281376,1.544839,-0.2732232,-0.1191538,1.612727,0.2075569,-0.1285236,1.631886,NA,NA,NotTracked,NotTracked,
0.9614258,-0.2617188,0.1166992,0.8369141,0.4223633,0.2714844,-2,-1,-3,-1,-3,-1,-1,-6,-1,-1,-2,0,-1,-2,-1,-1,12.9375,12.9375,12.9375,-10.9375,-10.9375,-10.9375,3.016372,2.92597,6.20539,7.111827,3.120198,1.941103,-0.2884747,-0.424741,1.531356,0.2160308,-0.433779,1.559561,-0.02036127,0.4303478,1.607663,-0.2237991,-0.3851625,1.516231,0.1800911,-0.4306919,1.539884,-0.03434758,-0.02555963,1.603858,-0.0363614,-0.3374008,1.582878,-0.2075939,0.1578226,1.576581,-0.1149505,-0.3281406,1.5448,-0.2734085,-0.1189446,1.612646,0.2080937,-0.1280576,1.63287,NA,NA,NotTracked,NotTracked,
0.9638672,-0.2236328,0.03222656,0.8359375,0.3720703,0.2246094,0,-1,1,-2,0,-1,0,4,0,0,-1,-1,-2,-10,-3,-1,4.875,4.875,4.875,-5.0625,-5.0625,-5.0625,3.089607,2.966166,6.138137,6.964194,3.191725,2.080918,-0.2821237,-0.4228708,1.520518,0.2115236,-0.4293323,1.549492,-0.02001502,0.4302342,1.607419,-0.2208417,-0.3815751,1.51052,0.175125,-0.4252612,1.52922,-0.03411224,-0.02566879,1.603761,-0.03631241,-0.3374659,1.582857,-0.2075189,0.1577953,1.576612,-0.1148918,-0.3281979,1.544749,-0.2734554,-0.1191204,1.6123,0.2085576,-0.1274739,1.633314,NA,NA,NotTracked,NotTracked,
0.9638672,-0.2236328,0.03222656,0.8359375,0.3720703,0.2246094,0,-1,1,-2,0,-1,0,4,0,0,-1,-1,-2,-10,-3,-1,4.875,4.875,4.875,-5.0625,-5.0625,-5.0625,3.089607,2.966166,6.138137,6.964194,3.191725,2.080918,-0.2787132,-0.42258,1.509462,0.2042622,-0.4266746,1.539737,-0.01979221,0.4301271,1.607355,-0.2186314,-0.3789578,1.502765,0.1484271,-0.404601,1.523363,-0.03393741,-0.0257793,1.603778,-0.03623476,-0.3375682,1.582886,-0.2071913,0.1576199,1.576506,-0.1148067,-0.328262,1.544767,-0.2733227,-0.1189984,1.611436,0.2085704,-0.1273113,1.633316,NA,NA,NotTracked,NotTracked,
0.9946289,-0.2246094,0.04833984,0.8476563,0.3730469,0.2080078,-2,-1,1,0,0,-1,1,9,-3,-1,-2,0,-3,-22,1,-1,-11.3125,-11.3125,-11.3125,2.1875,2.1875,2.1875,3.132139,2.99755,6.083621,6.929841,3.213535,2.119212,-0.2733571,-0.4195483,1.500511,0.1957351,-0.4266134,1.529319,-0.01961008,0.4299326,1.607364,-0.2137949,-0.3850302,1.501857,0.1447216,-0.4188347,1.512111,-0.03380319,-0.02588276,1.60385,-0.03617136,-0.3376921,1.582863,-0.2070138,0.1575352,1.576559,-0.1147422,-0.3283553,1.544685,-0.2723463,-0.1192548,1.609408,0.2085176,-0.1271572,1.633261,NA,NA,NotTracked,NotTracked,
0.9804688,-0.2490234,0.06445313,0.9082031,0.3867188,0.1411133,-1,0,-2,-1,-1,0,-2,-3,-1,0,-2,0,0,-2,1,-1,-19.6875,-19.6875,-19.6875,23.625,23.625,23.625,3.161018,3.023685,6.03141,6.860761,3.269894,2.228358,-0.2670578,-0.4166534,1.490847,0.1899236,-0.4199947,1.518286,-0.01941257,0.4297681,1.607266,-0.209188,-0.3686246,1.49219,0.1412244,-0.3886843,1.500111,-0.0336787,-0.02592977,1.603862,-0.03611402,-0.3377689,1.582803,-0.2068266,0.157496,1.576608,-0.1146763,-0.3284037,1.544646,-0.2708905,-0.1193865,1.605586,0.2078676,-0.1265554,1.632116,NA,NA,NotTracked,NotTracked,
0.9643555,-0.2548828,0.08349609,0.8994141,0.3994141,0.1542969,-2,-1,-2,-1,0,0,0,7,-1,-2,0,-1,-2,-2,-1,-2,-20.1875,-20.1875,-20.1875,22.625,22.625,22.625,3.178839,3.044746,5.98731,6.827281,3.304785,2.296901,-0.2619395,-0.415618,1.483105,0.1839282,-0.4169945,1.50904,-0.01934507,0.429634,1.607251,-0.2040414,-0.392319,1.485917,0.1376172,-0.3890701,1.492229,-0.03357658,-0.02597963,1.603881,-0.03598324,-0.3378742,1.582689,-0.2066853,0.1574112,1.57665,-0.1145343,-0.3284943,1.544478,-0.2699543,-0.1192198,1.601851,0.2070126,-0.1255254,1.630315,NA,NA,NotTracked,NotTracked,
0.940918,-0.2641602,0.1157227,0.8740234,0.40625,0.190918,-4,-1,-1,-1,0,-1,-4,-4,0,-1,0,-1,-2,-13,-1,0,-12.375,-12.375,-12.375,14,14,14,3.195353,3.062434,5.951682,6.795299,3.33838,2.355029,-0.2581595,-0.4145763,1.477385,0.1794725,-0.4089963,1.503091,-0.01921226,0.4294606,1.607454,-0.1991323,-0.3918044,1.478167,0.132083,-0.3903458,1.483963,-0.03346901,-0.02615452,1.603972,-0.03593859,-0.3380321,1.582651,-0.2065589,0.1573107,1.576752,-0.1144742,-0.3286661,1.544406,-0.2692431,-0.1189879,1.599839,0.206459,-0.1250167,1.628323,NA,NA,NotTracked,NotTracked,
0.9345703,-0.2543945,0.1552734,0.8349609,0.4077148,0.1962891,-1,1,-3,-1,-1,-1,-1,0,-1,-1,-1,-1,0,1,2,0,-4.5625,-4.5625,-4.5625,3.9375,3.9375,3.9375,3.216737,3.07276,5.922024,6.768446,3.367916,2.393702,-0.2538953,-0.4117523,1.46956,0.170475,-0.4016981,1.490755,-0.01914373,0.4292587,1.60778,-0.1955987,-0.37139,1.476286,0.1256079,-0.3751236,1.479289,-0.03325883,-0.02645935,1.604216,-0.03590358,-0.3382952,1.582495,-0.2063837,0.1570816,1.576926,-0.1144604,-0.3289652,1.544136,-0.2679863,-0.1181762,1.59597,0.204584,-0.1226416,1.62471,NA,NA,NotTracked,NotTracked,
0.9282227,-0.2670898,0.1547852,0.8032227,0.4257813,0.2216797,-1,-3,-1,1,-1,-1,-2,-2,-1,0,-1,0,-2,-14,0,-1,1.8125,1.8125,1.8125,-1.0625,-1.0625,-1.0625,3.231387,3.075695,5.907627,6.751323,3.392493,2.413985,-0.2518859,-0.4115645,1.466973,0.1675749,-0.4019342,1.48616,-0.0190743,0.4290136,1.608338,-0.1944392,-0.3999442,1.472429,0.1230082,-0.373391,1.473834,-0.03315235,-0.02660745,1.604313,-0.03584506,-0.3385248,1.582307,-0.2062205,0.156857,1.577033,-0.1144191,-0.3291919,1.543911,-0.2676332,-0.1182378,1.594996,0.2040187,-0.121671,1.623666,NA,NA,NotTracked,NotTracked,
0.9370117,-0.2675781,0.152832,0.793457,0.4189453,0.2436523,0,-2,1,-3,-1,-2,0,-2,1,-1,0,-1,0,-9,-1,0,2.875,2.875,2.875,-2.8125,-2.8125,-2.8125,3.242971,3.064138,5.901948,6.738935,3.403206,2.423903,-0.2509828,-0.4113057,1.46604,0.1657123,-0.4012559,1.483425,-0.01904726,0.4289071,1.608545,-0.1952252,-0.3695588,1.476696,0.1206051,-0.3741762,1.472283,-0.03311295,-0.0266759,1.604377,-0.03582422,-0.3386198,1.582181,-0.2061716,0.1567655,1.577162,-0.1144019,-0.3292754,1.543798,-0.2674027,-0.1176376,1.593669,0.2034191,-0.1210841,1.622499,NA,NA,NotTracked,NotTracked,
0.9423828,-0.2700195,0.1479492,0.7998047,0.4223633,0.2426758,0,0,-1,-1,0,0,0,-2,-1,-1,-2,-2,-1,-3,1,-2,2.1875,2.1875,2.1875,0.4375,0.4375,0.4375,3.242954,3.055471,5.903256,6.741093,3.401107,2.419388,-0.2511481,-0.4115953,1.467534,0.1657524,-0.4018239,1.484131,-0.01890538,0.4287942,1.609031,-0.1948664,-0.3926007,1.476222,0.1189321,-0.3786944,1.471818,-0.03300355,-0.02682636,1.604564,-0.03579829,-0.338779,1.582143,-0.206063,0.1565464,1.577324,-0.1143809,-0.3294273,1.543767,-0.2671483,-0.1174538,1.593015,0.2032366,-0.1210059,1.622166,NA,NA,NotTracked,NotTracked,
0.9370117,-0.2739258,0.1328125,0.8178711,0.4423828,0.2304688,-1,0,-3,-1,0,-2,-1,-1,0,1,1,0,2,5,4,-1,4.875,4.875,4.875,1.9375,1.9375,1.9375,3.24058,3.036238,5.910485,6.756312,3.389525,2.403448,-0.2500731,-0.4127983,1.469136,0.1665159,-0.4029612,1.4839,-0.01883945,0.4287747,1.609407,-0.194649,-0.3968348,1.473,0.1182163,-0.3753317,1.468854,-0.03292839,-0.0269215,1.604608,-0.03576588,-0.3389415,1.582036,-0.2059384,0.1564381,1.577326,-0.1143565,-0.3296009,1.543536,-0.2668098,-0.1176604,1.592267,0.2029669,-0.1209478,1.621311,NA,NA,NotTracked,NotTracked,
