ALX,ALY,ALZ,ARX,ARY,ARZ,EMG0L,EMG1L,EMG2L,EMG3L,EMG4L,EMG5L,EMG6L,EMG7L,EMG0R,EMG1R,EMG2R,EMG3R,EMG4R,EMG5R,EMG6R,EMG7R,GLX,GLY,GLZ,GRX,GRY,GRZ,ORL,OPL,OYL,ORR,OPR,OYR,LHNX,LHNY,LHNZ,RHNX,RHNY,RHNZ,HX,HY,HZ,LTX,LTY,LTZ,RTX,RTY,RTZ,SpineMidX,SpineMidY,SpineMidZ,SpineBaseX,SpineBaseY,SpineBaseZ,ShoulderLeftX,ShoulderLeftY,ShoulderLeftZ,ShoulderRightX,ShoulderRightY,ShoulderRightZ,ElbowLeftX,ElbowLeftY,ElbowLeftZ,ElbowRightX,ElbowRightY,ElbowRightZ,Myo_Pose_left,Myo_Pose_Right,Kinect_pose_left,Kinect_pose_right
0.9082031,-0.378418,0.2553711,0.1831055,0.5844727,0.6796875,-1,-3,-2,1,-4,-4,4,0,4,-39,-85,-33,10,-6,-7,-10,-43.9375,-43.9375,-43.9375,-43.4375,-43.4375,-43.4375,3.218599,3.057244,5.400007,6.241584,4.266961,4.229267,-0.2404923,-0.4144647,1.460762,0.07552693,-0.1483228,1.386835,-0.009917704,0.4320999,1.600797,-0.186016,-0.3731967,1.463059,0.05824905,-0.2178823,1.424125,-0.02856125,-0.02663273,1.599369,-0.0368836,-0.3393223,1.578829,-0.1964882,0.1558207,1.565184,-0.1158484,-0.3282241,1.538902,-0.2547191,-0.1189958,1.569636,0.2075353,-0.0770523,1.620396,NA,NA,NotTracked,Unknown,
0.902832,-0.4301758,0.3134766,-0.1738281,0.5791016,0.6269531,1,0,-7,0,3,-2,2,-1,-23,-9,-15,8,14,1,1,-12,-41.375,-41.375,-41.375,-9.6875,-9.6875,-9.6875,3.262337,3.12797,5.302528,6.179049,4.633351,4.34323,-0.2367385,-0.4099576,1.447392,0.0458601,-0.08322367,1.377837,-0.009358998,0.4320146,1.60056,-0.186943,-0.3832247,1.464888,0.01449305,-0.1326157,1.409923,-0.02836948,-0.02646977,1.599276,-0.03652219,-0.3386321,1.578895,-0.1957318,0.1558225,1.56418,-0.1154516,-0.3276674,1.539049,-0.2548324,-0.1174298,1.568262,0.2058466,-0.06903423,1.587415,NA,NA,NotTracked,Unknown,
0.9301758,-0.453125,0.3535156,-0.4345703,0.4472656,0.5844727,-3,-4,-2,-3,-5,-4,-9,-3,-37,-28,4,6,-13,-5,-8,-10,-17.25,-17.25,-17.25,2.6875,2.6875,2.6875,3.328521,3.220065,5.204564,6.166276,5.025247,4.454156,-0.2307473,-0.4041553,1.427075,0.03666007,-0.003129498,1.377992,-0.00875794,0.4319066,1.600284,-0.185141,-0.3665415,1.4632,-0.003667861,-0.05045696,1.410224,-0.02818721,-0.02622487,1.599212,-0.03609734,-0.3379305,1.579048,-0.1950515,0.1561184,1.5634,-0.1149334,-0.3271285,1.539059,-0.2550095,-0.1144151,1.564892,0.2090121,-0.07010079,1.578539,NA,NA,NotTracked,Unknown,
0.9350586,-0.4057617,0.3618164,-0.4438477,0.5463867,0.6176758,-2,0,0,0,-10,-1,-1,0,13,-40,-6,-10,1,-3,-3,6,-17.3125,-17.3125,-17.3125,17.8125,17.8125,17.8125,3.40062,3.325965,5.107777,6.20144,5.4165,4.590626,-0.221523,-0.3979828,1.40315,0.02844976,0.06374872,1.392012,-0.008116321,0.4314697,1.599952,-0.1859107,-0.3910673,1.4458,0.01412771,0.05319322,1.339077,-0.0279014,-0.026292,1.599262,-0.03546421,-0.3380119,1.57915,-0.1965549,0.1556161,1.557564,-0.1143067,-0.3273855,1.539367,-0.2538802,-0.1120275,1.560985,0.2052589,-0.07609592,1.558123,NA,NA,Unknown,Unknown,
0.9321289,-0.4511719,0.3886719,-0.4707031,0.5458984,0.6796875,-2,-2,3,1,1,2,-4,1,-3,-30,-89,-17,-4,1,-2,-1,-29.5,-29.5,-29.5,8.125,8.125,8.125,3.452051,3.443524,5.015282,6.268729,5.771033,4.745899,-0.2089973,-0.383997,1.380198,0.01610049,0.1528366,1.379084,-0.007750439,0.4309739,1.599972,-0.1793885,-0.3983039,1.407222,0.03215755,0.1515981,1.34708,-0.02778301,-0.02623882,1.599317,-0.03470833,-0.3383462,1.579245,-0.1980533,0.1558751,1.555381,-0.1133097,-0.3284795,1.540907,-0.2524321,-0.1088229,1.55764,0.2044023,-0.07598339,1.550496,NA,NA,Unknown,Unknown,
0.9160156,-0.5185547,0.425293,-0.4399414,0.5932617,0.7470703,-1,-2,-3,2,-6,0,4,2,12,24,62,3,-14,-2,4,6,-27.875,-27.875,-27.875,5.9375,5.9375,5.9375,3.48774,3.58056,4.932057,6.375628,6.0471,4.934239,-0.1747571,-0.3443225,1.329468,0.0244945,0.2047385,1.427416,-0.007929307,0.4346149,1.600725,-0.1502006,-0.3507387,1.37225,0.06200402,0.1767578,1.394359,-0.02822522,-0.02769767,1.597297,-0.03172485,-0.3410775,1.578753,-0.1989564,0.1564128,1.553444,-0.1113431,-0.3330452,1.544262,-0.2471471,-0.09458664,1.546867,0.1926334,-0.06762265,1.511788,NA,NA,Unknown,Unknown,
0.9042969,-0.5288086,0.4199219,-0.4267578,0.5883789,0.7485352,15,20,8,11,46,13,8,2,-15,-2,33,-11,-1,-6,-6,-3,-27.5625,-27.5625,-27.5625,-6.75,-6.75,-6.75,3.523054,3.734939,4.84442,6.441606,6.154685,5.046066,-0.150245,-0.3256287,1.313197,0.02832728,0.2202715,1.443941,-0.008105992,0.4365293,1.60164,-0.11533,-0.3449978,1.393818,0.07130659,0.209689,1.415573,-0.02808622,-0.02829036,1.596758,-0.03013153,-0.3416159,1.578772,-0.1991045,0.1565964,1.553003,-0.11028,-0.3342674,1.5455,-0.2453204,-0.08780999,1.543188,0.1821811,-0.0610466,1.49451,NA,NA,Unknown,Unknown,
0.8305664,-0.5874023,0.5136719,-0.3999023,0.590332,0.7216797,2,0,-2,7,13,3,10,0,-3,-15,41,1,-9,6,10,16,-27.5625,-27.5625,-27.5625,-31.8125,-31.8125,-31.8125,3.557341,3.906652,4.749432,6.506365,6.250725,5.168539,-0.1323051,-0.2942628,1.290312,0.03174458,0.2170239,1.463902,-0.008292728,0.4371878,1.602029,-0.100336,-0.3168888,1.3534,0.08554326,0.2639522,1.445244,-0.02802073,-0.02867111,1.596386,-0.02945345,-0.341689,1.578812,-0.1990815,0.1566494,1.552508,-0.109601,-0.3350943,1.546959,-0.2429892,-0.08038563,1.537804,0.175218,-0.05505476,1.4781,NA,NA,Unknown,NotTracked,
0.7045898,-0.6826172,0.6518555,-0.3999023,0.590332,0.7216797,-5,-9,-3,-9,-1,-9,-29,-9,29,65,-88,21,12,1,-4,8,-28.875,-28.875,-28.875,-31.8125,-31.8125,-31.8125,3.580858,4.095483,4.655258,6.506365,6.250725,5.168539,-0.1111429,-0.2607231,1.273602,0.0353178,0.2075532,1.475658,-0.00827357,0.4373121,1.602274,-0.06431981,-0.2663668,1.285,0.088126,0.2772594,1.461143,-0.02827314,-0.02864484,1.596264,-0.02959172,-0.3412966,1.578959,-0.1989932,0.1566759,1.5521,-0.1100506,-0.3346118,1.548072,-0.2412371,-0.07267664,1.53361,0.1719111,-0.05058462,1.470085,NA,NA,Unknown,NotTracked,
0.5581055,-0.6435547,0.5976563,-0.3999023,0.590332,0.7216797,-1,-3,-15,-17,-52,-25,1,3,21,23,19,0,-1,2,5,4,-17.0625,-17.0625,-17.0625,-31.8125,-31.8125,-31.8125,3.611968,4.299383,4.551105,6.506365,6.250725,5.168539,-0.05943928,-0.182909,1.2525,0.02259052,0.2315567,1.460826,-0.009271745,0.4391677,1.604607,-0.06114769,-0.1396213,1.241538,0.08044198,0.2789149,1.432933,-0.02919956,-0.02867004,1.596471,-0.0315058,-0.340497,1.580931,-0.1989412,0.1569915,1.551595,-0.1115956,-0.3327404,1.55221,-0.2416362,-0.06153199,1.52251,0.1689844,-0.04779936,1.466045,NA,NA,Unknown,NotTracked,
0.3115234,-0.7255859,0.7148438,-0.3999023,0.590332,0.7216797,0,-3,-8,-5,10,-8,3,7,-61,-8,12,-8,-3,-9,-13,-38,-18.625,-18.625,-18.625,-31.8125,-31.8125,-31.8125,3.636313,4.633307,4.372715,6.506365,6.250725,5.168539,-0.03513542,-0.1363608,1.250322,0.01575652,0.2349959,1.445356,-0.01019746,0.440304,1.60575,-0.0164082,-0.1028417,1.2868,0.07451678,0.2658235,1.420462,-0.02977289,-0.02885255,1.596663,-0.03248898,-0.3407205,1.581818,-0.1989353,0.1570163,1.551505,-0.1123372,-0.3327679,1.553203,-0.2581131,-0.06590987,1.514245,0.1660947,-0.04861344,1.464289,NA,NA,Unknown,Unknown,
0.2285156,-0.6918945,0.7290039,-0.6762695,0.3774414,0.2924805,-2,1,1,5,-53,-12,-32,-12,-4,-13,24,-1,8,1,1,-11,-10.375,-10.375,-10.375,22.0625,22.0625,22.0625,3.643825,4.752145,4.307442,6.758506,6.49412,5.651384,-0.01281433,-0.08537228,1.255925,0.01141334,0.2349476,1.430341,-0.0105495,0.4408308,1.606498,-0.008364322,-0.04785021,1.263909,-0.02572432,0.1783409,1.497586,-0.03056698,-0.02856524,1.596936,-0.03286213,-0.3406849,1.58208,-0.1989415,0.1570028,1.55138,-0.1127902,-0.3325685,1.553499,-0.2608402,-0.06957059,1.520576,0.1615166,-0.05263401,1.463198,NA,NA,Unknown,Unknown,
0.2070313,-0.5732422,0.6831055,-1.016113,0.5205078,0.3237305,0,-2,-12,34,20,15,26,4,32,-2,2,-11,-4,-7,-5,4,-24.9375,-24.9375,-24.9375,-30.4375,-30.4375,-30.4375,3.636246,4.991143,4.162128,6.595415,6.387222,5.485493,0.01634303,-0.03033285,1.262321,0.009629057,0.2211131,1.417932,-0.01089929,0.4412977,1.60693,-0.02177367,-0.002649583,1.241313,-0.02527286,0.164973,1.49134,-0.03091142,-0.02839442,1.596998,-0.03310051,-0.3405272,1.582217,-0.1989316,0.1570125,1.551087,-0.1129677,-0.3322491,1.553511,-0.2548811,-0.06827527,1.51785,0.1597535,-0.05170723,1.457494,NA,NA,Unknown,Unknown,
0.07568359,-0.6669922,0.4609375,-1.016113,0.5205078,0.3237305,-19,-23,-26,-33,-2,-17,-26,-10,-11,4,-1,-1,0,1,1,0,-49.5625,-49.5625,-49.5625,-30.4375,-30.4375,-30.4375,3.534914,5.315689,3.891328,6.595415,6.387222,5.485493,0.03443157,0.02476208,1.29146,0.00402816,0.2365125,1.399061,-0.0111816,0.4417802,1.607439,0.04624358,0.08122291,1.333333,-0.03169454,0.2046395,1.4114,-0.03119107,-0.02847008,1.597082,-0.03364418,-0.3410415,1.582592,-0.19895,0.1569985,1.550837,-0.1134006,-0.3324853,1.553781,-0.2467533,-0.06812742,1.500759,0.1584765,-0.05121575,1.456413,NA,NA,NotTracked,Unknown,
-0.01269531,-0.7368164,0.2192383,-1.044434,0.6962891,0.2807617,-9,-3,-11,-20,-17,-24,-40,-62,3,-9,-6,-5,-4,2,4,1,-38.4375,-38.4375,-38.4375,68.8125,68.8125,68.8125,3.487992,5.406919,3.788359,6.493593,6.412201,5.160769,0.05651972,0.06650989,1.36224,-0.01289518,0.2708139,1.34747,-0.01127519,0.4429225,1.606692,0.01179251,0.1323385,1.323333,-0.04782386,0.2461296,1.325185,-0.03229332,-0.03054916,1.59693,-0.03587749,-0.3457625,1.583858,-0.1991679,0.1571526,1.549869,-0.1163573,-0.3370832,1.557161,-0.2274822,-0.05857283,1.4841,0.1257827,-0.05446585,1.405562,NA,NA,NotTracked,NotTracked,
0.5522461,-0.6293945,-0.2583008,-0.07910156,0.8505859,1.623535,-9,-1,0,-6,10,15,18,2,18,-6,-6,5,-10,5,7,-2,-33.3125,-33.3125,-33.3125,93.3125,93.3125,93.3125,3.477794,5.428353,3.871104,6.509119,6.338601,5.033428,0.05774382,0.07540736,1.362496,-0.009412427,0.285994,1.332489,-0.01249503,0.4497227,1.610412,0.002852107,0.1379769,1.323789,0.04568058,0.2837173,1.33575,-0.0341276,-0.03292363,1.597911,-0.03761715,-0.3494927,1.584956,-0.1991898,0.1572817,1.5494,-0.1183161,-0.3399985,1.559145,-0.2233369,-0.05780683,1.478838,0.1271691,-0.06458542,1.402766,NA,NA,NotTracked,NotTracked,
-0.9008789,-1.193359,0.1459961,-1.414551,0.3833008,-1.072754,1,0,-11,1,3,1,-3,8,-33,-9,-4,-6,1,-3,-23,-66,12.625,12.625,12.625,88,88,88,3.408616,5.43235,3.873629,6.428801,6.41077,4.942533,0.06130373,0.08331186,1.356355,-0.0001158627,0.2978355,1.340445,-0.0132055,0.4501202,1.609308,0.009121798,0.1409161,1.313926,0.05211974,0.2868696,1.343348,-0.03560292,-0.03417906,1.598675,-0.03828624,-0.3508024,1.58529,-0.1991729,0.1573226,1.548941,-0.1193972,-0.341117,1.560499,-0.2211055,-0.05669092,1.473485,0.1263033,-0.06475363,1.402215,NA,NA,NotTracked,NotTracked,
0.04589844,-0.3203125,0.6103516,-0.7592773,0.5527344,0.6889648,2,3,4,-5,-11,-3,-16,-4,-17,2,4,1,-1,-33,16,-1,51.1875,51.1875,51.1875,173.6875,173.6875,173.6875,3.469749,5.339454,3.914014,6.448931,6.380475,4.863564,0.01234898,0.05919815,1.355691,0.003329856,0.3040783,1.343592,-0.01428197,0.450626,1.609189,-0.02110516,0.08434297,1.310576,0.0501204,0.3032991,1.35745,-0.03739442,-0.03667375,1.599538,-0.0391487,-0.3534397,1.58563,-0.1991592,0.1573232,1.548568,-0.1210488,-0.3444259,1.564258,-0.221347,-0.056575,1.472804,0.1011477,-0.01284753,1.324121,NA,NA,NotTracked,Unknown,
-0.2055664,-0.6933594,0.7382813,-1.0625,1.224609,0.0078125,14,18,16,0,16,8,11,5,-14,-8,-7,-7,-12,-26,-17,-42,-64.5,-64.5,-64.5,152.3125,152.3125,152.3125,3.452271,5.235059,3.974286,6.729503,6.450762,4.928722,0.08522565,0.08889145,1.336291,-9.051332E-05,0.312915,1.339541,-0.01535638,0.4483215,1.607231,0.02718867,0.1222284,1.285471,0.03189988,0.3492377,1.3826,-0.03761862,-0.03671363,1.600092,-0.0390288,-0.353225,1.585846,-0.1991938,0.1572695,1.548321,-0.1209202,-0.344187,1.564434,-0.2227257,-0.05574376,1.470082,0.101467,0.003066275,1.336358,NA,NA,NotTracked,Unknown,
-0.05712891,-0.9785156,0.6826172,-1.08252,0.9165039,0.1064453,0,-2,-3,4,7,14,21,1,4,3,3,5,8,17,-8,-38,-55.375,-55.375,-55.375,112.0625,112.0625,112.0625,3.362444,5.126766,4.019296,6.831424,6.465671,4.976582,0.09643777,0.07063504,1.305938,-0.02081545,0.3121049,1.305015,-0.01578545,0.4480247,1.608257,0.09192649,0.138785,1.325583,-0.05117226,0.3537121,1.2829,-0.03622554,-0.03279936,1.601294,-0.03677563,-0.3458736,1.585994,-0.1992543,0.1569868,1.547742,-0.1176636,-0.3369515,1.562286,-0.2242803,-0.05430451,1.464617,0.1247387,0.04615935,1.350994,NA,NA,NotTracked,NotTracked,
-0.078125,-0.9682617,0.6928711,-1.08252,0.9165039,0.1064453,-8,-3,2,-1,-4,-11,-27,-8,-6,-1,-1,-1,8,7,-18,-26,-38.4375,-38.4375,-38.4375,112.0625,112.0625,112.0625,3.344845,5.105474,4.01143,6.831424,6.465671,4.976582,0.05840451,0.02892379,1.28621,-0.03449319,0.3051375,1.284487,-0.01624072,0.4482142,1.608335,0.05858244,0.07238482,1.2796,-0.04930458,0.3309471,1.27125,-0.03519813,-0.02993349,1.601868,-0.03619472,-0.3417033,1.586477,-0.1993397,0.1569043,1.547522,-0.1165768,-0.332637,1.561155,-0.2244948,-0.05409608,1.463567,0.1428048,0.06133368,1.340518,NA,NA,NotTracked,Open,
-0.0625,-0.8950195,0.625,-1.065918,0.4941406,0.2265625,-6,-6,-2,-4,-5,4,5,0,-7,-2,-3,-7,-4,57,27,-14,-48.375,-48.375,-48.375,207.8125,207.8125,207.8125,3.29767,5.083894,3.9624,7.411894,6.342536,5.238986,0.0888954,0.0277954,1.285405,-0.05778584,0.2904316,1.260177,-0.01660509,0.4494379,1.608667,0.1259069,0.09814236,1.331,-0.08251222,0.2960584,1.245615,-0.03456544,-0.02867076,1.60218,-0.03567857,-0.339237,1.586683,-0.1995073,0.1565925,1.547125,-0.1157678,-0.3300957,1.559624,-0.2250038,-0.05379302,1.461482,0.1592704,0.05629257,1.328551,NA,NA,Unknown,Open,
-0.03759766,-0.8447266,0.4389648,-0.4848633,0.2089844,0.3017578,1,-2,-2,-4,-4,3,9,0,-10,0,-1,1,-6,47,20,-9,-40.1875,-40.1875,-40.1875,82.5,82.5,82.5,3.223894,5.099387,3.861471,7.73453,5.984306,5.391852,0.0798787,0.0128208,1.283808,-0.02386694,0.2591199,1.265855,-0.0169965,0.4503665,1.609141,0.09580585,0.04515958,1.2782,-0.08026412,0.2870323,1.232667,-0.03437019,-0.02696359,1.602544,-0.03519161,-0.3354458,1.586995,-0.1996653,0.1564398,1.546827,-0.1152469,-0.3267195,1.558094,-0.2229395,-0.05334099,1.458652,0.1739339,0.09364527,1.326617,NA,NA,Unknown,Unknown,
0.02539063,-0.8969727,0.4575195,-0.3041992,-0.08203125,0.293457,-8,-13,-3,-3,0,3,10,-2,-13,-10,-8,-13,-42,-61,-61,-21,-39.9375,-39.9375,-39.9375,86.9375,86.9375,86.9375,3.201033,5.104028,3.832155,7.837622,5.642614,5.435288,0.1134975,0.01641596,1.28196,-0.04880624,0.2336043,1.23893,-0.01702152,0.4501586,1.609314,0.1325952,0.04889828,1.276941,-0.06756473,0.2477163,1.212,-0.03428105,-0.02611599,1.602229,-0.03450206,-0.3344809,1.587298,-0.200003,0.1539252,1.544795,-0.1145392,-0.325866,1.557255,-0.2204847,-0.05603765,1.456277,0.175956,0.1082943,1.321621,NA,NA,Unknown,Unknown,
0.02978516,-0.949707,0.4213867,0.08251953,0.01074219,0.1479492,-2,-7,-2,-1,-2,0,3,10,-7,-9,-12,-8,-9,-30,16,-25,-27.0625,-27.0625,-27.0625,101.4375,101.4375,101.4375,3.162045,5.114398,3.78032,7.944842,5.267938,5.421967,0.1254746,0.02537782,1.292886,-0.0498858,0.168731,1.2378,-0.02059479,0.4387871,1.612301,0.1280232,0.109464,1.3155,-0.05238397,0.1770818,1.233833,-0.03345535,-0.02699472,1.601328,-0.03337905,-0.3375081,1.587837,-0.2036766,0.1528666,1.543778,-0.1134968,-0.3296236,1.554754,-0.1921358,-0.04987864,1.435543,0.1612639,0.08804708,1.330702,NA,NA,Unknown,Unknown,
0.1142578,-0.9458008,0.3222656,0.21875,0.359375,-0.199707,-6,-5,-8,-8,-6,-4,-12,-23,-15,-1,1,3,21,8,-22,-45,-12.5,-12.5,-12.5,72.8125,72.8125,72.8125,3.122597,5.100389,3.730783,8.030996,4.912871,5.406199,0.125933,0.03604301,1.298394,-0.06625088,0.1008456,1.223297,-0.02169146,0.4352708,1.613382,0.1195672,0.1017299,1.303039,-0.08311933,0.1116618,1.222083,-0.03161822,-0.02392414,1.606278,-0.03220648,-0.3340867,1.588738,-0.2033589,0.1539121,1.544543,-0.1118026,-0.32663,1.555021,-0.1977801,-0.0507352,1.439972,0.1375728,0.06369685,1.329159,NA,NA,Unknown,NotTracked,
0.05859375,-0.9023438,0.3032227,0.1289063,0.6455078,-0.07763672,0,-1,0,-3,0,-3,4,12,11,4,3,1,2,25,5,19,0.1875,0.1875,0.1875,29.375,29.375,29.375,3.119521,5.089134,3.719557,8.090316,4.620879,5.384601,0.1163024,0.04720549,1.296204,-0.05736205,0.02692371,1.231577,-0.02236915,0.4337937,1.613999,0.1553724,0.09344526,1.3228,-0.01718643,-0.004133381,1.312542,-0.03178973,-0.02221324,1.606954,-0.03072705,-0.3250577,1.590151,-0.2031071,0.1541986,1.544727,-0.108873,-0.3186877,1.55607,-0.2059759,-0.05269478,1.445352,0.1319499,0.06163737,1.325822,NA,NA,NotTracked,NotTracked,
0.09130859,-0.8603516,0.3095703,0.8789063,1.106934,-0.402832,4,-2,-2,9,-7,-1,-3,5,7,6,3,5,25,6,-11,28,2.625,2.625,2.625,-26.625,-26.625,-26.625,3.113232,5.027187,3.708886,8.083097,4.428436,5.340707,0.09179737,0.06293073,1.29655,-0.04733598,-0.0032598,1.233471,-0.0237849,0.4322434,1.61467,0.0518565,0.1156351,1.282385,-0.01291213,-0.01674002,1.31615,-0.03203908,-0.01792902,1.609946,-0.02947101,-0.317107,1.591282,-0.2030297,0.1542843,1.544796,-0.1060783,-0.3107738,1.556496,-0.2069785,-0.05293484,1.446268,0.1286607,0.05990021,1.324496,NA,NA,NotTracked,NotTracked,
0.05175781,-0.7729492,0.2729492,0.6381836,1.405273,-0.9897461,-3,0,-3,-7,-4,-8,-45,-12,3,2,3,1,-11,-13,-1,3,10.875,10.875,10.875,25.0625,25.0625,25.0625,3.117616,4.991498,3.701591,8.100526,4.317614,5.295694,0.03805368,0.02546148,1.270375,-0.04197721,-0.02959937,1.229326,-0.02510044,0.4312052,1.615237,0.03268536,-0.02357837,1.311923,-0.02795558,-0.09788125,1.1784,-0.03180469,-0.01651438,1.611239,-0.02910238,-0.315659,1.591829,-0.2030337,0.1543496,1.544912,-0.1054863,-0.3094836,1.556591,-0.2082794,-0.05304273,1.4469,0.1281217,0.05814389,1.324582,NA,NA,NotTracked,NotTracked,
-0.01513672,-0.8896484,0.4072266,0.2099609,0.7827148,-0.6455078,-1,-1,6,6,1,1,16,2,-7,-1,-2,-2,-6,-20,-8,7,-5.4375,-5.4375,-5.4375,-95.8125,-95.8125,-95.8125,3.121886,4.906819,3.694414,8.068757,4.311852,5.272643,0.08209638,0.02695039,1.289106,-0.04527704,-0.06718072,1.22387,-0.02869636,0.4295081,1.614489,0.1456098,-0.02319289,1.280611,-0.02325205,-0.1135752,1.183182,-0.03182911,-0.01553958,1.612124,-0.0285225,-0.31455,1.592601,-0.2031348,0.1545217,1.545048,-0.104712,-0.3085974,1.556947,-0.2109105,-0.05378145,1.449543,0.1292524,0.03626648,1.326929,NA,NA,NotTracked,NotTracked,
0.03808594,-1.061523,0.5014648,1.065918,1.290039,-0.293457,2,0,-1,6,1,-1,3,1,-4,-5,-5,-8,-15,0,-9,-10,-3.125,-3.125,-3.125,-28.5625,-28.5625,-28.5625,3.120195,4.840184,3.698501,8.025593,4.269172,5.227719,0.1213711,0.07412124,1.328135,-0.04469219,-0.06754304,1.224169,-0.03040102,0.4289696,1.613908,0.1517519,0.04951706,1.302371,-0.02612337,-0.1182516,1.1831,-0.03193406,-0.015185,1.612382,-0.02838859,-0.3143332,1.592872,-0.2032416,0.1546435,1.545175,-0.1045495,-0.3084415,1.557008,-0.2127637,-0.05417456,1.451208,0.1296054,0.02511108,1.330671,NA,NA,NotTracked,NotTracked,
0.1982422,-0.8701172,0.3544922,0.5878906,1.082031,-0.4443359,1,1,-1,-2,-3,0,-2,-2,2,-2,-1,-1,-8,-2,1,5,14.0625,14.0625,14.0625,-43.4375,-43.4375,-43.4375,3.142941,4.75687,3.699427,8.009202,4.291541,5.223579,0.0839669,0.008201135,1.293486,-0.04805383,-0.0728811,1.224847,-0.03161682,0.4286233,1.613511,0.1358557,-0.0687157,1.2735,-0.0432154,-0.01928598,1.199698,-0.03208021,-0.01481728,1.612649,-0.02830143,-0.3137411,1.593438,-0.2033732,0.1548249,1.545351,-0.1043712,-0.3079945,1.55732,-0.2158862,-0.05471766,1.453771,0.1294079,0.01707256,1.332297,NA,NA,NotTracked,NotTracked,
0.2397461,-0.8242188,0.3266602,0.5991211,0.8149414,-0.2480469,-2,-1,-1,-2,-2,-6,1,-2,2,1,0,1,3,3,-2,3,5.0625,5.0625,5.0625,-81.3125,-81.3125,-81.3125,3.142715,4.686482,3.712465,7.931943,4.340676,5.215289,0.08629215,0.007221815,1.293321,-0.04924662,-0.06691115,1.224707,-0.03257493,0.4286021,1.613217,0.1356603,-0.0754425,1.285389,-0.04169761,-0.01847698,1.198466,-0.03231338,-0.0145679,1.612819,-0.02836279,-0.3136054,1.593635,-0.2034179,0.1548714,1.545399,-0.1043904,-0.307909,1.557344,-0.2170812,-0.055367,1.455934,0.2061422,0.05238168,1.376749,NA,NA,NotTracked,NotTracked,
0.3876953,-0.8066406,0.3779297,0.4545898,0.6567383,-0.05810547,0,-2,-1,-3,-4,-1,-2,-3,2,-1,0,1,2,-1,0,7,14.625,14.625,14.625,-68.5,-68.5,-68.5,3.148153,4.597659,3.741635,7.807276,4.419781,5.204381,-0.05455204,-0.07173066,1.218839,-0.04293147,-0.05251191,1.220931,-0.0331666,0.428783,1.61312,-0.06518791,-0.124671,1.194656,-0.03661707,-0.004942855,1.20684,-0.03244844,-0.01435257,1.61294,-0.02835536,-0.3134304,1.593791,-0.2035321,0.1549587,1.545495,-0.104352,-0.3077588,1.557385,-0.2195471,-0.0561266,1.458953,0.1353404,-0.01854665,1.348391,NA,NA,NotTracked,NotTracked,
0.4443359,-0.762207,0.3334961,0.3666992,0.6210938,-0.004394531,-2,-2,0,-2,-3,-3,-2,-1,-1,0,-1,0,-2,2,-1,2,30.9375,30.9375,30.9375,-67.625,-67.625,-67.625,3.170166,4.490844,3.778796,7.735505,4.461054,5.183208,-0.05374925,-0.07934104,1.226081,-0.04152193,-0.0607736,1.226045,-0.03415904,0.4286513,1.612886,-0.06972131,-0.1278707,1.199283,-0.06722661,-0.0391824,1.233308,-0.03284046,-0.01424793,1.613004,-0.02843706,-0.3134805,1.59387,-0.2036773,0.1550152,1.545671,-0.1044594,-0.3077658,1.557247,-0.2349064,-0.05443953,1.459785,0.1972374,0.06028255,1.37551,NA,NA,NotTracked,NotTracked,
0.4125977,-0.7529297,0.3657227,0.355957,0.6606445,0.1171875,-2,-2,-1,-1,0,-1,-2,-4,0,1,0,-2,-2,-2,0,1,37.625,37.625,37.625,-80.25,-80.25,-80.25,3.19225,4.365992,3.827451,7.646588,4.487583,5.15019,0.07361057,-0.1480295,1.301234,-0.03258443,-0.08549203,1.245668,-0.03429862,0.4286473,1.612884,0.05430372,-0.1593289,1.31075,-0.03742068,-0.05083264,1.206726,-0.0332666,-0.01439734,1.612851,-0.02881389,-0.3140251,1.593616,-0.2037642,0.1550605,1.545806,-0.1048813,-0.3082054,1.556677,-0.2389571,-0.0686315,1.457031,0.2057378,0.05431474,1.385344,NA,NA,NotTracked,NotTracked,
0.519043,-0.8305664,0.3930664,0.3168945,0.7075195,0.1420898,-1,-3,0,-1,-3,-2,-1,0,-2,-1,0,-2,-3,1,0,-3,62.75,62.75,62.75,-82.5625,-82.5625,-82.5625,3.224327,4.22612,3.897195,7.599107,4.494542,5.133281,0.06252572,-0.183648,1.315698,-0.02238943,-0.09336724,1.250247,-0.0344713,0.42872,1.612909,0.06839092,-0.212563,1.3606,-0.02553785,-0.06242008,1.212404,-0.03389035,-0.01480667,1.612514,-0.02960748,-0.3154013,1.592989,-0.2038201,0.1550883,1.545918,-0.1055144,-0.3091255,1.55594,-0.2397461,-0.06085165,1.486713,0.2186065,0.04218942,1.405191,NA,NA,NotTracked,NotTracked,
0.5117188,-0.7084961,0.4555664,0.2709961,0.7597656,0.2041016,-1,-1,-1,1,1,1,0,1,0,1,0,-1,0,-1,0,-1,83.375,83.375,83.375,-111.3125,-111.3125,-111.3125,3.274474,4.072782,3.973577,7.447645,4.488742,5.046935,0.03384078,-0.2013256,1.307015,-0.01082814,-0.1193421,1.261254,-0.03451514,0.4288002,1.612905,0.06513833,-0.2008946,1.353,-0.03614844,-0.08254557,1.228,-0.03478081,-0.01593405,1.612245,-0.03154128,-0.3198817,1.592233,-0.2040454,0.1550583,1.54617,-0.1071498,-0.3121881,1.555148,-0.2439012,-0.06157226,1.494712,0.2332012,0.02905849,1.419908,NA,NA,NotTracked,NotTracked,
0.6416016,-0.6845703,0.4873047,0.1533203,0.8320313,0.3017578,-2,-1,2,1,-2,-1,-1,1,1,-1,-2,0,0,-4,1,1,87.3125,87.3125,87.3125,-114.5,-114.5,-114.5,3.31863,3.909554,4.066077,7.345535,4.442698,4.971642,-0.02023696,-0.1716507,1.277158,0.01014722,-0.1167234,1.258937,-0.03452825,0.4290273,1.612962,-0.01132535,-0.2199848,1.299421,0.00619363,-0.07838009,1.25265,-0.03520154,-0.01689801,1.611937,-0.03212623,-0.3226986,1.591911,-0.2044184,0.1551083,1.546564,-0.1077017,-0.3144627,1.554651,-0.2470309,-0.06191493,1.501491,0.252385,0.02520008,1.440015,NA,NA,NotTracked,NotTracked,
0.6777344,-0.7114258,0.5498047,0.15625,0.8764648,0.2988281,-3,-4,-1,-2,-4,-4,-1,1,0,-2,-2,-1,-3,-8,-2,0,110.0625,110.0625,110.0625,-132.625,-132.625,-132.625,3.352605,3.744834,4.183353,7.286355,4.408846,4.926167,-0.06340372,-0.2691026,1.37262,0.05079491,-0.1698444,1.297066,-0.03425455,0.4294933,1.612667,-0.08749224,-0.3377964,1.402,0.01771644,-0.1490558,1.379143,-0.03516097,-0.01892687,1.610323,-0.03148225,-0.3275687,1.590192,-0.2066541,0.1562645,1.556345,-0.1072668,-0.3203254,1.552299,-0.2540384,-0.06039065,1.517293,0.2803114,0.01152293,1.486203,NA,NA,NotTracked,NotTracked,
0.7729492,-0.6162109,0.3935547,0.2470703,0.8994141,0.4082031,-7,-2,-1,2,-3,0,0,-8,-2,-1,1,0,4,26,-1,-2,155.5625,155.5625,155.5625,-148.1875,-148.1875,-148.1875,3.414754,3.594264,4.319939,7.166299,4.327582,4.81307,-0.07721543,-0.315768,1.373293,0.06707249,-0.2082558,1.313059,-0.03389512,0.4298358,1.611793,-0.1214292,-0.3679175,1.412,0.03770809,-0.2089842,1.38,-0.03594447,-0.02038045,1.608116,-0.03352419,-0.3305936,1.587122,-0.207152,0.1565409,1.557809,-0.110498,-0.3237021,1.548649,-0.2561063,-0.06020985,1.52388,0.2760905,-0.002914538,1.522731,NA,NA,NotTracked,NotTracked,
0.8911133,-0.5366211,0.4350586,0.3364258,0.8530273,0.4799805,-2,0,-1,-1,-1,0,-2,-5,-2,-3,-1,-2,-3,-9,0,-4,152.125,152.125,152.125,-143.25,-143.25,-143.25,3.454143,3.462372,4.482374,6.982,4.154079,4.64125,-0.106804,-0.3459089,1.368082,0.08471907,-0.2430769,1.33816,-0.03326101,0.4304042,1.610773,-0.139203,-0.3778161,1.374083,0.03945751,-0.2254368,1.413364,-0.03632326,-0.02136415,1.605554,-0.03447819,-0.332124,1.58413,-0.2075556,0.1565607,1.558574,-0.1123661,-0.3249935,1.545379,-0.2573863,-0.06501426,1.5296,0.2429307,-0.0325586,1.537921,NA,NA,Unknown,NotTracked,
0.8632813,-0.4785156,0.4008789,0.4194336,0.949707,0.4672852,-3,-2,-2,2,1,0,-2,-4,-6,-3,-7,-22,10,-9,-2,-17,142.6875,142.6875,142.6875,-113,-113,-113,3.4678,3.340476,4.658558,6.865207,3.941451,4.471627,-0.1311271,-0.3637429,1.380507,0.1004084,-0.2753488,1.369408,-0.03235777,0.4310145,1.609793,-0.1543985,-0.3773025,1.348257,0.05751422,-0.3168379,1.414375,-0.03558898,-0.02205645,1.602642,-0.03361467,-0.3331288,1.580887,-0.2077482,0.1564426,1.558959,-0.1124056,-0.325935,1.541973,-0.2598011,-0.07114463,1.536399,0.2409339,-0.03842252,1.549893,NA,NA,Unknown,Unknown,
0.8798828,-0.4106445,0.3613281,0.4707031,0.9506836,0.4760742,-3,-2,-2,-3,-3,-4,-4,-12,0,0,1,7,-2,-2,-1,-1,118.4375,118.4375,118.4375,-96.375,-96.375,-96.375,3.430123,3.227537,4.858615,6.847118,3.862165,4.41548,-0.1842459,-0.387483,1.41155,0.1386525,-0.3313795,1.410302,-0.029868,0.4317672,1.606639,-0.2293296,-0.4123725,1.410684,0.1083318,-0.3049087,1.4436,-0.03460031,-0.02301131,1.59951,-0.03225486,-0.3343883,1.578659,-0.207793,0.1562909,1.559114,-0.1117332,-0.3270683,1.539156,-0.2597151,-0.08951447,1.549656,0.2269784,-0.07147244,1.581454,NA,NA,Unknown,Unknown,
0.8994141,-0.4287109,0.3056641,0.5595703,0.9580078,0.434082,3,1,0,1,0,0,3,17,2,4,0,4,-2,-3,0,-2,105.9375,105.9375,105.9375,-91.1875,-91.1875,-91.1875,3.356629,3.134003,5.073016,6.830855,3.702234,4.293749,-0.205467,-0.3968944,1.426626,0.1515241,-0.3524869,1.440798,-0.02824381,0.4322886,1.604881,-0.2531299,-0.4129238,1.422321,0.1091478,-0.3512607,1.420719,-0.03431086,-0.02331761,1.59847,-0.03217703,-0.3347288,1.57843,-0.2077362,0.1561795,1.559044,-0.1117034,-0.3272486,1.538749,-0.2607787,-0.09804446,1.554138,0.2216838,-0.08411034,1.593193,NA,NA,Unknown,Unknown,
0.9301758,-0.3608398,0.2495117,0.8081055,0.7412109,0.3422852,-1,-1,0,0,-2,-2,-1,-1,0,1,-1,1,-1,-3,-3,-1,89.5,89.5,89.5,-92.5625,-92.5625,-92.5625,3.262121,3.051761,5.287474,6.816419,3.554033,4.171982,-0.2245846,-0.4065612,1.441554,0.1581347,-0.3689107,1.467561,-0.02690274,0.4329017,1.603414,-0.2745766,-0.4126773,1.439326,0.109759,-0.3449608,1.467628,-0.03392467,-0.02357149,1.597541,-0.03211965,-0.3349881,1.578319,-0.2074611,0.1559794,1.558741,-0.1116784,-0.3273602,1.538537,-0.2613895,-0.1036393,1.558969,0.2172691,-0.09261911,1.600371,NA,NA,Unknown,Unknown,
0.9584961,-0.3066406,0.2124023,0.8632813,0.6660156,0.378418,9,1,-2,0,0,-2,-2,3,1,1,1,-2,-1,5,1,-1,55.5625,55.5625,55.5625,-73.9375,-73.9375,-73.9375,3.130533,2.976316,5.503204,6.808102,3.432107,4.071035,-0.2407278,-0.41393,1.453749,0.1661972,-0.3790299,1.487244,-0.0252613,0.4331803,1.601288,-0.289323,-0.4226243,1.447243,0.1146499,-0.3664,1.469265,-0.03370712,-0.02380623,1.596778,-0.03216308,-0.3352894,1.578223,-0.2072209,0.1558126,1.558488,-0.1116846,-0.3274958,1.538314,-0.2623828,-0.1072636,1.561968,0.2134679,-0.09972765,1.608682,NA,NA,NotTracked,Unknown,
1.006348,-0.2553711,0.1743164,0.8081055,0.6699219,0.2490234,15,5,4,2,1,4,8,77,0,-2,-1,0,-1,-2,0,-1,26.3125,26.3125,26.3125,-69,-69,-69,2.974643,2.90822,5.704546,6.844632,3.295257,3.895788,-0.261085,-0.4235436,1.462342,0.1730598,-0.3900794,1.503154,-0.02382519,0.4332885,1.599878,-0.3046029,-0.426241,1.462205,0.1220365,-0.3727563,1.475016,-0.03351715,-0.02400298,1.59614,-0.03217981,-0.3355951,1.578172,-0.2066278,0.1556014,1.557886,-0.1116779,-0.3276615,1.53811,-0.2638651,-0.1109583,1.565001,0.2108906,-0.105773,1.616803,NA,NA,NotTracked,NotTracked,
1.024414,-0.1850586,0.09082031,0.8706055,0.6621094,0.2290039,12,5,2,0,0,2,4,28,1,0,-1,0,-1,-4,-1,1,7.375,7.375,7.375,-83.625,-83.625,-83.625,2.824505,2.856908,5.875036,6.886799,3.233539,3.749305,-0.2816877,-0.4305478,1.488795,0.1849988,-0.409959,1.529672,-0.02096987,0.433437,1.598051,-0.3250623,-0.4374937,1.490667,0.1343785,-0.4007372,1.486379,-0.03242684,-0.02424675,1.594904,-0.03182568,-0.3360034,1.578058,-0.204917,0.1555285,1.55615,-0.1112251,-0.327855,1.53771,-0.265605,-0.1167238,1.568952,0.2068855,-0.1139934,1.628306,NA,NA,NotTracked,NotTracked,
1.02832,-0.1967773,0.08691406,0.8916016,0.5,0.1762695,-18,-8,-7,-6,-7,-7,-14,-60,-2,-2,0,-1,-1,-4,-1,-3,-16.9375,-16.9375,-16.9375,-64.5625,-64.5625,-64.5625,2.696748,2.823297,5.993344,6.927229,3.190253,3.616155,-0.2891448,-0.4316821,1.499327,0.1905424,-0.414761,1.540995,-0.01992021,0.4334655,1.597279,-0.3314953,-0.4290563,1.50628,0.1406811,-0.3940545,1.498146,-0.03178545,-0.02427251,1.594297,-0.03129224,-0.3362107,1.577988,-0.2039591,0.1553939,1.555123,-0.1104719,-0.3279638,1.537266,-0.266492,-0.1185386,1.569916,0.2050965,-0.1171598,1.631349,NA,NA,NotTracked,NotTracked,
0.9931641,-0.2421875,0.06884766,0.9550781,0.4921875,0.15625,-4,-1,-1,0,4,1,4,8,-4,-3,-3,-3,0,-1,-2,-11,-11.25,-11.25,-11.25,-38.125,-38.125,-38.125,2.641281,2.810255,6.03463,6.97815,3.166226,3.509983,-0.2925298,-0.4321903,1.508625,0.1944583,-0.4208499,1.550364,-0.01893071,0.43352,1.596904,-0.3343645,-0.4217869,1.515818,0.1423753,-0.4181079,1.50276,-0.03138173,-0.02437515,1.594034,-0.03082831,-0.336351,1.578091,-0.2035366,0.1553041,1.554659,-0.1099463,-0.3280622,1.537234,-0.2674252,-0.1207381,1.571756,0.2037491,-0.1207406,1.634036,NA,NA,NotTracked,NotTracked,
0.9677734,-0.2456055,0.07568359,0.9082031,0.4570313,0.08349609,-9,-2,0,2,1,3,6,40,-1,-1,-1,-1,0,12,4,3,1.5625,1.5625,1.5625,-36.0625,-36.0625,-36.0625,2.665775,2.812886,6.009002,7.009799,3.162245,3.432086,-0.2930281,-0.4323176,1.512444,0.1983334,-0.4268976,1.554962,-0.01793612,0.4334769,1.596355,-0.3367605,-0.4282641,1.521625,0.1443096,-0.4131646,1.508292,-0.03084944,-0.02457348,1.593633,-0.03056884,-0.3365558,1.578081,-0.2027582,0.1552934,1.553999,-0.1096042,-0.3281205,1.537019,-0.267753,-0.1217209,1.572327,0.20288,-0.1229543,1.635478,NA,NA,NotTracked,NotTracked,
0.9472656,-0.2353516,0.06835938,0.9169922,0.4418945,0.1196289,0,-4,-3,-5,-3,-5,-8,-41,-1,1,-1,1,-1,-7,-3,-5,9.6875,9.6875,9.6875,-30.25,-30.25,-30.25,2.734329,2.825398,5.949298,7.01825,3.165024,3.404867,-0.2915641,-0.4301501,1.511593,0.2041399,-0.427996,1.556468,-0.01699111,0.4333504,1.595981,-0.3330319,-0.4302543,1.51533,0.1460838,-0.408137,1.512375,-0.0304638,-0.02468153,1.5932,-0.03021707,-0.3368133,1.577886,-0.2018476,0.1550986,1.553031,-0.1091074,-0.3282614,1.536537,-0.2680057,-0.1222198,1.572835,0.2022024,-0.1253783,1.636331,NA,NA,NotTracked,NotTracked,
0.9453125,-0.2231445,0.05908203,0.8881836,0.4477539,0.1640625,-4,-3,-3,-1,-1,0,0,-1,-1,-2,0,0,-1,0,3,6,4.4375,4.4375,4.4375,-18.125,-18.125,-18.125,2.811196,2.844498,5.878094,7.025583,3.190112,3.357969,-0.285678,-0.4286875,1.507233,0.2092594,-0.4326589,1.550875,-0.01551098,0.4333534,1.595573,-0.3318865,-0.4257624,1.522585,0.1453774,-0.4100797,1.512534,-0.02996678,-0.02481221,1.592685,-0.03011467,-0.3370176,1.577673,-0.2008568,0.1552018,1.552143,-0.1088886,-0.32827,1.535983,-0.2680889,-0.1226361,1.573223,0.2019082,-0.1266926,1.63699,NA,NA,NotTracked,NotTracked,
0.9643555,-0.2197266,0.06396484,0.8764648,0.4428711,0.2045898,0,0,-1,-1,-4,-2,-4,-8,-4,-2,0,-1,-2,-2,-3,-6,-1.75,-1.75,-1.75,-19,-19,-19,2.881155,2.86517,5.80591,7.011206,3.219159,3.349441,-0.2811336,-0.4279563,1.501704,0.2110374,-0.432859,1.543598,-0.01474758,0.4333215,1.595274,-0.3258259,-0.4120695,1.5168,0.1464354,-0.4082566,1.518455,-0.02987501,-0.02483917,1.592483,-0.03017887,-0.3370755,1.577531,-0.2004866,0.1551802,1.551842,-0.1089322,-0.3282254,1.535746,-0.2679195,-0.1226812,1.573304,0.20193,-0.1270534,1.63693,NA,NA,NotTracked,NotTracked,
0.9702148,-0.2265625,0.04980469,0.8706055,0.4238281,0.2060547,5,1,-2,-3,-3,-2,-2,-1,0,-1,-1,-1,0,0,-3,-3,-3.375,-3.375,-3.375,-17.9375,-17.9375,-17.9375,2.940747,2.887722,5.741069,6.999163,3.234785,3.350535,-0.2775427,-0.4265447,1.495973,0.2121316,-0.4344271,1.535684,-0.01412152,0.4331776,1.595037,-0.3228112,-0.4216585,1.508826,0.1481091,-0.3885399,1.52,-0.02981107,-0.02486365,1.5924,-0.0303129,-0.3371958,1.577377,-0.2000448,0.1552499,1.551555,-0.1090585,-0.3282207,1.535471,-0.2673539,-0.1221493,1.573217,0.2020321,-0.127198,1.636827,NA,NA,NotTracked,NotTracked,
0.9760742,-0.2207031,0.04882813,0.871582,0.4072266,0.2148438,-7,-3,-5,-3,-3,-4,-2,-26,-1,-2,-1,-1,-1,0,-1,-3,-3.375,-3.375,-3.375,-7.25,-7.25,-7.25,2.984424,2.909199,5.691516,6.97536,3.266663,3.360946,-0.2723159,-0.4251553,1.490715,0.2147046,-0.4334966,1.52645,-0.01348925,0.4330808,1.594941,-0.321267,-0.4165041,1.507954,0.1485403,-0.3885474,1.524833,-0.02979792,-0.02495911,1.59221,-0.03069837,-0.3373832,1.577007,-0.1997427,0.1552988,1.551432,-0.1093901,-0.3281577,1.535089,-0.2669725,-0.1214261,1.573139,0.2022034,-0.1274907,1.636489,NA,NA,NotTracked,NotTracked,
0.9697266,-0.2265625,0.03564453,0.8710938,0.4023438,0.2133789,1,0,-1,-1,-1,0,0,1,1,-1,1,-1,-1,0,-2,0,-1.1875,-1.1875,-1.1875,-1.0625,-1.0625,-1.0625,3.015468,2.92821,5.656365,6.965579,3.281942,3.369993,-0.2650423,-0.4232548,1.480601,0.2176784,-0.4318182,1.506868,-0.01271671,0.4327812,1.59502,-0.3130098,-0.4239138,1.485829,0.1845435,-0.4206492,1.486255,-0.02979329,-0.02513344,1.592104,-0.03125212,-0.3378218,1.576472,-0.1993958,0.155282,1.551344,-0.1098846,-0.3283237,1.53456,-0.2653421,-0.1211733,1.572103,0.2030517,-0.1274035,1.633774,NA,NA,NotTracked,NotTracked,
0.9702148,-0.2143555,0.04833984,0.8618164,0.4169922,0.1923828,-2,-1,-1,-1,-1,0,-2,-6,-1,0,-2,-1,0,-1,0,1,-0.375,-0.375,-0.375,8.4375,8.4375,8.4375,3.038802,2.944067,5.631545,6.940923,3.322825,3.407062,-0.261501,-0.4230061,1.476657,0.2191288,-0.4275956,1.498556,-0.01241906,0.4325543,1.594992,-0.3140808,-0.4135616,1.490368,0.1854705,-0.421099,1.476382,-0.02980298,-0.02520392,1.592078,-0.03166185,-0.3380201,1.5762,-0.1992862,0.1552794,1.551328,-0.1102071,-0.3283939,1.534441,-0.2644559,-0.1204569,1.571193,0.2037789,-0.1275085,1.631186,NA,NA,NotTracked,NotTracked,
0.9584961,-0.2338867,0.05322266,0.855957,0.4101563,0.2089844,2,2,-1,-1,-1,0,2,21,1,0,-1,-1,1,0,0,-1,0.25,0.25,0.25,7.1875,7.1875,7.1875,3.04771,2.956348,5.620749,6.914014,3.356757,3.449468,-0.2602041,-0.423464,1.471378,0.2188285,-0.4261326,1.490123,-0.01222039,0.4323002,1.595008,-0.3131019,-0.4184847,1.486045,0.1865394,-0.4135937,1.469159,-0.02981749,-0.02531469,1.59201,-0.03208791,-0.3382275,1.575782,-0.1992353,0.1552923,1.551393,-0.1106296,-0.3284542,1.534055,-0.263725,-0.1201972,1.570171,0.2048026,-0.1273645,1.627431,NA,NA,NotTracked,NotTracked,
0.9511719,-0.2368164,0.09765625,0.8579102,0.4150391,0.2177734,2,-1,1,0,0,-1,-1,0,-1,-1,-2,0,-1,-1,-1,-2,2.9375,2.9375,2.9375,8.375,8.375,8.375,3.057874,2.964657,5.613147,6.905498,3.365246,3.463711,-0.2592386,-0.4222918,1.468378,0.2178883,-0.4248526,1.482747,-0.0120907,0.4321209,1.595052,-0.3125691,-0.4184467,1.481786,0.1851863,-0.4167333,1.462458,-0.02988465,-0.02541889,1.591943,-0.03234429,-0.3384137,1.575467,-0.1992044,0.1552904,1.551408,-0.1108566,-0.3285557,1.53383,-0.263058,-0.1200932,1.569194,0.2053917,-0.1277201,1.624167,NA,NA,NotTracked,NotTracked,
0.9516602,-0.2514648,0.0859375,0.8544922,0.4228516,0.2119141,6,2,-1,0,1,1,3,33,-1,1,0,-1,-1,-2,0,-1,9.4375,9.4375,9.4375,8.6875,8.6875,8.6875,3.0562,2.969651,5.622722,6.891245,3.378065,3.49003,-0.258559,-0.421153,1.465665,0.2168605,-0.4237162,1.477263,-0.01200878,0.4320428,1.59508,-0.3105682,-0.415623,1.477,0.1838679,-0.4149459,1.461213,-0.02988896,-0.02547319,1.591909,-0.03255837,-0.3385105,1.575164,-0.1991889,0.1552965,1.551419,-0.1110443,-0.3285688,1.533601,-0.2627292,-0.1200834,1.56833,0.2058785,-0.127883,1.621096,NA,NA,NotTracked,NotTracked,
0.9599609,-0.2280273,0.08154297,0.8461914,0.4282227,0.2084961,5,-2,-2,-3,-2,-3,-4,-14,-1,-1,-1,-1,-2,1,-1,-1,13.4375,13.4375,13.4375,7.8125,7.8125,7.8125,3.053514,2.969623,5.641073,6.873896,3.386982,3.525097,-0.2605705,-0.4211754,1.463244,0.2150497,-0.4215187,1.470787,-0.01180873,0.4319439,1.595268,-0.3104727,-0.4317471,1.469809,0.1818162,-0.413636,1.45222,-0.02993045,-0.02553952,1.591878,-0.03308503,-0.3387131,1.574611,-0.1991014,0.1554354,1.551738,-0.1115731,-0.3286346,1.533195,-0.2621114,-0.1197879,1.567083,0.2065963,-0.1277265,1.616511,NA,NA,NotTracked,NotTracked,
0.9707031,-0.2368164,0.08496094,0.847168,0.4311523,0.1972656,-8,-4,-2,-1,0,-1,-4,-20,-3,-1,-1,-2,-1,-1,-2,-2,9.8125,9.8125,9.8125,7.3125,7.3125,7.3125,3.042968,2.965486,5.664395,6.865448,3.386472,3.543905,-0.262577,-0.4208175,1.463906,0.2139208,-0.4218441,1.469632,-0.011742,0.4319718,1.595496,-0.3120266,-0.4216024,1.473887,0.2120067,-0.4263991,1.429743,-0.02993384,-0.02553462,1.591881,-0.03331387,-0.3387482,1.574449,-0.1989744,0.1555358,1.551879,-0.1117729,-0.3286322,1.533104,-0.2620576,-0.1199066,1.566841,0.2066409,-0.1277959,1.615041,NA,NA,NotTracked,NotTracked,
0.9643555,-0.2421875,0.09814453,0.840332,0.4404297,0.1982422,2,-1,-1,-2,-2,0,0,2,-3,-1,0,1,0,-1,-2,-1,9.125,9.125,9.125,8.375,8.375,8.375,3.031021,2.959634,5.687951,6.860444,3.381788,3.559963,-0.263481,-0.4220335,1.464412,0.2124537,-0.4218406,1.469173,-0.01169293,0.4319377,1.595693,-0.3141123,-0.4135017,1.476548,0.1794132,-0.4110363,1.449098,-0.02992612,-0.0255485,1.591887,-0.03342278,-0.3388461,1.574389,-0.1989379,0.1555912,1.552203,-0.1118783,-0.3286904,1.533084,-0.2619004,-0.1200742,1.566593,0.2064766,-0.1279031,1.613391,NA,NA,NotTracked,NotTracked,
0.9667969,-0.2416992,0.08544922,0.8461914,0.4448242,0.1987305,1,1,-1,-1,-2,-1,0,6,-1,-2,-1,0,-2,1,0,-2,6.6875,6.6875,6.6875,7.4375,7.4375,7.4375,3.016699,2.952965,5.711475,6.858936,3.373365,3.571816,-0.265034,-0.4222711,1.465621,0.211263,-0.4237359,1.468802,-0.0116603,0.4319236,1.595863,-0.3136413,-0.4256097,1.472787,0.1785017,-0.4133162,1.44887,-0.02992984,-0.0255397,1.591892,-0.03353256,-0.3388593,1.574288,-0.1988657,0.1557313,1.552389,-0.1119506,-0.3286965,1.533058,-0.261914,-0.1200236,1.566431,0.2061727,-0.1279195,1.612258,NA,NA,NotTracked,NotTracked,
0.9550781,-0.2436523,0.09570313,0.8413086,0.4453125,0.1938477,-3,0,0,0,2,0,0,4,1,-1,-2,-2,-1,-1,-2,1,5.5,5.5,5.5,6.1875,6.1875,6.1875,3.004118,2.945245,5.731886,6.858427,3.36866,3.576452,-0.2662335,-0.422985,1.465786,0.2107884,-0.4237091,1.469107,-0.01162752,0.4318331,1.595986,-0.3144859,-0.4168011,1.476315,0.1757625,-0.4187469,1.449173,-0.02992315,-0.02555211,1.591879,-0.03362912,-0.3389203,1.574101,-0.1988775,0.1558029,1.55264,-0.1120372,-0.3287057,1.532966,-0.2618332,-0.1202437,1.566225,0.2059977,-0.1277479,1.611183,NA,NA,NotTracked,NotTracked,
0.953125,-0.2514648,0.1000977,0.8505859,0.4482422,0.1972656,-4,0,0,0,1,-1,0,15,-2,-1,-1,-1,-1,-3,0,0,5,5,5,7.125,7.125,7.125,2.994366,2.938923,5.748278,6.864209,3.35198,3.582418,-0.2684488,-0.4222548,1.468743,0.210655,-0.4251912,1.471784,-0.01155273,0.431718,1.596125,-0.3157685,-0.4177575,1.477596,0.177062,-0.4167521,1.451986,-0.02990178,-0.02556876,1.591858,-0.03370744,-0.3390234,1.57384,-0.1988569,0.155896,1.552851,-0.1121205,-0.3287421,1.532809,-0.2617909,-0.1203068,1.566124,0.2057198,-0.127737,1.608919,NA,NA,NotTracked,Unknown,
0.9487305,-0.2460938,0.09619141,0.8540039,0.4501953,0.2016602,-2,-2,-1,0,-1,-2,-4,-5,0,-2,-2,0,0,-1,-1,1,5.1875,5.1875,5.1875,5.875,5.875,5.875,2.986676,2.932182,5.763003,6.867471,3.34623,3.582247,-0.268419,-0.4216757,1.47126,0.2109162,-0.4255617,1.474178,-0.01156707,0.4317175,1.596204,-0.3153764,-0.4308929,1.472529,0.1779539,-0.4157966,1.454598,-0.02986341,-0.0255705,1.591848,-0.03380346,-0.3390599,1.57374,-0.1988821,0.1560315,1.553193,-0.1122014,-0.3287456,1.532763,-0.261822,-0.1203288,1.566141,0.2057344,-0.1277518,1.608442,NA,NA,NotTracked,NotTracked,
0.9555664,-0.2587891,0.09472656,0.8515625,0.453125,0.1962891,1,-1,0,2,2,0,2,32,0,-2,0,0,-1,-1,0,-2,2.75,2.75,2.75,4.5,4.5,4.5,2.978577,2.926684,5.775545,6.871388,3.340755,3.580405,-0.2697611,-0.423007,1.473649,0.2122319,-0.4262736,1.477031,-0.01153291,0.4316671,1.596584,-0.3145701,-0.4225353,1.476653,0.1783337,-0.4181958,1.454886,-0.02986536,-0.02553734,1.591883,-0.03383364,-0.3390121,1.573717,-0.1989077,0.1561712,1.55364,-0.1122294,-0.3287236,1.532768,-0.2618515,-0.1203728,1.566281,0.2056738,-0.1277726,1.608309,NA,NA,NotTracked,NotTracked,
0.9541016,-0.253418,0.09033203,0.8564453,0.4472656,0.1894531,-5,-2,0,-1,-1,-3,-3,-16,0,0,-1,-1,0,0,1,-1,5,5,5,0.625,0.625,0.625,2.971517,2.921873,5.788207,6.88896,3.321258,3.563093,-0.2707638,-0.4233215,1.474362,0.2129861,-0.4267503,1.478573,-0.01151836,0.4316682,1.596709,-0.3155754,-0.422238,1.47901,0.1784354,-0.4194424,1.455832,-0.02986726,-0.02553115,1.591891,-0.03400556,-0.3390049,1.57367,-0.1990377,0.1563421,1.554034,-0.112394,-0.3287078,1.532794,-0.2618521,-0.1203805,1.566323,0.2056581,-0.1277213,1.608192,NA,NA,NotTracked,NotTracked,
0.9667969,-0.2402344,0.06982422,0.8579102,0.4492188,0.1914063,1,-1,-2,-1,0,-2,0,-2,-1,-2,0,-1,-1,0,0,0,5.625,5.625,5.625,0.5625,0.5625,0.5625,2.963095,2.916246,5.807265,6.899282,3.313809,3.551494,-0.2718013,-0.4238638,1.47496,0.2140571,-0.4269479,1.479811,-0.01150611,0.4316504,1.596731,-0.3163138,-0.4188116,1.48151,0.1787216,-0.420698,1.459451,-0.0298713,-0.02553476,1.591881,-0.0340474,-0.3389939,1.573628,-0.1990704,0.1564595,1.55422,-0.1124402,-0.3286874,1.532761,-0.2619228,-0.1203317,1.566456,0.2056475,-0.1277561,1.607987,NA,NA,NotTracked,NotTracked,
0.9609375,-0.2270508,0.07373047,0.8618164,0.4492188,0.1889648,-1,-2,-2,-1,-1,-3,-2,-10,1,-1,-2,-1,-2,-1,0,-1,0.25,0.25,0.25,0.4375,0.4375,0.4375,2.961443,2.914655,5.809166,6.904088,3.310746,3.545985,-0.2719033,-0.4244774,1.477437,0.2164695,-0.4284013,1.482854,-0.01152252,0.4315863,1.596868,-0.3179124,-0.4144517,1.487269,0.2138638,-0.4378,1.442476,-0.02985726,-0.02551421,1.591882,-0.03424034,-0.3389948,1.57358,-0.1991463,0.156556,1.554438,-0.1126707,-0.3287119,1.532906,-0.2619742,-0.1205867,1.567024,0.2056973,-0.1278213,1.607604,NA,NA,NotTracked,NotTracked,
0.9624023,-0.2617188,0.08398438,0.8618164,0.4453125,0.1835938,-2,-2,-2,-3,-1,-1,0,-9,-1,-1,-2,0,-1,1,-3,-2,-3.375,-3.375,-3.375,-0.875,-0.875,-0.875,2.951555,2.913698,5.81528,6.912871,3.306382,3.535183,-0.2722095,-0.4244272,1.478559,0.2173244,-0.4288964,1.483186,-0.01153805,0.4315107,1.596984,-0.3174285,-0.4312958,1.481905,0.2165038,-0.4418018,1.442283,-0.02987055,-0.02552062,1.591879,-0.03439919,-0.3390693,1.573503,-0.1999817,0.1562585,1.552853,-0.1128048,-0.3287649,1.532939,-0.2619475,-0.1205718,1.567288,0.2057251,-0.1278708,1.607537,NA,NA,NotTracked,NotTracked,
