ALX,ALY,ALZ,ARX,ARY,ARZ,EMG0L,EMG1L,EMG2L,EMG3L,EMG4L,EMG5L,EMG6L,EMG7L,EMG0R,EMG1R,EMG2R,EMG3R,EMG4R,EMG5R,EMG6R,EMG7R,GLX,GLY,GLZ,GRX,GRY,GRZ,ORL,OPL,OYL,ORR,OPR,OYR,LHNX,LHNY,LHNZ,RHNX,RHNY,RHNZ,HX,HY,HZ,LTX,LTY,LTZ,RTX,RTY,RTZ,SpineMidX,SpineMidY,SpineMidZ,SpineBaseX,SpineBaseY,SpineBaseZ,ShoulderLeftX,ShoulderLeftY,ShoulderLeftZ,ShoulderRightX,ShoulderRightY,ShoulderRightZ,ElbowLeftX,ElbowLeftY,ElbowLeftZ,ElbowRightX,ElbowRightY,ElbowRightZ,Myo_Pose_left,Myo_Pose_Right,Kinect_pose_left,Kinect_pose_right
0.9858398,-0.2661133,0.1230469,0.9736328,0.496582,0.1044922,-1,-2,-1,-1,-1,-3,-1,0,4,2,3,-2,-5,-1,-3,-8,3,3,3,-16.1875,-16.1875,-16.1875,3.196361,2.954658,5.491171,6.776731,3.33959,3.284177,-0.233815,-0.4191371,1.48636,0.2039434,-0.4306802,1.50221,-0.008111768,0.4264106,1.624355,-0.2872978,-0.4235153,1.488622,0.1437686,-0.3806528,1.510778,-0.02757126,-0.02959687,1.617985,-0.03107136,-0.3412212,1.593254,-0.1983359,0.1534859,1.587743,-0.1100825,-0.3307562,1.554068,-0.2520643,-0.1206992,1.586025,0.2033003,-0.1319461,1.628965,NA,NA,NotTracked,NotTracked,
0.9775391,-0.3115234,0.1142578,1.133789,0.5083008,0.3183594,-2,-4,-3,1,-4,-3,-2,-2,6,41,43,2,-4,-1,0,0,-1.25,-1.25,-1.25,-9.875,-9.875,-9.875,3.207952,2.972322,5.475711,6.655213,3.420196,3.389936,-0.2330003,-0.4190117,1.48501,0.1791391,-0.4112452,1.481787,-0.008018905,0.426492,1.623972,-0.2848808,-0.4168746,1.483511,0.1365387,-0.3734462,1.496707,-0.02727803,-0.02963519,1.617508,-0.03096447,-0.3412802,1.592958,-0.1982396,0.1534308,1.587545,-0.1099874,-0.3308225,1.553327,-0.2520081,-0.1207957,1.585983,0.2050419,-0.1299243,1.630785,NA,NA,NotTracked,NotTracked,
0.9912109,-0.3808594,0.1943359,0.9262695,0.7734375,0.6523438,1,-2,-2,-1,10,8,3,2,-6,-5,-41,-15,0,0,0,-2,-0.6875,-0.6875,-0.6875,23.1875,23.1875,23.1875,3.259101,3.029862,5.424459,6.504128,3.632941,3.611684,-0.231728,-0.4165898,1.480428,0.1483487,-0.3386805,1.440922,-0.007699994,0.4265314,1.623119,-0.2869176,-0.4254482,1.48812,0.1149002,-0.3274415,1.477222,-0.02725205,-0.02951327,1.616739,-0.03175095,-0.3409877,1.59189,-0.1981272,0.1533702,1.587394,-0.1111002,-0.330258,1.551773,-0.2519726,-0.1193533,1.58619,0.2073476,-0.1137599,1.638323,NA,NA,NotTracked,Unknown,
0.9355469,-0.4125977,0.3544922,0.3945313,0.7851563,0.7104492,-3,-1,-2,-3,-8,2,9,1,16,-7,-63,-13,-7,2,-1,6,-18.4375,-18.4375,-18.4375,-34.3125,-34.3125,-34.3125,3.363045,3.158041,5.29613,6.327261,4.157159,3.853212,-0.221065,-0.4033987,1.459499,0.08396301,-0.2268384,1.414545,-0.007268442,0.4266768,1.622526,-0.2728922,-0.3909436,1.463296,0.03622581,-0.2218794,1.447526,-0.02750966,-0.02928516,1.615958,-0.03379725,-0.3402536,1.590785,-0.1978012,0.1536255,1.587095,-0.1132266,-0.3292494,1.550771,-0.2526438,-0.1177575,1.586238,0.2094571,-0.08573468,1.639254,NA,NA,NotTracked,Unknown,
0.7724609,-0.5424805,0.496582,-0.1713867,0.5874023,0.6884766,-1,-3,-4,-3,3,-2,5,-1,-25,-72,-49,-22,-23,-10,-8,-31,-28.1875,-28.1875,-28.1875,-31.75,-31.75,-31.75,3.469395,3.434618,5.10373,6.206142,4.692097,4.038573,-0.1992519,-0.3764518,1.412683,0.04292711,-0.06941682,1.398778,-0.006604529,0.4267798,1.62173,-0.2033263,-0.3642498,1.368,0.0265134,0.001405557,1.438062,-0.02705819,-0.02857039,1.615667,-0.03225993,-0.3385727,1.590759,-0.1962416,0.1543567,1.585606,-0.1118026,-0.3283314,1.550597,-0.2539589,-0.1096696,1.58399,0.2087395,-0.07449572,1.58555,NA,NA,Unknown,Unknown,
0.765625,-0.5117188,0.4897461,-0.4873047,0.5205078,0.6601563,-3,-3,-3,-3,5,2,-1,-2,-10,34,-57,6,6,-1,-4,-6,-26.25,-26.25,-26.25,12.1875,12.1875,12.1875,3.516863,3.66685,4.994408,6.202794,5.31881,4.233808,-0.1707726,-0.3287127,1.358063,0.04251312,0.07381657,1.408882,-0.006128169,0.4268751,1.621612,-0.16823,-0.3207607,1.315654,0.07423297,0.1278174,1.4008,-0.02627552,-0.02817076,1.615819,-0.02959719,-0.338458,1.591268,-0.1960482,0.1554361,1.584804,-0.1092384,-0.3298122,1.551674,-0.2544625,-0.08978401,1.575182,0.2081517,-0.07635646,1.567579,NA,NA,Unknown,Unknown,
0.8413086,-0.5581055,0.4760742,-0.4746094,0.5693359,0.7114258,-11,-13,-6,-5,-43,-5,11,0,-15,1,-81,-26,-21,-6,-2,-14,-24.125,-24.125,-24.125,14.375,14.375,14.375,3.541001,3.884019,4.895867,6.333075,5.899907,4.474831,-0.1315807,-0.2834188,1.313954,0.05603997,0.1325061,1.430919,-0.006091974,0.4300992,1.622231,-0.1364644,-0.2702404,1.272818,0.04079302,0.1690127,1.3985,-0.02664244,-0.02884279,1.615149,-0.02838823,-0.3421225,1.591307,-0.1971769,0.1560544,1.584626,-0.108821,-0.3371988,1.557254,-0.2485679,-0.07781898,1.563636,0.1969246,-0.06946807,1.530057,NA,NA,Unknown,Unknown,
0.7578125,-0.6679688,0.6181641,-0.3833008,0.5527344,0.75,-6,-12,2,52,38,6,0,0,-9,-68,-43,-41,-32,-8,-3,-3,-18.125,-18.125,-18.125,-11.875,-11.875,-11.875,3.600191,4.187698,4.72906,6.464052,6.185065,4.706086,-0.09420624,-0.224888,1.277883,0.0081074,0.1179465,1.304242,-0.006762636,0.4341798,1.623507,-0.08323609,-0.1861616,1.257429,0.02015302,0.1304742,1.277187,-0.02713555,-0.02933821,1.614783,-0.0291435,-0.3426905,1.592187,-0.1974563,0.156279,1.584426,-0.1101592,-0.337346,1.560919,-0.244516,-0.06209331,1.551816,0.1757272,-0.0559151,1.491519,NA,NA,Unknown,Unknown,
0.515625,-0.7705078,0.8535156,-0.3710938,0.5776367,0.7089844,5,10,9,25,76,65,20,3,9,39,5,-1,-2,-4,-11,8,-25,-25,-25,-17.6875,-17.6875,-17.6875,3.630948,4.497187,4.552893,6.544963,6.297269,4.836992,-0.04840856,-0.1418721,1.266789,0.03080203,0.2124532,1.489244,-0.007441478,0.4355995,1.624395,-0.05234137,-0.145681,1.227444,0.07838092,0.2843548,1.47132,-0.02785478,-0.02900714,1.615046,-0.03075311,-0.3416183,1.594359,-0.197404,0.156536,1.58421,-0.1111912,-0.3342739,1.566052,-0.2670748,-0.06805148,1.539319,0.1731696,-0.0493977,1.479034,NA,NA,Unknown,NotTracked,
0.02392578,-0.5336914,0.7861328,-0.796875,0.3837891,0.1713867,-8,-13,9,-21,17,6,-1,-11,-27,-10,-1,3,1,5,10,16,-34.0625,-34.0625,-34.0625,53.1875,53.1875,53.1875,3.635857,5.110263,4.206903,6.796078,6.464656,5.264554,0.0004928935,-0.01724017,1.285497,0.01648846,0.206815,1.450004,-0.008531322,0.4388876,1.626469,0.002033465,-0.03691779,1.2562,0.06065467,0.2803815,1.416333,-0.02872487,-0.02890253,1.615012,-0.03165986,-0.3413239,1.595262,-0.1972401,0.1567685,1.583978,-0.1119113,-0.333427,1.566733,-0.2650241,-0.07008287,1.537417,0.1695166,-0.04795034,1.471496,NA,NA,Unknown,Unknown,
-0.3647461,-0.08886719,-0.4355469,-0.7832031,0.6191406,0.387207,-1,-30,-12,4,-31,-11,4,2,23,15,-2,0,3,-2,-18,17,-32.4375,-32.4375,-32.4375,27.875,27.875,27.875,3.474073,5.591427,3.8413,6.513195,6.298985,4.818367,0.03221045,0.07409409,1.38449,-0.0111797,0.2468781,1.379988,-0.009569005,0.4411469,1.626388,0.0007082137,0.139665,1.345964,0.04255492,0.2652498,1.366313,-0.0294659,-0.02925804,1.614678,-0.0337363,-0.3462888,1.5962,-0.1976739,0.157142,1.583583,-0.1144444,-0.3374306,1.56868,-0.2332914,-0.05219121,1.499885,0.148942,-0.05534113,1.449748,NA,NA,NotTracked,NotTracked,
-0.01757813,-1.200195,0.6010742,-2.948242,0.5268555,-2.336426,9,4,-9,-12,-5,-8,12,4,14,8,18,6,1,-34,0,38,44.75,44.75,44.75,-156.4375,-156.4375,-156.4375,3.37668,5.49515,4.005488,6.555988,6.480942,4.931906,-0.01529142,0.07358849,1.404398,0.01041857,0.2716841,1.37851,-0.01360881,0.4495007,1.629099,0.05270873,0.00997737,1.40878,0.05936739,0.2800728,1.376105,-0.03161521,-0.0298332,1.614734,-0.03500004,-0.3490287,1.596713,-0.1986429,0.1577011,1.582598,-0.1162527,-0.3396256,1.570614,-0.2269763,-0.05155851,1.495215,0.1352691,-0.06248309,1.431417,NA,NA,NotTracked,NotTracked,
0.015625,-0.05859375,0.5395508,-1.007324,0.8969727,0.1870117,0,-4,3,5,-12,-3,11,4,19,10,7,-4,-5,-2,19,25,-19.0625,-19.0625,-19.0625,206.875,206.875,206.875,3.475756,5.317669,4.051251,6.632667,6.512407,4.704278,0.02861633,0.0789348,1.351805,-0.0004358982,0.310964,1.383557,-0.01443909,0.4504363,1.629665,0.08774331,0.01121525,1.379818,0.03230238,0.3399953,1.4485,-0.03384062,-0.03157867,1.61627,-0.03579606,-0.3511408,1.597274,-0.1989848,0.1581261,1.581925,-0.1180654,-0.3423252,1.576226,-0.227569,-0.04956638,1.490326,0.1349832,-0.05549661,1.41984,NA,NA,NotTracked,NotTracked,
-0.1635742,-1.206055,0.6289063,-1.040527,0.4155273,0.3417969,-1,0,-6,-3,17,27,1,8,17,5,2,-9,7,14,-44,-5,-79.3125,-79.3125,-79.3125,129.6875,129.6875,129.6875,3.236774,5.109234,4.139489,6.97829,6.630762,4.837976,0.06869345,0.06983354,1.32764,-0.01363775,0.2988675,1.344481,-0.01459162,0.4496864,1.629194,0.09954017,0.03334881,1.286,-0.07812835,0.3570486,1.3505,-0.03369701,-0.0306661,1.616912,-0.03560038,-0.3483661,1.597681,-0.1990341,0.1583001,1.581569,-0.1172595,-0.3392812,1.57567,-0.2304853,-0.04713664,1.48532,0.1298432,0.01504816,1.353407,NA,NA,NotTracked,NotTracked,
-0.04882813,-0.9389648,0.3974609,-0.90625,0.4897461,0.07910156,-12,-2,-14,5,15,6,-13,-11,10,10,9,36,13,-11,0,-8,-80.25,-80.25,-80.25,129.75,129.75,129.75,3.120963,5.014414,4.047248,7.534855,6.428288,5.051668,0.04556407,0.008601658,1.305643,-0.01358915,0.2500241,1.311026,-0.0149846,0.4498071,1.62825,0.0593756,-0.009013324,1.25996,-0.03997283,0.2606224,1.320571,-0.0332378,-0.02921328,1.617228,-0.03528101,-0.3433175,1.597955,-0.1992233,0.1582938,1.581261,-0.1159563,-0.3343017,1.57383,-0.2335379,-0.0455693,1.482378,0.153811,0.04045033,1.354107,NA,NA,Unknown,Unknown,
0.09179688,-1.077148,0.4248047,-0.4648438,0.08642578,0.2109375,-4,-2,-14,-16,-10,2,9,4,-4,-1,-2,22,-8,-20,-22,-30,-72.125,-72.125,-72.125,87.1875,87.1875,87.1875,2.982536,4.966023,3.954366,7.700168,5.924049,5.070168,0.03745663,-0.007935431,1.31656,-0.0514607,0.1569173,1.248451,-0.01640005,0.4382137,1.62667,0.05139833,-0.0204406,1.270619,-0.08535932,0.09865168,1.205833,-0.03256415,-0.02961068,1.616774,-0.03484672,-0.3440118,1.59813,-0.2002411,0.1566505,1.579597,-0.1150214,-0.33624,1.569556,-0.2335492,-0.04593618,1.477365,0.1594727,0.05125563,1.362766,NA,NA,Unknown,NotTracked,
0.1210938,-0.9389648,0.2460938,0.02929688,0.1147461,0.2036133,-3,-2,-3,-9,-12,6,10,2,14,-2,-2,-4,-19,-9,16,47,-26.875,-26.875,-26.875,44.6875,44.6875,44.6875,2.933511,4.940127,3.876864,7.768823,5.242776,4.978549,0.05730066,0.02275598,1.294097,-0.03177435,0.02165431,1.245355,-0.01702992,0.4343604,1.626308,0.02933873,0.07878599,1.248032,-0.007262317,-0.03378593,1.219143,-0.03207302,-0.02438153,1.619797,-0.03344951,-0.3292168,1.599488,-0.1996951,0.1578887,1.579699,-0.1113233,-0.3215806,1.566544,-0.2325654,-0.0410863,1.469534,0.1561434,0.05395745,1.366347,NA,NA,NotTracked,NotTracked,
0.09326172,-0.8388672,0.3525391,0.8486328,0.9223633,0.1933594,-1,-2,-1,-2,-3,12,24,15,21,6,7,-7,-5,4,-27,11,43.6875,43.6875,43.6875,28.25,28.25,28.25,2.953232,4.908739,3.84301,7.864557,4.487444,4.798758,0.05804811,-0.01631332,1.275081,-0.01486651,-0.0697329,1.243811,-0.01912433,0.4319495,1.625809,0.09189443,0.06145589,1.311917,0.009232511,-0.1087686,1.199294,-0.03164006,-0.02162889,1.621397,-0.03230699,-0.3245467,1.599667,-0.1997091,0.1580681,1.57947,-0.1093649,-0.3170083,1.564142,-0.2289469,-0.03900704,1.464367,0.1527074,0.05051611,1.363838,NA,NA,NotTracked,NotTracked,
0.2397461,-1.207031,0.5244141,1.100586,1.219238,0.03613281,-1,0,-7,-6,-7,5,10,-1,-19,-1,2,7,-11,-15,-44,-50,-72,-72,-72,-116.5,-116.5,-116.5,2.985256,4.672626,3.824517,7.816698,4.338903,4.700971,0.0410482,-0.05470888,1.27578,-0.01216849,-0.1100921,1.243314,-0.02315425,0.4301406,1.625293,0.06480655,-0.002017956,1.35225,-0.01651371,-0.06307697,1.213886,-0.03188093,-0.02083034,1.62176,-0.03195038,-0.3238135,1.599942,-0.1997441,0.158688,1.577729,-0.1087317,-0.316142,1.563927,-0.2284078,-0.04034798,1.466268,0.1499749,0.01547377,1.369721,NA,NA,NotTracked,NotTracked,
0.03759766,-1.14209,0.2080078,0.3525391,1.166016,-0.3183594,-3,-2,-1,-14,-7,-5,11,-6,3,-1,-1,-1,-6,20,24,43,133.125,133.125,133.125,-59.5,-59.5,-59.5,3.099797,4.666637,3.858337,7.733121,4.392383,4.644946,0.05957799,-0.07011817,1.30066,-0.01019545,-0.1048334,1.238046,-0.02646686,0.4295492,1.623818,0.01508583,-0.03229939,1.249818,-0.04044525,-0.09991535,1.217857,-0.03210364,-0.02040571,1.621698,-0.03163027,-0.3234428,1.600255,-0.2003659,0.158738,1.577558,-0.1082816,-0.3157639,1.564001,-0.2302104,-0.04292117,1.471947,0.1480183,0.001858441,1.370081,NA,NA,NotTracked,NotTracked,
-0.09960938,-0.953125,0.5292969,0.4482422,0.9394531,-0.105957,-3,-2,2,-3,-4,-5,-1,-2,6,-1,-3,-3,-16,-31,8,25,-20.125,-20.125,-20.125,-33.8125,-33.8125,-33.8125,3.147675,4.673443,3.879783,7.657175,4.419359,4.638932,0.05326148,-0.07561834,1.299531,-0.01189632,-0.1065543,1.242464,-0.02857728,0.4293668,1.622509,0.01164929,-0.03244359,1.247197,-0.007633597,-0.05675628,1.21876,-0.03250528,-0.01996746,1.621498,-0.0316116,-0.3233681,1.600497,-0.2007913,0.1588269,1.575072,-0.1082122,-0.3156687,1.564025,-0.2303393,-0.04554033,1.475454,0.1484979,-0.00478419,1.369265,NA,NA,NotTracked,NotTracked,
-0.2524414,-0.7841797,0.2602539,0.4594727,0.7788086,0.001953125,-2,-3,-1,0,-2,-1,1,0,-1,0,1,-3,-5,-12,3,5,22.1875,22.1875,22.1875,-26.1875,-26.1875,-26.1875,3.13614,4.66681,3.905636,7.614427,4.444664,4.648843,0.05552935,-0.09873427,1.3078,-0.00919422,-0.1080933,1.24627,-0.02999781,0.4291883,1.621308,-0.005349133,-0.06999965,1.262667,-0.01044313,-0.05503107,1.227649,-0.03312992,-0.0195797,1.621023,-0.03166526,-0.3233392,1.600483,-0.2011844,0.1586823,1.575051,-0.1082447,-0.3155844,1.563811,-0.2309038,-0.04684177,1.478284,0.1508749,-0.009073155,1.370796,NA,NA,NotTracked,NotTracked,
0.4443359,-0.7080078,0.3623047,0.46875,0.6162109,0.03125,2,1,1,1,0,0,-3,-2,1,-1,-1,-1,0,-19,2,8,6.8125,6.8125,6.8125,-61.4375,-61.4375,-61.4375,3.145316,4.591234,3.918828,7.492469,4.468069,4.652985,0.02421127,-0.1121692,1.315196,-0.0003230115,-0.1237057,1.256075,-0.03053874,0.4293565,1.620944,-0.01549098,-0.07471399,1.251,-0.03984452,-0.1035819,1.255133,-0.03361563,-0.01939384,1.620635,-0.0318796,-0.3234327,1.600312,-0.2016973,0.1587028,1.575199,-0.1084716,-0.3156316,1.563414,-0.2345262,-0.04879541,1.484804,0.2370161,0.02438574,1.424898,NA,NA,NotTracked,NotTracked,
0.3686523,-0.7709961,0.4467773,0.4287109,0.7026367,0.25,1,0,2,-1,-2,-1,1,0,-1,-2,-3,-1,-1,-3,0,2,53.0625,53.0625,53.0625,-44.1875,-44.1875,-44.1875,3.215478,4.3771,3.9548,7.388678,4.397746,4.619858,-0.01387195,-0.1372384,1.330834,0.009890907,-0.161242,1.270486,-0.03096886,0.429438,1.620448,-0.03899204,-0.1643033,1.264667,-0.02469326,-0.1390488,1.2795,-0.03420093,-0.01966763,1.61972,-0.03236871,-0.3245444,1.599607,-0.2023622,0.1586956,1.575396,-0.1087476,-0.316447,1.562656,-0.2453192,-0.05102703,1.497375,0.2437482,0.01138074,1.445483,NA,NA,NotTracked,NotTracked,
0.5107422,-0.7207031,0.4995117,0.4047852,0.8139648,0.2270508,0,1,-2,-3,-2,2,-1,-1,-11,-1,-2,-3,-1,-5,-2,-3,80.8125,80.8125,80.8125,-95.4375,-95.4375,-95.4375,3.306799,4.167712,4.041548,7.270111,4.285956,4.54784,0.004904564,-0.2032697,1.310771,0.03744945,-0.1930082,1.291854,-0.03124352,0.4297885,1.619494,-0.00904313,-0.2515008,1.266167,0.01484006,-0.1660804,1.298769,-0.03493065,-0.02040795,1.617683,-0.03305864,-0.3267716,1.597902,-0.2038199,0.1590446,1.574257,-0.1091568,-0.3182702,1.560678,-0.2590729,-0.05287122,1.517009,0.2485156,-0.00398837,1.474171,NA,NA,NotTracked,NotTracked,
0.7094727,-0.6201172,0.4633789,0.4423828,0.7773438,0.394043,-2,-2,-1,0,-1,1,1,-2,-2,-1,-2,-3,-2,-1,0,-2,154.8125,154.8125,154.8125,-149.3125,-149.3125,-149.3125,3.475695,3.854631,4.255455,7.095967,4.158165,4.421333,-0.03266258,-0.2752537,1.362663,0.07322322,-0.245933,1.328802,-0.03128686,0.4300522,1.617997,0.02030548,-0.3188362,1.312125,0.04531197,-0.2253139,1.31544,-0.03652338,-0.02219103,1.613146,-0.03630055,-0.3323449,1.591311,-0.205746,0.159302,1.572755,-0.1130644,-0.3234124,1.55291,-0.2678989,-0.05397892,1.537908,0.2311332,-0.03363464,1.522147,NA,NA,NotTracked,NotTracked,
0.7612305,-0.6503906,0.5664063,0.4707031,0.7797852,0.5756836,1,-1,0,-1,-3,3,5,1,-1,0,-1,3,0,4,2,-2,128.5,128.5,128.5,-137.0625,-137.0625,-137.0625,3.576531,3.613553,4.435906,6.890886,3.955964,4.194029,-0.1077564,-0.3313206,1.39888,0.1132601,-0.3037217,1.372328,-0.03078511,0.4306515,1.614991,-0.1475355,-0.3536624,1.401714,0.07759885,-0.2890245,1.362952,-0.03825508,-0.0229533,1.607337,-0.0398752,-0.3346314,1.584585,-0.2070661,0.1590023,1.57157,-0.1184386,-0.325005,1.545103,-0.2705973,-0.06518399,1.553534,0.2253055,-0.04976797,1.555289,NA,NA,NotTracked,Unknown,
0.7763672,-0.5029297,0.4345703,0.5483398,0.8803711,0.4360352,-3,-3,0,3,3,0,2,-1,-2,-4,-2,0,-1,1,0,-2,148,148,148,-124.6875,-124.6875,-124.6875,3.64558,3.389037,4.646545,6.831794,3.754824,3.982173,-0.1590374,-0.357889,1.432841,0.1509519,-0.354562,1.426084,-0.02909148,0.431507,1.611635,-0.2113072,-0.3684902,1.440882,0.1089925,-0.3502902,1.408255,-0.03614544,-0.02304786,1.604059,-0.03512635,-0.3347947,1.581989,-0.2079976,0.1586004,1.570551,-0.1150016,-0.3261482,1.542481,-0.2686514,-0.08539689,1.570846,0.2150251,-0.084207,1.588153,NA,NA,Unknown,Unknown,
0.8862305,-0.3120117,0.3676758,0.7182617,0.7783203,0.3442383,0,-1,-1,-2,-1,0,1,-1,-2,-11,-34,-3,-1,5,0,-1,89.875,89.875,89.875,-142.75,-142.75,-142.75,3.617712,3.128009,4.992601,6.794152,3.497548,3.630972,-0.1980086,-0.3846297,1.459041,0.1730791,-0.3845828,1.480624,-0.02637344,0.4324552,1.608213,-0.2496506,-0.3925977,1.467487,0.120872,-0.3659112,1.477,-0.03441028,-0.02305373,1.602101,-0.03244672,-0.3351974,1.581486,-0.2083511,0.1583827,1.569877,-0.1124756,-0.3268914,1.541838,-0.267576,-0.09712745,1.581471,0.2096561,-0.100683,1.60937,NA,NA,Unknown,NotTracked,
0.9604492,-0.4291992,0.215332,0.828125,0.5317383,0.3217773,1,-2,-1,-2,0,-1,0,-2,-1,-1,5,-1,-1,-2,0,1,45.6875,45.6875,45.6875,-97.125,-97.125,-97.125,3.397329,2.960633,5.316375,6.838583,3.313056,3.346387,-0.2321005,-0.4094731,1.48292,0.1895714,-0.4094308,1.520592,-0.02357739,0.4323395,1.605181,-0.2839052,-0.4282788,1.480333,0.1349308,-0.3865988,1.491667,-0.03374022,-0.0232392,1.600961,-0.03199417,-0.3354993,1.58137,-0.2079534,0.1580053,1.56809,-0.1119291,-0.3270946,1.541594,-0.2684579,-0.1038979,1.58805,0.2063387,-0.1137091,1.626737,NA,NA,NotTracked,NotTracked,
1.046875,-0.2915039,0.1005859,0.9165039,0.5410156,0.2836914,-1,-1,-1,-1,-2,-2,0,0,-1,-2,0,1,0,-1,1,-2,39.4375,39.4375,39.4375,-34.9375,-34.9375,-34.9375,3.19625,2.87894,5.571119,6.933668,3.214863,3.172602,-0.248699,-0.4183781,1.49794,0.1987459,-0.4229111,1.539746,-0.02232174,0.4324194,1.604495,-0.3023476,-0.4257093,1.499913,0.1402173,-0.4169382,1.506542,-0.03358644,-0.0233706,1.60082,-0.03202531,-0.3357793,1.581697,-0.2075971,0.157922,1.567424,-0.1118794,-0.3271977,1.541752,-0.2688919,-0.1085903,1.59141,0.204768,-0.1175369,1.632,NA,NA,NotTracked,NotTracked,
1.087891,-0.1855469,0.01708984,0.9819336,0.5327148,0.1870117,-1,-2,-1,-2,1,1,-2,-2,-1,-1,-1,0,-1,-1,-2,-2,28.75,28.75,28.75,-7.75,-7.75,-7.75,2.963753,2.825449,5.845469,7.043863,3.145528,3.036092,-0.2645234,-0.4246971,1.511289,0.2048227,-0.4285389,1.555302,-0.02094023,0.432379,1.60382,-0.3151144,-0.4231027,1.514276,0.1438303,-0.4164253,1.518,-0.03355434,-0.02347725,1.60073,-0.03225606,-0.3360515,1.582057,-0.2070406,0.1576772,1.566613,-0.1119489,-0.3272499,1.541882,-0.2689228,-0.1123908,1.592422,0.203511,-0.1216625,1.635737,NA,NA,NotTracked,NotTracked,
1.053223,-0.1367188,-0.02490234,0.9819336,0.5170898,0.1152344,-14,-4,-3,-5,-4,-6,-8,-29,1,-1,-1,0,-1,-4,-1,-2,12.4375,12.4375,12.4375,-6.625,-6.625,-6.625,2.784227,2.804572,6.046978,7.11081,3.111552,2.957352,-0.2793369,-0.4319844,1.522102,0.2105069,-0.4322967,1.568293,-0.01996246,0.4323134,1.603184,-0.3240595,-0.4271123,1.5245,0.148657,-0.3929327,1.529667,-0.03343397,-0.02365094,1.600512,-0.03234977,-0.3362565,1.582184,-0.2063044,0.1575391,1.56549,-0.1119727,-0.3273171,1.541932,-0.2698106,-0.1149851,1.592349,0.2027758,-0.1241097,1.637886,NA,NA,NotTracked,NotTracked,
1.012207,-0.1206055,0.03955078,0.9487305,0.4467773,0.08349609,-8,-1,-1,-1,-1,0,-1,-13,-3,-2,-1,-1,-1,-6,0,4,-0.3125,-0.3125,-0.3125,-5.0625,-5.0625,-5.0625,2.720556,2.802782,6.114183,7.128575,3.102974,2.930877,-0.2876339,-0.4316136,1.531902,0.2136917,-0.4347963,1.576446,-0.01902963,0.4323474,1.602892,-0.331217,-0.4220117,1.535575,0.1479865,-0.3996386,1.528889,-0.03338705,-0.02369683,1.600453,-0.03243951,-0.3363446,1.582307,-0.2058197,0.1576303,1.565061,-0.1119951,-0.3273098,1.541946,-0.2704189,-0.1167174,1.592116,0.2019954,-0.1258351,1.640078,NA,NA,NotTracked,NotTracked,
0.972168,-0.1513672,0.1049805,0.9160156,0.4257813,0.1245117,6,4,1,3,5,8,15,56,-4,-5,-3,0,-1,-5,-2,-6,-9.5625,-9.5625,-9.5625,-0.6875,-0.6875,-0.6875,2.746256,2.812436,6.080717,7.113847,3.115524,2.945372,-0.2953562,-0.4292419,1.535255,0.2161019,-0.4359256,1.576378,-0.01774453,0.4325984,1.602597,-0.3393254,-0.4129951,1.544667,0.1756011,-0.4376911,1.556674,-0.03310895,-0.02377777,1.600221,-0.03243304,-0.3363916,1.582325,-0.2048041,0.157628,1.564215,-0.1119582,-0.3272637,1.541851,-0.2716239,-0.1184555,1.592366,0.2017417,-0.1277524,1.642436,NA,NA,NotTracked,NotTracked,
0.9482422,-0.2246094,0.1679688,0.878418,0.4467773,0.1606445,-29,-5,-2,-7,-8,-10,-14,-56,0,1,-1,0,-1,1,0,-1,-3.4375,-3.4375,-3.4375,-5.625,-5.625,-5.625,2.831856,2.836934,5.987313,7.081758,3.14591,2.97449,-0.2953256,-0.4294934,1.531437,0.2153457,-0.4361235,1.570311,-0.01698222,0.432764,1.602582,-0.3387545,-0.4165905,1.543146,0.1495674,-0.4122645,1.543,-0.03298424,-0.02378237,1.600214,-0.03244379,-0.336431,1.582415,-0.2044182,0.1577014,1.563859,-0.1119536,-0.3272532,1.541855,-0.2720644,-0.1187039,1.592651,0.2018674,-0.1283589,1.643221,NA,NA,NotTracked,NotTracked,
0.9301758,-0.253418,0.1499023,0.8657227,0.4365234,0.215332,12,5,3,3,3,5,13,51,-11,-9,-7,-4,-5,-1,18,-21,4,4,4,-15.625,-15.625,-15.625,2.929285,2.874946,5.893819,7.032254,3.185754,3.009373,-0.2931809,-0.4287551,1.523235,0.2155553,-0.4344543,1.560801,-0.01627501,0.4327509,1.602685,-0.3371326,-0.4158691,1.538813,0.1535004,-0.3624443,1.539333,-0.03284744,-0.02385041,1.600219,-0.03251394,-0.3364955,1.582551,-0.2040737,0.1576908,1.563564,-0.1119624,-0.327249,1.541869,-0.2723467,-0.1188008,1.592684,0.2019578,-0.1285433,1.643559,NA,NA,NotTracked,NotTracked,
0.9125977,-0.2993164,0.1269531,0.8779297,0.3979492,0.2207031,-9,-2,-1,-3,-1,0,-1,-23,3,2,0,0,0,-1,-6,4,5.625,5.625,5.625,-1.125,-1.125,-1.125,2.98838,2.915584,5.838265,6.981022,3.224209,3.054796,-0.2895294,-0.4260063,1.513964,0.2129379,-0.4333965,1.550832,-0.01551238,0.4326449,1.602782,-0.3353163,-0.4120485,1.532171,0.2055906,-0.4828686,1.515334,-0.03267976,-0.02395813,1.600226,-0.03256184,-0.3365566,1.582674,-0.2038062,0.1577376,1.563572,-0.1119644,-0.327247,1.541871,-0.2724412,-0.1188464,1.592752,0.2020268,-0.1286368,1.643638,NA,NA,NotTracked,NotTracked,
0.9282227,-0.2700195,0.06201172,0.8540039,0.4091797,0.2080078,-6,-3,-1,-2,1,-1,1,-6,0,2,0,0,-1,-2,-4,-2,14.5,14.5,14.5,14.5625,14.5625,14.5625,3.029634,2.945661,5.81099,6.939192,3.260015,3.113548,-0.2825199,-0.4236479,1.495606,0.2094638,-0.4294715,1.528083,-0.01441142,0.4323888,1.603018,-0.3292777,-0.4071293,1.521067,0.1481736,-0.3752574,1.521308,-0.03240259,-0.02417152,1.60037,-0.03255247,-0.3368427,1.582955,-0.2032942,0.1576007,1.563521,-0.1119071,-0.3273204,1.541962,-0.2719806,-0.1192808,1.592203,0.2022192,-0.128622,1.643321,NA,NA,NotTracked,NotTracked,
1.000488,-0.2148438,0.03369141,0.8530273,0.4082031,0.1928711,-3,-3,-2,0,-1,-2,0,0,-2,1,1,1,0,-1,-4,3,3.3125,3.3125,3.3125,21.4375,21.4375,21.4375,3.077602,2.971491,5.772092,6.90512,3.292328,3.176109,-0.2780387,-0.4219197,1.486327,0.2060639,-0.4282449,1.515778,-0.01412645,0.4322481,1.603056,-0.3225869,-0.4137005,1.5045,0.1459093,-0.3834789,1.516857,-0.0322828,-0.02431384,1.600416,-0.03256265,-0.3369762,1.58304,-0.2029544,0.1574129,1.563535,-0.1118774,-0.3273654,1.541992,-0.2703412,-0.119613,1.590179,0.2023597,-0.1285154,1.641328,NA,NA,NotTracked,NotTracked,
0.996582,-0.2167969,0.01074219,0.8520508,0.40625,0.1948242,2,1,-1,-2,-2,-3,-4,-11,0,1,0,0,-2,-3,-2,-1,-0.0625,-0.0625,-0.0625,26.9375,26.9375,26.9375,3.084149,2.977654,5.764448,6.878511,3.318895,3.238283,-0.2765183,-0.4226035,1.480703,0.2023557,-0.4257664,1.508058,-0.01392252,0.4322371,1.603227,-0.3209551,-0.4160022,1.49935,0.1444787,-0.3949098,1.51392,-0.03213591,-0.02440682,1.600653,-0.0325634,-0.3370897,1.583283,-0.2026626,0.1573166,1.563624,-0.1118457,-0.327415,1.54215,-0.2688941,-0.1200839,1.58823,0.2026752,-0.1284449,1.638488,NA,NA,NotTracked,NotTracked,
0.9804688,-0.2182617,0.03857422,0.8740234,0.4223633,0.2089844,-2,-2,-2,-1,-2,-1,-4,-12,-2,-1,-1,-3,-2,-2,-1,-1,-13.375,-13.375,-13.375,29.0625,29.0625,29.0625,3.087027,2.983922,5.748389,6.860238,3.339835,3.295647,-0.2731314,-0.4218344,1.475963,0.1989361,-0.4235564,1.50051,-0.01370091,0.4323102,1.603491,-0.3197259,-0.4146158,1.4936,0.1440297,-0.4144139,1.514222,-0.0319259,-0.02449763,1.600862,-0.03246763,-0.3372134,1.583471,-0.2024149,0.1573074,1.563775,-0.1116994,-0.3274969,1.542336,-0.2670919,-0.1195546,1.585825,0.203337,-0.1283544,1.635074,NA,NA,NotTracked,NotTracked,
0.9736328,-0.2426758,0.06884766,0.8652344,0.4121094,0.199707,-9,-4,-3,-2,-3,-4,-6,-37,0,-2,-1,-1,0,-1,-1,-1,-12.4375,-12.4375,-12.4375,22.0625,22.0625,22.0625,3.092736,2.993692,5.720334,6.842728,3.356154,3.346483,-0.2712487,-0.421078,1.470634,0.1954939,-0.4224921,1.492985,-0.01352677,0.432288,1.603616,-0.3171254,-0.424399,1.487556,0.1443836,-0.3955813,1.511465,-0.03170625,-0.02462104,1.601009,-0.03241959,-0.3373192,1.583547,-0.2020551,0.1572003,1.563851,-0.1116405,-0.3275795,1.542436,-0.2657685,-0.1201392,1.582984,0.2034069,-0.1280856,1.630907,NA,NA,NotTracked,NotTracked,
0.9672852,-0.2358398,0.08984375,0.8549805,0.4008789,0.2055664,5,-1,-2,-2,-1,0,1,9,-1,0,0,0,-2,0,1,-1,-7.875,-7.875,-7.875,16.625,16.625,16.625,3.097622,2.995428,5.71033,6.825094,3.368853,3.388908,-0.268266,-0.4223256,1.463982,0.1888817,-0.4216496,1.484637,-0.01319768,0.432414,1.604285,-0.3121355,-0.4310385,1.4705,0.1384021,-0.3746578,1.495526,-0.03127531,-0.02477496,1.601393,-0.03238385,-0.337411,1.583615,-0.2014577,0.1571163,1.56441,-0.1115709,-0.327652,1.542545,-0.2640361,-0.1208703,1.580163,0.2035667,-0.1267324,1.625268,NA,NA,NotTracked,NotTracked,
0.9584961,-0.2744141,0.1245117,0.8623047,0.4111328,0.2133789,5,0,0,-1,-2,0,0,4,-1,1,-1,-1,0,0,-1,0,-2.625,-2.625,-2.625,9.0625,9.0625,9.0625,3.118974,2.998218,5.676682,6.812019,3.375777,3.418442,-0.264978,-0.4216767,1.4645,0.1866023,-0.4205966,1.482381,-0.01302852,0.4323297,1.604587,-0.3118399,-0.421158,1.475389,0.1336709,-0.3845166,1.487577,-0.03096722,-0.02494648,1.601613,-0.03232771,-0.3374894,1.583683,-0.201196,0.1568873,1.565012,-0.1115002,-0.3277111,1.542637,-0.2632602,-0.1212126,1.579073,0.2035727,-0.1266572,1.623072,NA,NA,NotTracked,NotTracked,
0.9448242,-0.2333984,0.1386719,0.8623047,0.4111328,0.2133789,0,0,-1,0,-3,-1,2,-1,0,-1,-1,0,-1,-1,0,0,10.75,10.75,10.75,9.0625,9.0625,9.0625,3.164511,2.99807,5.639809,6.812019,3.375777,3.418442,-0.2652606,-0.4233325,1.460863,0.1850606,-0.4207369,1.480117,-0.01286071,0.4322917,1.605266,-0.3125991,-0.4233215,1.476053,0.1331119,-0.377364,1.483533,-0.03057569,-0.02517409,1.601859,-0.03228009,-0.3376106,1.583787,-0.2011156,0.1567459,1.565447,-0.1114102,-0.3278454,1.542824,-0.2622898,-0.1217498,1.577671,0.2034249,-0.126651,1.620973,NA,NA,NotTracked,NotTracked,
0.9501953,-0.2285156,0.1630859,0.8276367,0.4267578,0.2109375,-7,-2,-2,0,-3,-3,-3,-10,-2,-2,-1,-1,0,0,1,0,-3.5,-3.5,-3.5,6.6875,6.6875,6.6875,3.206342,2.99319,5.59855,6.800001,3.375282,3.446613,-0.2624242,-0.4226435,1.46055,0.1837261,-0.4212416,1.479078,-0.01268317,0.4322776,1.605714,-0.3052709,-0.4254875,1.462967,0.1332122,-0.3742672,1.487714,-0.03046121,-0.02525536,1.601959,-0.03227819,-0.3377344,1.583879,-0.2008646,0.156724,1.566007,-0.1113898,-0.3279797,1.543029,-0.2614805,-0.1219363,1.576918,0.2031055,-0.1266849,1.618914,NA,NA,NotTracked,NotTracked,
0.9516602,-0.2851563,0.1904297,0.8198242,0.4208984,0.2563477,6,-2,-1,-1,-2,-2,-1,6,-2,-1,0,-1,0,-1,-1,0,-2.375,-2.375,-2.375,2.875,2.875,2.875,3.236288,2.986334,5.561542,6.784124,3.354045,3.467472,-0.255483,-0.422359,1.462633,0.1825936,-0.4242483,1.481714,-0.01229495,0.4323286,1.607286,-0.2993757,-0.4207953,1.4625,0.1301039,-0.3892862,1.4832,-0.03009809,-0.02550121,1.602198,-0.03222001,-0.338046,1.584095,-0.2006359,0.1563842,1.5669,-0.1112865,-0.3283475,1.543513,-0.259571,-0.1215531,1.575372,0.2027335,-0.1275661,1.615962,NA,NA,NotTracked,NotTracked,
0.9526367,-0.2661133,0.1616211,0.8452148,0.4213867,0.2348633,-3,0,0,-1,0,0,-1,-1,-1,0,0,-1,-1,0,-1,-1,5.9375,5.9375,5.9375,7.75,7.75,7.75,3.279971,2.979745,5.521752,6.785268,3.331205,3.473242,-0.2500654,-0.4211351,1.465558,0.1816837,-0.426117,1.48379,-0.01206967,0.4326177,1.608748,-0.2944335,-0.4240857,1.461515,0.1297509,-0.395451,1.48296,-0.02980763,-0.02546915,1.602232,-0.03218026,-0.338083,1.58411,-0.2004634,0.1564617,1.567205,-0.1112325,-0.3283944,1.543597,-0.2581513,-0.1214045,1.574309,0.202367,-0.1274176,1.614304,NA,NA,NotTracked,NotTracked,
0.9614258,-0.2250977,0.0859375,0.8447266,0.4291992,0.2202148,1,-1,-3,-1,-1,-1,1,2,-3,0,-2,-2,-2,-2,0,-1,-15.3125,-15.3125,-15.3125,7.0625,7.0625,7.0625,3.312421,2.967013,5.47917,6.78785,3.318869,3.474536,-0.2447031,-0.4204685,1.467953,0.1814849,-0.4286981,1.485957,-0.01206386,0.4329023,1.61004,-0.2926981,-0.4126737,1.470333,0.1289088,-0.4046083,1.4791,-0.02962779,-0.02548135,1.602223,-0.03211119,-0.3381637,1.584123,-0.200358,0.1564412,1.567273,-0.111146,-0.3284908,1.543683,-0.2566757,-0.1212114,1.573249,0.2018121,-0.1276124,1.612825,NA,NA,NotTracked,NotTracked,
0.9824219,-0.2705078,0.06542969,0.8920898,0.4072266,0.2075195,-3,-3,-1,-1,-4,-3,-6,-13,-2,-2,-2,1,-2,4,0,0,-38.25,-38.25,-38.25,2.5625,2.5625,2.5625,3.32003,2.955593,5.42964,6.794849,3.282879,3.472601,-0.23957,-0.4209397,1.468247,0.1814363,-0.4301952,1.489677,-0.01212931,0.433271,1.611564,-0.2859277,-0.4231636,1.464514,0.129373,-0.4144681,1.482555,-0.02933434,-0.02539906,1.602137,-0.03198679,-0.3381886,1.58409,-0.2002207,0.1564211,1.56729,-0.111041,-0.3285118,1.543706,-0.2550947,-0.1212756,1.571685,0.2011804,-0.1282836,1.611389,NA,NA,NotTracked,NotTracked,
0.9794922,-0.2871094,0.06054688,0.8945313,0.4165039,0.1801758,-1,-1,1,-2,-1,1,1,6,-2,1,1,-2,0,-3,-4,0,-31.1875,-31.1875,-31.1875,-2.375,-2.375,-2.375,3.320582,2.958766,5.387049,6.801881,3.264044,3.463904,-0.2341459,-0.4205911,1.467094,0.1818782,-0.4316174,1.49218,-0.01204185,0.4334197,1.612876,-0.279528,-0.4197546,1.458979,0.1289953,-0.3881858,1.48152,-0.02911197,-0.02531446,1.60201,-0.03182605,-0.3381949,1.583956,-0.2000847,0.1564412,1.567306,-0.1109613,-0.3285243,1.543685,-0.2534283,-0.1206522,1.569643,0.2005439,-0.1287998,1.610116,NA,NA,NotTracked,NotTracked,
0.9609375,-0.2861328,0.1074219,0.8964844,0.4160156,0.1660156,-2,0,-2,0,-2,1,-1,-3,-1,0,-2,-1,-1,-3,-3,-1,-18.875,-18.875,-18.875,-8.5625,-8.5625,-8.5625,3.312711,2.972239,5.368199,6.805042,3.253027,3.452413,-0.2276317,-0.419773,1.465792,0.1819815,-0.4358847,1.495775,-0.01222671,0.4339274,1.615596,-0.2740946,-0.4193614,1.465182,0.1288891,-0.4131519,1.480208,-0.02849334,-0.02513604,1.601731,-0.03134912,-0.3381973,1.583464,-0.1996754,0.1563855,1.567282,-0.1106731,-0.3285564,1.543556,-0.2504391,-0.1194266,1.567399,0.199677,-0.1301837,1.608203,NA,NA,NotTracked,NotTracked,
0.9345703,-0.2773438,0.1328125,0.9038086,0.4072266,0.1679688,-2,-2,1,-1,0,-1,0,-1,-2,-2,0,0,0,0,-1,-1,-8.4375,-8.4375,-8.4375,-11.9375,-11.9375,-11.9375,3.296729,2.987702,5.372673,6.802383,3.248164,3.442244,-0.224773,-0.4184607,1.464197,0.1814004,-0.4368635,1.496758,-0.01246259,0.4340886,1.616602,-0.2759065,-0.4257756,1.470875,0.1295103,-0.4082724,1.482498,-0.02812809,-0.02501998,1.601568,-0.03110499,-0.3381855,1.58317,-0.1994204,0.156398,1.567235,-0.1105146,-0.3285686,1.543444,-0.2495093,-0.1188439,1.566476,0.1992595,-0.1311818,1.607358,NA,NA,NotTracked,NotTracked,
0.9208984,-0.2880859,0.1425781,0.9008789,0.418457,0.2075195,-1,-1,0,-1,-2,-2,-2,-3,-2,-1,-1,-1,0,0,1,-1,-8.5,-8.5,-8.5,-10.1875,-10.1875,-10.1875,3.275752,2.997934,5.385139,6.792681,3.249733,3.43951,-0.2237522,-0.418846,1.462541,0.181347,-0.4373291,1.496184,-0.01277762,0.4339794,1.617612,-0.2710277,-0.4410574,1.457294,0.1290855,-0.4081816,1.480882,-0.02788142,-0.02497899,1.601424,-0.03091774,-0.3382312,1.582975,-0.199214,0.1563127,1.567125,-0.1103704,-0.3286299,1.54334,-0.2487931,-0.1191248,1.565833,0.1988769,-0.1316432,1.607094,NA,NA,NotTracked,NotTracked,
0.918457,-0.2919922,0.1386719,0.8891602,0.4213867,0.2163086,0,-1,-2,-2,-1,0,1,-1,-2,0,-2,-2,-1,-2,-2,-1,-6.6875,-6.6875,-6.6875,-7.25,-7.25,-7.25,3.250746,3.00384,5.402438,6.786498,3.252065,3.441621,-0.2231351,-0.4180018,1.459224,0.1815207,-0.4367138,1.495011,-0.01330458,0.4339602,1.618547,-0.2733953,-0.4252591,1.461586,0.1280512,-0.3953702,1.47595,-0.02761607,-0.02495707,1.601222,-0.03072907,-0.3382578,1.582625,-0.1989194,0.1562917,1.566919,-0.1102464,-0.3286549,1.54321,-0.2481486,-0.1194166,1.56515,0.1986563,-0.1318985,1.606809,NA,NA,NotTracked,NotTracked,
