ALX,ALY,ALZ,ARX,ARY,ARZ,EMG0L,EMG1L,EMG2L,EMG3L,EMG4L,EMG5L,EMG6L,EMG7L,EMG0R,EMG1R,EMG2R,EMG3R,EMG4R,EMG5R,EMG6R,EMG7R,GLX,GLY,GLZ,GRX,GRY,GRZ,ORL,OPL,OYL,ORR,OPR,OYR,LHNX,LHNY,LHNZ,RHNX,RHNY,RHNZ,HX,HY,HZ,LTX,LTY,LTZ,RTX,RTY,RTZ,SpineMidX,SpineMidY,SpineMidZ,SpineBaseX,SpineBaseY,SpineBaseZ,ShoulderLeftX,ShoulderLeftY,ShoulderLeftZ,ShoulderRightX,ShoulderRightY,ShoulderRightZ,ElbowLeftX,ElbowLeftY,ElbowLeftZ,ElbowRightX,ElbowRightY,ElbowRightZ,Myo_Pose_left,Myo_Pose_Right,Kinect_pose_left,Kinect_pose_right
0.9418945,-0.2177734,0.1391602,0.8574219,0.3989258,0.2124023,0,-2,0,1,-3,0,-4,-1,-1,-1,0,-1,-1,-2,-2,0,-2.4375,-2.4375,-2.4375,1.4375,1.4375,1.4375,3.342723,2.938415,4.045645,6.744502,3.262699,8.896744,-0.1264385,-0.4198771,1.519796,0.2891217,-0.4191124,1.537057,0.0900698,0.4278958,1.65237,-0.179022,-0.4289097,1.520831,0.2377059,-0.3851764,1.524122,0.08138005,-0.02668726,1.642415,0.0791451,-0.3390329,1.617037,-0.0916867,0.1530218,1.614066,-0.002213151,-0.329986,1.580084,-0.1423913,-0.1224382,1.618075,0.315699,-0.1268777,1.651991,NA,NA,NotTracked,NotTracked,
0.9599609,-0.2514648,0.1420898,0.8745117,0.4008789,0.2421875,0,-2,0,-1,-2,-2,0,-2,1,-2,-1,1,1,1,2,0,2.1875,2.1875,2.1875,17.5,17.5,17.5,3.359491,2.932998,4.021441,6.750335,3.262071,8.914311,-0.1260234,-0.4208378,1.521942,0.2882251,-0.4205806,1.536303,0.09005762,0.4280113,1.653239,-0.1767374,-0.4179848,1.521774,0.2377708,-0.3776595,1.522381,0.08133288,-0.02670385,1.642574,0.07912131,-0.3390215,1.617045,-0.09171216,0.1530205,1.61427,-0.002248914,-0.3299583,1.580077,-0.1425505,-0.1224817,1.618145,0.3153726,-0.1270581,1.651199,NA,NA,NotTracked,NotTracked,
0.965332,-0.2250977,0.1269531,0.9077148,0.4082031,0.1469727,-1,-1,-1,-3,-1,-1,-1,-1,0,-1,-1,-1,-1,-5,0,-1,2.4375,2.4375,2.4375,-1.6875,-1.6875,-1.6875,3.373972,2.929677,4.012794,6.759162,3.268256,8.914728,-0.1254306,-0.4210175,1.522818,0.285952,-0.4196609,1.532892,0.08996487,0.428109,1.653974,-0.1773536,-0.4189732,1.525348,0.2366048,-0.3877093,1.521988,0.08120558,-0.02674509,1.642741,0.07904731,-0.3390189,1.617046,-0.09184208,0.1529595,1.614748,-0.002350983,-0.3299351,1.580057,-0.1425485,-0.1225439,1.618389,0.3149049,-0.1269609,1.650709,NA,NA,NotTracked,NotTracked,
0.9599609,-0.237793,0.1445313,0.8911133,0.4008789,0.1665039,-2,-1,-2,0,-1,-2,-1,-2,-1,-1,-2,-1,0,-5,-22,-1,-4.4375,-4.4375,-4.4375,-3.75,-3.75,-3.75,3.376998,2.929138,4.005207,6.753177,3.272476,8.919941,-0.1247405,-0.4184953,1.525041,0.2836326,-0.4174933,1.531512,0.08977401,0.428234,1.654941,-0.177913,-0.4155949,1.535304,0.2359861,-0.3884321,1.521533,0.08106545,-0.02672914,1.643027,0.07900903,-0.3389325,1.617179,-0.09207224,0.1528412,1.615146,-0.002393602,-0.3298535,1.580136,-0.1425006,-0.1225116,1.61887,0.3148534,-0.126728,1.650605,NA,NA,NotTracked,NotTracked,
0.9785156,-0.2329102,0.1313477,0.8168945,0.4238281,0.2128906,-3,1,-1,-1,0,1,-1,0,0,4,2,-2,0,2,-1,-2,-1.125,-1.125,-1.125,-3.625,-3.625,-3.625,3.370206,2.929183,4.007978,6.73567,3.288477,8.932158,-0.1243606,-0.4186586,1.525665,0.2836531,-0.4162389,1.533699,0.08947743,0.4284436,1.656069,-0.1760219,-0.4375496,1.528938,0.2345504,-0.3844182,1.522241,0.08104613,-0.026763,1.643287,0.07893876,-0.3388883,1.617329,-0.09223018,0.1528391,1.615553,-0.002481939,-0.3298063,1.580313,-0.1424009,-0.1226297,1.619433,0.3147602,-0.1265428,1.650458,NA,NA,NotTracked,NotTracked,
0.9677734,-0.2133789,0.1254883,0.8242188,0.409668,0.2080078,0,-2,-2,-1,-1,-2,-3,-2,0,-7,-20,-4,0,0,3,-1,6.375,6.375,6.375,-7.125,-7.125,-7.125,3.356305,2.931816,4.032142,6.734871,3.288073,8.928825,-0.1250859,-0.419147,1.526014,0.2858496,-0.418223,1.536014,0.08925731,0.428627,1.657196,-0.1768137,-0.4274644,1.527245,0.2344185,-0.3895875,1.521568,0.08090189,-0.02680164,1.643648,0.07869133,-0.3388625,1.617523,-0.09228997,0.1528224,1.615938,-0.002786259,-0.3297422,1.580518,-0.1423618,-0.1227882,1.619779,0.3147161,-0.1264756,1.650496,NA,NA,NotTracked,NotTracked,
0.9545898,-0.2211914,0.1318359,0.8999023,0.4116211,0.2060547,-2,-1,-2,-1,-1,0,1,-1,-1,-4,-4,-4,-1,2,3,-1,-5.8125,-5.8125,-5.8125,1,1,1,3.346496,2.928606,4.039291,6.744524,3.266609,8.897361,-0.1254233,-0.419203,1.526222,0.286311,-0.4179066,1.538933,0.08912113,0.4286109,1.657636,-0.1775932,-0.430751,1.528,0.2354432,-0.3880158,1.522185,0.08084061,-0.02683643,1.643984,0.0786641,-0.3388554,1.617664,-0.0922903,0.1528283,1.61636,-0.002823659,-0.3297289,1.580624,-0.1423027,-0.1228816,1.620369,0.3145247,-0.126569,1.650928,NA,NA,NotTracked,NotTracked,
0.9501953,-0.2265625,0.1416016,0.8803711,0.4111328,0.2104492,-3,1,-1,-2,0,-1,-2,-2,0,0,-2,-1,-1,1,7,-2,-0.25,-0.25,-0.25,-0.0625,-0.0625,-0.0625,3.331779,2.926306,4.050346,6.732864,3.260409,8.910888,-0.1257814,-0.419354,1.527157,0.2853181,-0.4176679,1.541181,0.08903731,0.4285374,1.658198,-0.1774884,-0.4249377,1.527296,0.2344614,-0.384813,1.521139,0.08071428,-0.02684813,1.644401,0.07855798,-0.3388492,1.617931,-0.09238961,0.1528631,1.617228,-0.002926426,-0.3297033,1.580883,-0.1423565,-0.1231964,1.621013,0.3144896,-0.1267061,1.65142,NA,NA,NotTracked,NotTracked,
0.9921875,-0.2348633,0.128418,0.8803711,0.4111328,0.2104492,-1,-1,-2,-1,-1,-2,1,-2,-2,-1,-2,-1,0,-3,-10,-2,-3.125,-3.125,-3.125,-0.0625,-0.0625,-0.0625,3.314659,2.924157,4.06388,6.732864,3.260409,8.910888,-0.1273419,-0.4190848,1.530163,0.2845332,-0.4166971,1.544527,0.08905172,0.4285218,1.658726,-0.1804587,-0.434943,1.530955,0.2351065,-0.3854142,1.523035,0.08067972,-0.02680095,1.644964,0.07845242,-0.338766,1.618347,-0.09230839,0.1529805,1.617743,-0.003018583,-0.3296031,1.581231,-0.1424379,-0.1227802,1.621945,0.3144005,-0.1269763,1.652791,NA,NA,NotTracked,NotTracked,
1.046387,-0.2363281,0.04833984,0.8554688,0.4042969,0.2094727,-1,1,1,4,25,2,-5,-1,-2,0,-1,-1,1,-1,-1,-2,-10.875,-10.875,-10.875,-2.125,-2.125,-2.125,3.317741,2.933311,4.048362,6.706137,3.253047,8.945998,-0.1270531,-0.4187758,1.529458,0.2837741,-0.4178514,1.546024,0.08918148,0.4284517,1.659339,-0.1797753,-0.4214246,1.531427,0.2352171,-0.3869768,1.522445,0.08081739,-0.02676388,1.64546,0.07849707,-0.3386099,1.618699,-0.09220147,0.1531401,1.618227,-0.002967427,-0.3294197,1.581596,-0.1426725,-0.1224721,1.623017,0.3141508,-0.1265494,1.654887,NA,NA,NotTracked,NotTracked,
1.078125,-0.3608398,0.2353516,0.8901367,0.4516602,0.1635742,-4,-7,-23,-14,-70,-40,-5,-7,3,0,0,1,0,-1,2,4,-137.5,-137.5,-137.5,-4,-4,-4,3.462954,3.038917,3.756796,6.700706,3.25606,8.950287,-0.1197471,-0.4109426,1.518369,0.2840267,-0.4146246,1.544808,0.08924797,0.4283336,1.660385,-0.1656426,-0.418445,1.511316,0.2349056,-0.3867533,1.521702,0.08089729,-0.02666609,1.64616,0.07862705,-0.3384777,1.619117,-0.09194873,0.1533444,1.619148,-0.002838018,-0.3292609,1.582016,-0.1431787,-0.1220419,1.624474,0.3143139,-0.1269909,1.656688,NA,NA,NotTracked,NotTracked,
0.8339844,-0.8955078,0.5224609,0.9331055,0.5805664,0.1049805,-2,0,10,5,4,2,-4,-2,5,-3,-4,-1,-3,0,-1,1,-253.9375,-253.9375,-253.9375,-68.875,-68.875,-68.875,3.469422,3.380056,3.19234,6.704981,3.344101,8.81637,-0.07462372,-0.3722782,1.485016,0.2871756,-0.4094745,1.529979,0.08946917,0.4282939,1.660973,-0.1138612,-0.3805725,1.458711,0.2506989,-0.4255061,1.552,0.08178283,-0.0264094,1.646635,0.08154828,-0.3379175,1.619237,-0.09193557,0.153946,1.620053,-0.0005040547,-0.3293025,1.582168,-0.1464117,-0.1110414,1.624375,0.3160319,-0.1261435,1.659602,NA,NA,Unknown,NotTracked,
0.4262695,-0.8120117,0.5483398,0.8867188,0.6474609,0.1845703,-11,-4,-8,5,0,-3,-3,-5,-13,13,1,-6,-2,-1,2,-3,-273.75,-273.75,-273.75,-65.4375,-65.4375,-65.4375,3.323729,3.75264,2.781199,6.705983,3.429044,8.732697,0.00283167,-0.302094,1.451498,0.3115315,-0.3784285,1.485711,0.08972687,0.4284489,1.661561,-0.03439781,-0.3362406,1.465241,0.2691733,-0.3873562,1.453478,0.08220186,-0.02628271,1.647249,0.08180605,-0.3378844,1.620013,-0.09160786,0.1549268,1.62068,-0.0001926237,-0.3300386,1.583302,-0.1600461,-0.07413375,1.609881,0.3212491,-0.1210464,1.662274,NA,NA,Unknown,NotTracked,
0.3486328,-0.565918,0.4956055,0.7856445,0.8876953,0.4311523,2,-2,-1,-4,-3,0,-4,-1,-2,15,-8,1,-8,-2,1,-2,-190.6875,-190.6875,-190.6875,-8.375,-8.375,-8.375,3.179525,4.063468,2.4703,6.731796,3.691998,8.642622,0.03266374,-0.2124121,1.476473,0.3222872,-0.3271075,1.426013,0.09013234,0.4290482,1.662602,-0.01342773,-0.2734729,1.504188,0.2979754,-0.3120174,1.396539,0.08122024,-0.02581903,1.649329,0.07806673,-0.3374704,1.624737,-0.09015389,0.1562353,1.62003,-0.003168615,-0.3290882,1.58868,-0.162766,-0.05172766,1.570183,0.3351412,-0.1059827,1.660347,NA,NA,Unknown,Unknown,
0.4716797,-0.3481445,0.4414063,0.7104492,0.7851563,0.6142578,1,3,1,-11,-4,-1,-20,-2,8,-34,-45,-17,16,2,-3,0,-149.4375,-149.4375,-149.4375,42.9375,42.9375,42.9375,3.025274,4.19899,2.242146,6.750707,3.9735,8.674398,0.1259255,-0.1564578,1.46067,0.3183579,-0.231968,1.369512,0.09099185,0.4305734,1.666088,0.1247009,-0.1871348,1.402,0.341103,-0.2483316,1.342727,0.08011167,-0.02445401,1.651611,0.0760277,-0.3357348,1.628086,-0.08726496,0.1581586,1.612413,-0.004375586,-0.3275468,1.590621,-0.1467396,-0.04623152,1.530434,0.3455913,-0.06269846,1.656846,NA,NA,Unknown,Unknown,
0.640625,-0.5805664,0.3085938,0.1870117,0.7319336,0.6918945,-7,-3,-7,0,-4,-12,-6,-8,3,3,-10,14,7,-1,2,0,-32.375,-32.375,-32.375,65.1875,65.1875,65.1875,2.962277,4.109776,2.08281,6.765166,4.451453,8.935499,0.1107323,-0.1340855,1.467281,0.240673,-0.1524859,1.361837,0.09222748,0.4323724,1.671196,0.05515106,-0.1357545,1.4123,0.2794901,-0.1293084,1.29,0.07906318,-0.02250672,1.654173,0.07492871,-0.3336063,1.630907,-0.08239613,0.1598252,1.601318,-0.005077484,-0.325404,1.591513,-0.1307921,-0.04357059,1.508136,0.3594108,-0.04749099,1.640605,NA,NA,NotTracked,NotTracked,
0.7431641,-0.7299805,0.3349609,-0.07910156,0.6796875,0.6855469,-8,-1,-3,-1,1,0,-1,-3,25,-7,44,3,1,-10,-2,1,-5.75,-5.75,-5.75,78.625,78.625,78.625,2.964657,3.990702,2.059864,6.805774,4.816633,9.266161,0.1469098,-0.187631,1.464708,0.1797394,-0.03566019,1.332529,0.09349144,0.4333915,1.676304,0.1444402,-0.1804435,1.399428,0.2011319,-0.06126288,1.2888,0.07810162,-0.02076456,1.656466,0.07458109,-0.3315995,1.633295,-0.07963354,0.1599236,1.599794,-0.005012939,-0.3231071,1.592774,-0.118407,-0.04302597,1.500333,0.3592476,-0.0347596,1.55722,NA,NA,NotTracked,NotTracked,
0.7128906,-0.8007813,0.2470703,-0.2871094,0.7578125,0.6323242,0,-2,-2,0,-3,-2,5,1,-2,2,15,3,1,1,-1,-2,15.5,15.5,15.5,51.5625,51.5625,51.5625,2.980352,3.903959,2.089634,6.944155,5.187307,9.814278,0.1659102,-0.2128492,1.458377,0.09406079,0.03231313,1.375006,0.09458928,0.4338279,1.680619,0.1517525,-0.1974287,1.397748,0.1019339,0.02213008,1.32475,0.07837088,-0.01948728,1.658354,0.07544731,-0.3294225,1.634605,-0.07795857,0.159534,1.596529,-0.003447454,-0.3201992,1.592651,-0.110866,-0.04482703,1.497872,0.3361455,-0.01847413,1.510295,NA,NA,NotTracked,NotTracked,
0.6723633,-0.8081055,0.2124023,-0.340332,0.7739258,0.5800781,1,-2,-1,2,0,-1,1,-1,11,-1,6,6,12,7,6,3,10.6875,10.6875,10.6875,47.25,47.25,47.25,2.978087,3.895346,2.109035,7.03609,5.30889,0.10995,0.1489596,-0.2139422,1.464936,0.02864322,0.07346375,1.423144,0.09605616,0.4341781,1.685143,0.1283167,-0.1857875,1.402098,0.02553996,0.06253562,1.371547,0.07898492,-0.0180747,1.660995,0.07701918,-0.3277617,1.635935,-0.07797006,0.1603633,1.59566,-0.001544459,-0.3180002,1.59362,-0.1046246,-0.04655001,1.498437,0.2979713,-0.003274478,1.476862,NA,NA,Unknown,Unknown,
0.715332,-0.7519531,0.1967773,-0.1308594,0.8027344,0.4355469,1,0,-1,-1,-2,1,-9,0,-1,3,0,-4,-2,-4,0,4,-20.0625,-20.0625,-20.0625,58.3125,58.3125,58.3125,2.961102,3.890995,2.111715,7.213675,5.412504,0.5397463,0.1581756,-0.2240267,1.462721,-0.021996,0.0931932,1.466557,0.09714875,0.4342823,1.687913,0.1238714,-0.1810702,1.403829,-0.04518794,0.08258626,1.412295,0.07996378,-0.0172656,1.662356,0.07884549,-0.3268304,1.636046,-0.07915571,0.1599659,1.602906,0.0001872989,-0.3169982,1.59439,-0.09114627,-0.05415213,1.496184,0.2485217,0.01952746,1.446327,NA,NA,Unknown,Unknown,
0.6831055,-0.684082,0.2255859,0.3930664,0.8007813,0.1362305,-1,-5,0,2,3,0,-6,-1,-1,2,3,2,-1,7,-1,-1,-2.1875,-2.1875,-2.1875,49.375,49.375,49.375,2.943353,3.890231,2.11567,7.416907,5.448828,0.948171,0.1683036,-0.2260957,1.460937,-0.03374277,0.09333994,1.491244,0.09776607,0.4343871,1.690329,0.1620546,-0.2007196,1.401205,-0.09348141,0.09117374,1.444,0.08061586,-0.01707367,1.663238,0.08035596,-0.3265984,1.636242,-0.07888959,0.1592985,1.601551,0.001553664,-0.3168582,1.595018,-0.08812185,-0.05585003,1.49644,0.2347342,0.0259213,1.437529,NA,NA,Unknown,Unknown,
0.6733398,-0.6606445,0.2246094,0.6782227,0.9604492,0.05224609,2,1,11,7,1,3,1,2,3,-2,-9,1,19,26,14,20,34.375,34.375,34.375,23.1875,23.1875,23.1875,2.957801,3.898211,2.180283,7.517651,5.344635,1.077134,0.1689972,-0.2273997,1.458209,-0.03304221,0.08999404,1.497675,0.09775175,0.4343302,1.691217,0.1655185,-0.2051247,1.397807,-0.08665542,0.0748154,1.443191,0.08088898,-0.0170849,1.663799,0.08124804,-0.3265466,1.636448,-0.07884166,0.1590454,1.601338,0.002553123,-0.3168651,1.595792,-0.08689407,-0.05741164,1.497087,0.2328078,0.02566612,1.435856,NA,NA,Unknown,Unknown,
0.5864258,-0.7612305,0.2387695,0.4243164,0.9545898,0.1269531,-2,-1,-1,3,-1,-3,6,1,0,11,-9,0,-12,-1,2,-10,48.875,48.875,48.875,-57.125,-57.125,-57.125,2.987019,3.91174,2.255831,7.43563,5.241733,1.019597,0.1803845,-0.2405018,1.44531,-0.01437773,0.08406826,1.487291,0.09730353,0.4342341,1.691642,0.2009905,-0.2318975,1.390466,-0.04682077,0.06302697,1.423035,0.08083371,-0.01713703,1.663999,0.08129738,-0.326557,1.636369,-0.07988686,0.1586468,1.601399,0.002636072,-0.3169436,1.596141,-0.09602933,-0.05488388,1.507403,0.2464411,0.01782419,1.442313,NA,NA,Unknown,Unknown,
0.5043945,-0.972168,0.2094727,-0.8242188,1.188965,0.109375,-1,-1,-4,0,-1,0,1,-1,2,8,-1,5,-2,-5,5,29,66.0625,66.0625,66.0625,-29,-29,-29,3.041201,3.910358,2.29973,7.222978,5.298751,0.6466663,0.1683657,-0.2456865,1.449888,0.01382335,0.07831822,1.47418,0.0959433,0.4339078,1.691462,0.160415,-0.252283,1.379711,0.03821801,0.1391357,1.5182,0.08030633,-0.0174574,1.664176,0.0805779,-0.3268478,1.636009,-0.08254395,0.1591366,1.605043,0.001815222,-0.3172543,1.596581,-0.1061991,-0.05377189,1.517847,0.2801026,0.005553004,1.459498,NA,NA,Unknown,Closed,
0.4736328,-0.8935547,0.2836914,-1.025391,1.185059,0.1289063,4,0,-3,-5,0,2,14,1,2,-10,-10,-5,-4,-4,-4,7,-17.8125,-17.8125,-17.8125,2.0625,2.0625,2.0625,3.058321,3.904321,2.30068,7.218116,5.340072,0.598008,0.1235559,-0.2260354,1.463183,0.03385377,0.1009063,1.489744,0.09497415,0.4336717,1.691021,0.1648788,-0.177477,1.490898,0.02508983,0.04602356,1.508314,0.07966828,-0.01816604,1.664309,0.07941567,-0.3282226,1.635224,-0.08235626,0.159057,1.605781,0.0003746982,-0.3185974,1.596484,-0.111179,-0.05233008,1.523481,0.2881371,0.007977061,1.460767,NA,NA,Unknown,Unknown,
0.612793,-0.8359375,0.2856445,-0.9404297,0.7836914,0.2041016,-2,-2,-7,-8,-4,-7,-1,-1,12,2,-7,-2,-2,-2,-9,35,-23.875,-23.875,-23.875,44.1875,44.1875,44.1875,3.0302,3.911248,2.276665,7.383525,5.709085,0.7558186,0.1226495,-0.2256603,1.465035,0.01274476,0.1527504,1.514721,0.09509646,0.43352,1.690697,0.16281,-0.1769903,1.490078,-0.01738828,0.09438994,1.518764,0.08049218,-0.01993999,1.663753,0.07899652,-0.3314796,1.634609,-0.07570072,0.1597482,1.600608,-0.0006368528,-0.321541,1.595141,-0.1132335,-0.05185658,1.524711,0.2767065,0.01628573,1.451595,NA,NA,Unknown,Unknown,
0.7080078,-0.7182617,0.2724609,-0.2734375,0.6005859,0.1977539,-2,0,-1,-3,8,7,11,0,13,10,8,5,9,1,-28,-1,-25.5,-25.5,-25.5,12.125,12.125,12.125,2.995382,3.92406,2.25225,7.560071,5.970152,1.043506,0.1223761,-0.2136079,1.466798,0.01508799,0.2498315,1.521264,0.09632754,0.4335067,1.69003,0.1641738,-0.1671046,1.491051,-0.03051484,0.204084,1.528375,0.08025286,-0.01783224,1.663223,0.07891539,-0.3316215,1.634526,-0.05051189,0.175628,1.579933,-0.0008447819,-0.3213542,1.594418,-0.1115187,-0.04117381,1.527436,0.2239512,0.03860905,1.430685,NA,NA,Closed,NotTracked,
0.6967773,-0.5957031,0.1762695,-0.2734375,0.6005859,0.1977539,-2,-2,-7,-5,-7,-2,10,-10,-5,-7,-6,0,-6,1,-13,-10,-18.375,-18.375,-18.375,12.125,12.125,12.125,2.962629,3.931943,2.258393,7.560071,5.970152,1.043506,0.1553829,-0.2360526,1.46216,0.009491289,0.1977802,1.531004,0.09727614,0.4332527,1.689754,0.1339312,-0.2868636,1.496231,-0.04380554,0.1826591,1.466227,0.08091774,-0.01855033,1.663114,0.07905038,-0.3316491,1.634429,-0.04977695,0.1754011,1.578108,-0.0005800629,-0.3212554,1.593428,-0.1100018,-0.04122409,1.525727,0.2289099,0.03313795,1.433224,NA,NA,Unknown,NotTracked,
0.6323242,-0.7758789,0.2490234,-0.01123047,0.9072266,-0.02539063,2,0,-2,-7,-4,-2,6,0,9,49,21,9,3,-3,10,3,8.25,8.25,8.25,-89.8125,-89.8125,-89.8125,2.94351,3.954631,2.273293,7.466668,5.522202,1.078424,0.1689799,-0.2422744,1.460188,-0.04225331,0.1546819,1.553816,0.09755085,0.4328695,1.689992,0.1314548,-0.2893712,1.495005,-0.09378983,0.1008814,1.455404,0.08076281,-0.0187833,1.663663,0.07927562,-0.3309113,1.634026,-0.0545997,0.1728601,1.58179,-0.0001922058,-0.3205166,1.593596,-0.1087432,-0.04441898,1.523826,0.2360959,0.01277533,1.449565,NA,NA,Unknown,NotTracked,
0.5170898,-0.8637695,0.2714844,-0.4135742,1.65918,0.5,-1,-3,2,0,-5,-2,1,-1,0,-17,-6,-5,-5,-2,3,24,26.5,26.5,26.5,-90.125,-90.125,-90.125,2.989008,3.987216,2.277706,7.260059,5.216598,0.8739175,0.1492048,-0.2153869,1.46,-0.01687593,0.1114611,1.536183,0.09729428,0.4322757,1.690333,0.1352653,-0.2678636,1.500207,-0.07232358,0.06107287,1.433784,0.080136,-0.0193253,1.664451,0.07922304,-0.3306262,1.634042,-0.06699914,0.1657482,1.592312,-8.501194E-05,-0.3202361,1.593814,-0.106499,-0.04976295,1.519468,0.2497764,-0.004840493,1.467498,NA,NA,Unknown,NotTracked,
0.5371094,-0.8027344,0.2167969,-0.5908203,1.545898,0.3149414,-1,-2,0,-3,-4,-5,0,-2,-1,-4,-7,-11,-4,-1,-2,5,-9.875,-9.875,-9.875,-72.3125,-72.3125,-72.3125,2.998259,4.001614,2.275061,7.162065,5.222288,0.8216338,0.1734129,-0.2404942,1.454798,-0.008021711,0.1162715,1.5275,0.09669961,0.4319927,1.690359,0.141082,-0.2857492,1.499577,-0.07175431,0.0683926,1.429573,0.07960141,-0.0194155,1.664885,0.07915203,-0.3301431,1.634105,-0.06930903,0.1648034,1.593753,3.344431E-05,-0.3197979,1.593937,-0.105981,-0.05168355,1.518605,0.252307,-0.008162683,1.471098,NA,NA,Closed,NotTracked,
0.6132813,-0.7304688,0.2670898,-0.3100586,1.022461,0.1137695,-2,1,2,-2,0,3,9,2,-4,-6,-2,-2,-1,-3,3,1,0.1875,0.1875,0.1875,23.4375,23.4375,23.4375,2.988008,4.010837,2.276962,7.171028,5.394197,0.8259004,0.1618866,-0.2315256,1.45708,-0.008400347,0.1189889,1.509343,0.09604302,0.4317473,1.690285,0.1235645,-0.2808391,1.496294,-0.07171835,0.07609068,1.424,0.07932364,-0.0194601,1.66515,0.07918052,-0.3296112,1.634073,-0.06972805,0.1643814,1.593611,0.000170699,-0.3193362,1.594118,-0.106532,-0.05227659,1.518575,0.2520411,-0.0080437,1.470442,NA,NA,Unknown,NotTracked,
0.6376953,-0.6474609,0.2333984,-0.02685547,0.8217773,0.2441406,-1,-1,-3,-3,-2,0,0,-1,4,-2,-1,1,0,6,1,9,42.0625,42.0625,42.0625,55.9375,55.9375,55.9375,3.020941,4.01453,2.326848,7.255497,5.461949,0.8423522,0.1447109,-0.2090239,1.45686,-0.01407277,0.08747277,1.485312,0.09546792,0.4316142,1.690458,0.1198326,-0.2618255,1.500102,0.04121771,0.09687584,1.434233,0.07898999,-0.01939687,1.665959,0.07942595,-0.3289534,1.634548,-0.07054596,0.1643776,1.594062,0.0006586571,-0.3187965,1.594837,-0.1072801,-0.05250751,1.519174,0.2516093,-0.006339885,1.468631,NA,NA,Unknown,NotTracked,
0.6655273,-0.6425781,0.2294922,0.1459961,0.6928711,0.269043,-1,-2,-10,-5,0,-2,1,-3,0,0,1,1,-1,5,0,0,60.375,60.375,60.375,-30.125,-30.125,-30.125,3.066005,3.985216,2.399401,7.213583,5.398332,0.7417805,0.1381148,-0.2109845,1.452111,-0.002996518,0.07973748,1.481194,0.09457159,0.4315608,1.690648,0.1722556,-0.1675679,1.496982,-0.03808861,0.06000408,1.411177,0.07849985,-0.01942154,1.666606,0.07936849,-0.3287248,1.63479,-0.07202988,0.1645944,1.595269,0.0006811637,-0.3185271,1.595342,-0.1099805,-0.05347693,1.522472,0.2605954,-0.008351758,1.472498,NA,NA,Unknown,Unknown,
0.6904297,-0.6049805,0.3447266,0.1166992,0.6733398,0.3212891,-1,-2,-2,-2,2,0,-2,-1,-2,-2,-1,-1,-1,-17,-16,-2,115.4375,115.4375,115.4375,-44.6875,-44.6875,-44.6875,3.168575,3.929332,2.499093,7.172255,5.360553,0.700888,0.1479706,-0.2524184,1.430809,0.007290286,0.03065464,1.469905,0.09333454,0.4314118,1.690736,0.1118504,-0.2989459,1.486522,-0.01518431,0.006690843,1.406013,0.07772282,-0.01976811,1.667245,0.07920531,-0.3289826,1.635507,-0.08321048,0.1606385,1.606975,0.0007624392,-0.3187666,1.596461,-0.1159713,-0.05686478,1.529916,0.2955121,-0.02575555,1.509822,NA,NA,Unknown,Unknown,
0.684082,-0.5239258,0.449707,-0.05615234,0.734375,0.6230469,0,-1,2,3,2,3,-2,-1,-1,-4,-6,-5,-2,4,4,3,119.375,119.375,119.375,-102.0625,-102.0625,-102.0625,3.285484,3.8369,2.632426,6.898432,5.060242,0.3647736,0.1064917,-0.2766332,1.437457,0.06503192,-0.02392672,1.464484,0.09192041,0.4315807,1.690105,0.1503904,-0.2342039,1.495868,0.09988145,-0.05835112,1.410917,0.07739104,-0.02000892,1.667576,0.07958441,-0.3295552,1.63686,-0.08126406,0.1616936,1.606084,0.001674215,-0.3193825,1.598605,-0.1315025,-0.0535259,1.553927,0.321462,-0.03259131,1.546273,NA,NA,NotTracked,Unknown,
0.7021484,-0.5410156,0.487793,-0.0234375,0.8710938,0.7514648,-1,-2,-1,1,-2,0,1,0,1,-4,-2,2,0,5,3,5,173.9375,173.9375,173.9375,-104.25,-104.25,-104.25,3.452545,3.656214,2.86582,6.675392,4.647834,0.03036413,0.04093817,-0.259361,1.473289,0.1006643,-0.1223098,1.462388,0.09061474,0.4316934,1.688616,-0.04970009,-0.3140272,1.513136,0.06437799,-0.07333954,1.468408,0.0767786,-0.02039029,1.667085,0.07920568,-0.3302527,1.636809,-0.08746794,0.1605378,1.613075,0.0007227031,-0.3208304,1.597918,-0.1423824,-0.05476324,1.573654,0.3377965,-0.0456818,1.595765,NA,NA,NotTracked,NotTracked,
0.7421875,-0.527832,0.4462891,0.04492188,0.8896484,0.6464844,1,-2,1,-1,-2,-3,-4,-3,-1,-3,-2,-4,-14,-11,-1,-2,157.4375,157.4375,157.4375,-73.8125,-73.8125,-73.8125,3.55772,3.488374,3.082964,6.58421,4.285061,9.778822,0.004354319,-0.33889,1.446323,0.1617173,-0.2222388,1.482096,0.08982841,0.4317928,1.68667,-0.03781651,-0.3671057,1.468424,0.1013012,-0.1681091,1.46175,0.07676372,-0.02118268,1.663948,0.07932566,-0.3316442,1.633632,-0.08954654,0.1603318,1.615531,-4.069149E-05,-0.3235396,1.59371,-0.1482003,-0.06397623,1.593183,0.3360271,-0.05795952,1.641032,NA,NA,NotTracked,NotTracked,
0.847168,-0.5385742,0.3642578,0.3574219,0.8208008,0.6040039,0,-1,1,4,-1,0,0,0,1,0,-2,-1,0,-2,3,25,157.5625,157.5625,157.5625,-84.5,-84.5,-84.5,3.622246,3.311801,3.309785,6.556178,3.935581,9.535815,-0.04340333,-0.3628073,1.474436,0.2177216,-0.303463,1.511071,0.08972848,0.4324296,1.683866,-0.08822819,-0.3915768,1.47452,0.1767697,-0.2702139,1.510544,0.07777468,-0.0209714,1.659854,0.08092783,-0.3318978,1.629181,-0.09087777,0.1598862,1.617231,0.0001977174,-0.3243124,1.589784,-0.1505113,-0.07558278,1.612217,0.3335766,-0.07128842,1.669638,NA,NA,Open,Unknown,
0.8496094,-0.2836914,0.3320313,0.5371094,0.9487305,0.503418,0,-1,-1,1,-1,-1,-2,-1,-4,-6,-2,-3,-3,0,-5,-3,36,36,36,-63.3125,-63.3125,-63.3125,3.650325,3.13518,3.514497,6.610709,3.648403,9.313245,-0.07737587,-0.3813189,1.504764,0.2552851,-0.349115,1.545029,0.09048606,0.4327503,1.681077,-0.1310241,-0.3941393,1.515852,0.2086483,-0.3180959,1.520647,0.07892961,-0.02089052,1.65755,0.0823255,-0.3317888,1.627851,-0.09146632,0.1595141,1.618267,0.0009795305,-0.3242925,1.58859,-0.1485465,-0.09639226,1.629004,0.3275393,-0.0925636,1.689382,NA,NA,NotTracked,NotTracked,
0.8803711,-0.4780273,0.4199219,0.5371094,0.9487305,0.503418,-2,-2,-1,0,-1,0,-6,-3,-5,-2,-2,-2,-2,1,-1,-9,34.125,34.125,34.125,-63.3125,-63.3125,-63.3125,3.552393,3.03077,3.6575,6.610709,3.648403,9.313245,-0.0988886,-0.3940695,1.521723,0.2800277,-0.3861414,1.565772,0.09219565,0.4327679,1.677214,-0.1520059,-0.3935182,1.5335,0.2313643,-0.3548138,1.530551,0.07966705,-0.02104582,1.655919,0.08268664,-0.331881,1.627417,-0.09146988,0.1593777,1.618629,0.001243757,-0.3242274,1.588295,-0.1507093,-0.1040273,1.63522,0.3219248,-0.1038462,1.699121,NA,NA,NotTracked,NotTracked,
0.8964844,-0.3125,0.2763672,0.8764648,0.3476563,0.2036133,1,-1,-3,-1,0,0,-3,-5,0,1,-1,1,0,35,-5,-10,40.0625,40.0625,40.0625,-62.75,-62.75,-62.75,3.429023,2.971798,3.884197,6.750548,3.251618,8.674589,-0.1154135,-0.4007321,1.534964,0.3043608,-0.4158274,1.590789,0.09392276,0.4327032,1.674969,-0.1672655,-0.4038685,1.543206,0.2479926,-0.3845903,1.549543,0.08000563,-0.02113418,1.654837,0.0824305,-0.332141,1.627175,-0.09136147,0.1592946,1.61873,0.001034665,-0.3241844,1.58814,-0.1520635,-0.1091484,1.64003,0.3171491,-0.1158693,1.700288,NA,NA,NotTracked,NotTracked,
1.005859,-0.1621094,0.09033203,1.008301,0.4379883,0.03710938,1,0,-3,-1,-1,-1,0,1,2,0,-1,-2,-3,-5,5,13,41.0625,41.0625,41.0625,0.5,0.5,0.5,3.311892,2.91656,4.084783,6.93379,3.148851,8.450517,-0.1309648,-0.4086513,1.548606,0.3167051,-0.4298944,1.609542,0.09562813,0.432496,1.673164,-0.1852864,-0.3968696,1.554558,0.254847,-0.407665,1.568,0.08009715,-0.02118035,1.654145,0.08168022,-0.3325024,1.626914,-0.0912187,0.1592666,1.618729,0.0003850937,-0.3241597,1.587932,-0.1522736,-0.111842,1.641443,0.3152155,-0.1224768,1.698771,NA,NA,NotTracked,NotTracked,
1.019043,-0.1591797,-0.00390625,1.053223,0.3847656,0.09277344,-1,0,-3,-2,-2,-2,4,0,1,-3,1,-1,-1,8,-4,-3,11.375,11.375,11.375,16.4375,16.4375,16.4375,3.164963,2.869707,4.271284,7.017942,3.106041,8.375608,-0.1431596,-0.4172498,1.558022,0.3202994,-0.4330963,1.613974,0.09705973,0.4324857,1.672204,-0.1974549,-0.4148095,1.556105,0.2581018,-0.4012573,1.576,0.08033627,-0.02139211,1.653627,0.08062883,-0.3330975,1.626878,-0.09072727,0.1593531,1.618861,-0.0004814058,-0.3243808,1.587979,-0.1516731,-0.1135978,1.641516,0.3149885,-0.1257828,1.697624,NA,NA,NotTracked,NotTracked,
1.014648,-0.2011719,0.07958984,0.8823242,0.3447266,0.1943359,-3,-3,-2,-1,-1,-2,0,-1,1,-3,-3,0,0,25,0,6,13.4375,13.4375,13.4375,7.6875,7.6875,7.6875,3.094307,2.861801,4.359936,6.993743,3.100025,8.473796,-0.1489992,-0.4201018,1.559934,0.3173412,-0.4291491,1.607165,0.09829102,0.4324907,1.6716,-0.2031609,-0.4173341,1.561455,0.2587163,-0.405562,1.578539,0.0804445,-0.02150936,1.653015,0.07992525,-0.3334697,1.626742,-0.09039728,0.1593148,1.618897,-0.001103148,-0.3244725,1.587956,-0.1511082,-0.1152522,1.641193,0.315607,-0.1270213,1.696183,NA,NA,NotTracked,NotTracked,
