ALX,ALY,ALZ,ARX,ARY,ARZ,EMG0L,EMG1L,EMG2L,EMG3L,EMG4L,EMG5L,EMG6L,EMG7L,EMG0R,EMG1R,EMG2R,EMG3R,EMG4R,EMG5R,EMG6R,EMG7R,GLX,GLY,GLZ,GRX,GRY,GRZ,ORL,OPL,OYL,ORR,OPR,OYR,LHNX,LHNY,LHNZ,RHNX,RHNY,RHNZ,HX,HY,HZ,LTX,LTY,LTZ,RTX,RTY,RTZ,SpineMidX,SpineMidY,SpineMidZ,SpineBaseX,SpineBaseY,SpineBaseZ,ShoulderLeftX,ShoulderLeftY,ShoulderLeftZ,ShoulderRightX,ShoulderRightY,ShoulderRightZ,ElbowLeftX,ElbowLeftY,ElbowLeftZ,ElbowRightX,ElbowRightY,ElbowRightZ,Myo_Pose_left,Myo_Pose_Right,Kinect_pose_left,Kinect_pose_right
0.9736328,-0.2568359,0.08203125,0.8413086,0.4179688,0.2353516,3,2,0,0,-1,-3,-3,3,-1,-2,-1,0,-1,-3,-4,0,-16.5625,-16.5625,-16.5625,5.3125,5.3125,5.3125,2.806043,2.96753,5.308969,6.913148,3.296656,4.847231,-0.2515899,-0.4203826,1.519891,0.1937613,-0.4197449,1.523204,-0.003011569,0.4289684,1.629794,-0.294541,-0.4305176,1.520823,0.2410795,-0.4149137,1.527412,-0.02179858,-0.04399442,1.63206,-0.02515863,-0.371779,1.614041,-0.1845786,0.147475,1.600851,-0.1099435,-0.3612466,1.573938,-0.2488035,-0.116589,1.628311,0.2070492,-0.1308669,1.646345,NA,NA,NotTracked,NotTracked,
0.940918,-0.230957,0.1083984,0.8764648,0.3925781,0.2304688,1,0,-2,-1,-3,-1,-1,-2,-1,-1,0,0,-1,-4,-1,0,-9.6875,-9.6875,-9.6875,-2.4375,-2.4375,-2.4375,2.78522,2.983405,5.306926,6.930057,3.310446,4.818359,-0.2585521,-0.4194948,1.510322,0.202157,-0.4222176,1.517105,-0.003053414,0.4288971,1.630171,-0.3031768,-0.4163666,1.52,0.2459262,-0.4215004,1.517,-0.02174805,-0.04419011,1.632059,-0.02499036,-0.3720903,1.613677,-0.1846322,0.1471765,1.600668,-0.1096523,-0.3615349,1.57363,-0.2495325,-0.1177006,1.622301,0.2084519,-0.1313371,1.643632,NA,NA,NotTracked,NotTracked,
0.9492188,-0.25,0.1254883,0.8613281,0.4194336,0.2080078,-1,-1,0,-2,0,-2,-2,-9,-1,0,-2,0,-1,-1,-3,-2,-16.9375,-16.9375,-16.9375,-10.25,-10.25,-10.25,2.765105,2.983564,5.305283,6.935503,3.316713,4.795103,-0.2658204,-0.4177352,1.50065,0.2078219,-0.4228677,1.513057,-0.003043273,0.4289458,1.630875,-0.3065097,-0.401606,1.514292,0.2504969,-0.4197522,1.5162,-0.02170158,-0.04436298,1.632006,-0.02482804,-0.3724438,1.613222,-0.184776,0.1468762,1.600256,-0.1094232,-0.3617745,1.573233,-0.2504883,-0.1183498,1.618166,0.2092549,-0.131584,1.642167,NA,NA,NotTracked,NotTracked,
0.9560547,-0.2363281,0.1230469,0.8554688,0.4262695,0.2275391,-2,-2,-1,-1,0,1,1,-1,0,-1,-1,0,0,-2,-2,2,-3.4375,-3.4375,-3.4375,-16.3125,-16.3125,-16.3125,2.757529,2.97949,5.302959,6.924721,3.319864,4.775042,-0.270337,-0.4183946,1.497133,0.2108046,-0.4232042,1.51308,-0.002943452,0.428974,1.631746,-0.3100892,-0.4157401,1.5047,0.2495315,-0.4205927,1.518442,-0.02167275,-0.04454066,1.63201,-0.02475213,-0.372695,1.612943,-0.1848377,0.1467889,1.600079,-0.1092697,-0.3620179,1.57267,-0.2518166,-0.1186055,1.614313,0.2096202,-0.1318972,1.641441,NA,NA,NotTracked,NotTracked,
0.9643555,-0.2353516,0.09472656,0.8491211,0.4370117,0.2143555,5,1,-1,-3,0,-3,-4,-4,-1,1,0,-1,-2,0,-4,2,4.25,4.25,4.25,-20.1875,-20.1875,-20.1875,2.772286,2.964512,5.294017,6.903122,3.318725,4.748045,-0.2709519,-0.4178747,1.495504,0.2117024,-0.4236158,1.513313,-0.002921598,0.4289931,1.632243,-0.3106782,-0.4163299,1.500437,0.2504419,-0.4213519,1.517862,-0.02165384,-0.04473703,1.631882,-0.024632,-0.3730901,1.612515,-0.1848686,0.1467221,1.599294,-0.1091128,-0.3623204,1.572248,-0.252831,-0.1187534,1.610772,0.2096897,-0.1321504,1.640793,NA,NA,NotTracked,NotTracked,
0.9677734,-0.2651367,0.08496094,0.8671875,0.434082,0.1943359,0,-2,-2,-1,0,0,0,2,-2,-2,1,-1,-1,1,1,0,4.3125,4.3125,4.3125,-8.25,-8.25,-8.25,2.797354,2.952045,5.274519,6.89311,3.312201,4.732391,-0.2698047,-0.4189458,1.49612,0.2123376,-0.423472,1.515334,-0.002871847,0.428926,1.632396,-0.3104428,-0.4036847,1.509375,0.2511235,-0.423802,1.520453,-0.02165739,-0.0448603,1.631771,-0.0246253,-0.3732715,1.612279,-0.1849103,0.1464763,1.59819,-0.1090568,-0.3624964,1.571949,-0.2525238,-0.1193402,1.60749,0.2094443,-0.1324225,1.640295,NA,NA,NotTracked,NotTracked,
0.9482422,-0.2700195,0.0859375,0.8544922,0.4355469,0.2036133,1,0,2,0,0,2,5,34,-2,0,0,-3,-1,-2,6,-2,0.3125,0.3125,0.3125,-3,-3,-3,2.831605,2.942153,5.244112,6.881536,3.303843,4.734802,-0.2668169,-0.418112,1.496777,0.2122679,-0.4240053,1.516942,-0.002737167,0.4288395,1.632383,-0.3072926,-0.4136828,1.507846,0.2506197,-0.4210814,1.521761,-0.0216333,-0.04499777,1.631586,-0.02458302,-0.3733996,1.61201,-0.183166,0.1463933,1.596858,-0.1089872,-0.3625716,1.571666,-0.2522304,-0.1192166,1.604549,0.2092783,-0.1325922,1.640047,NA,NA,NotTracked,NotTracked,
0.9487305,-0.2705078,0.08789063,0.8447266,0.4487305,0.2036133,4,3,1,-1,-1,-2,0,24,-1,0,1,0,0,1,0,-1,1.8125,1.8125,1.8125,-0.625,-0.625,-0.625,2.858668,2.93508,5.219645,6.878076,3.301096,4.736882,-0.2651231,-0.4177209,1.49894,0.2128024,-0.4232424,1.518821,-0.002632886,0.4288538,1.632358,-0.3051276,-0.4114187,1.509137,0.251051,-0.4238124,1.522743,-0.02158658,-0.04512689,1.631264,-0.02450111,-0.3735966,1.611668,-0.1835228,0.1463802,1.595901,-0.1088993,-0.3628004,1.571279,-0.2519236,-0.1193837,1.603856,0.2091745,-0.1327803,1.640033,NA,NA,NotTracked,NotTracked,
0.9580078,-0.2617188,0.08496094,0.8466797,0.4443359,0.2041016,0,-2,-2,-1,-2,1,-3,-6,0,0,-2,-1,-2,0,-2,-1,-1.4375,-1.4375,-1.4375,-0.8125,-0.8125,-0.8125,2.878265,2.930085,5.198907,6.874709,3.295451,4.735919,-0.26313,-0.4181043,1.501092,0.213729,-0.4232513,1.521488,-0.002530586,0.4288012,1.632302,-0.3028297,-0.4166914,1.51326,0.2513458,-0.4232081,1.524564,-0.02157979,-0.04519454,1.631187,-0.02443589,-0.3736886,1.611605,-0.183806,0.1464852,1.595243,-0.1088058,-0.3628792,1.571229,-0.2516859,-0.1193878,1.603514,0.2090619,-0.1328098,1.640024,NA,NA,NotTracked,NotTracked,
0.9584961,-0.2675781,0.1083984,0.8544922,0.4404297,0.1948242,1,-2,0,0,-1,0,-1,-2,0,0,-1,-1,-2,0,-2,-3,-4.625,-4.625,-4.625,2.5,2.5,2.5,2.88462,2.929145,5.186187,6.877051,3.29121,4.735293,-0.2626102,-0.4183753,1.503403,0.2137424,-0.426921,1.521138,-0.002465603,0.4287908,1.632071,-0.3030326,-0.4165683,1.513298,0.2528771,-0.4186274,1.526992,-0.02158353,-0.04536037,1.631021,-0.0244413,-0.3738569,1.611551,-0.1841421,0.1464467,1.594732,-0.1087805,-0.3630223,1.571214,-0.2512956,-0.1195732,1.603434,0.2090066,-0.1328713,1.639925,NA,NA,NotTracked,NotTracked,
0.9511719,-0.2626953,0.1049805,0.8564453,0.4370117,0.1962891,4,1,0,0,-1,-1,0,11,2,-1,-2,0,-2,-1,-2,-2,0.1875,0.1875,0.1875,3.375,3.375,3.375,2.889836,2.92988,5.179281,6.881135,3.289296,4.735702,-0.2624505,-0.419285,1.50312,0.2144737,-0.4266553,1.520657,-0.002434568,0.4287316,1.631657,-0.3036576,-0.4127104,1.51219,0.2518469,-0.4202387,1.524597,-0.02154482,-0.04543547,1.630895,-0.02443744,-0.3739363,1.611506,-0.1843165,0.1465249,1.594025,-0.1087743,-0.3630827,1.571219,-0.2510471,-0.1195813,1.602989,0.2090468,-0.1330063,1.639589,NA,NA,NotTracked,NotTracked,
0.9472656,-0.2416992,0.1054688,0.8583984,0.4189453,0.2021484,4,3,-1,0,-1,0,2,11,0,-1,-2,0,0,-2,-1,1,-0.125,-0.125,-0.125,2.125,2.125,2.125,2.896176,2.930084,5.175495,6.87927,3.289769,4.741661,-0.2625922,-0.419991,1.503459,0.2148792,-0.4268686,1.520424,-0.002489715,0.4285958,1.630837,-0.3010752,-0.4058397,1.514482,0.2539066,-0.421586,1.525862,-0.02157627,-0.0455087,1.63078,-0.02445312,-0.373982,1.611494,-0.1845849,0.1466075,1.593675,-0.1087869,-0.363118,1.571228,-0.25095,-0.119567,1.602901,0.2090871,-0.1330204,1.639508,NA,NA,NotTracked,NotTracked,
0.9526367,-0.2602539,0.1064453,0.8544922,0.4228516,0.2011719,-1,0,0,0,0,-1,1,-2,0,0,-1,-1,-1,-1,-3,0,3.5625,3.5625,3.5625,3,3,3,2.902043,2.9326,5.17271,6.875589,3.291009,4.751241,-0.2628655,-0.4199743,1.503514,0.2151628,-0.4266952,1.51884,-0.002507097,0.4284797,1.629969,-0.2998105,-0.4202099,1.508316,0.2555348,-0.4243169,1.527124,-0.02154436,-0.0455522,1.630638,-0.02442831,-0.3740444,1.61143,-0.1847847,0.14666,1.593332,-0.1087628,-0.3631518,1.571203,-0.2508532,-0.119576,1.602715,0.2091811,-0.1329052,1.6394,NA,NA,NotTracked,NotTracked,
0.9604492,-0.2490234,0.09863281,0.855957,0.4169922,0.203125,-1,-1,-3,-3,-4,0,0,-11,-1,0,-1,-2,-1,-1,-3,0,2.875,2.875,2.875,0.8125,0.8125,0.8125,2.91885,2.933827,5.164715,6.863705,3.293416,4.764206,-0.263758,-0.419686,1.502919,0.214656,-0.4240423,1.517378,-0.00257152,0.4283576,1.629273,-0.3033645,-0.4142642,1.511114,0.2526124,-0.4220381,1.5245,-0.02151625,-0.04568797,1.630461,-0.02437753,-0.374174,1.611406,-0.1849347,0.1467029,1.59315,-0.1086875,-0.3632817,1.571203,-0.2508452,-0.1195628,1.602641,0.2092629,-0.1329491,1.639086,NA,NA,NotTracked,NotTracked,
0.9589844,-0.2524414,0.1040039,0.8618164,0.4174805,0.1962891,-1,-3,-1,-1,1,0,0,2,-2,-1,-2,1,1,-1,-3,0,2,2,2,0.125,0.125,0.125,2.934755,2.934974,5.152827,6.85436,3.294973,4.774621,-0.2637573,-0.4202592,1.50358,0.2135579,-0.4262817,1.516968,-0.002581733,0.4282507,1.628829,-0.2991436,-0.4315488,1.502778,0.2521981,-0.4217761,1.523589,-0.02151773,-0.04574404,1.630367,-0.02437655,-0.3742032,1.611393,-0.1850493,0.1466952,1.593053,-0.1086765,-0.3633041,1.571226,-0.2507368,-0.119614,1.602669,0.2092964,-0.1329432,1.638739,NA,NA,NotTracked,NotTracked,
0.9609375,-0.2553711,0.1088867,0.8632813,0.4145508,0.1923828,4,-1,-2,0,1,-2,0,5,-1,-2,-2,0,0,-2,-1,-2,1.125,1.125,1.125,-1.375,-1.375,-1.375,2.955529,2.93675,5.134993,6.842913,3.295915,4.784315,-0.2628265,-0.4194252,1.504212,0.2125683,-0.426007,1.516732,-0.002579397,0.4282066,1.628557,-0.3025839,-0.4158663,1.514941,0.2522528,-0.4217126,1.524778,-0.02149508,-0.04590847,1.63018,-0.02438176,-0.3743527,1.611268,-0.1853294,0.1466588,1.592959,-0.1086835,-0.3634579,1.571066,-0.2506371,-0.119734,1.602692,0.2091339,-0.1330756,1.638197,NA,NA,NotTracked,NotTracked,
0.9589844,-0.2592773,0.1015625,0.8608398,0.4311523,0.2026367,-1,-2,-1,-2,-1,0,-2,-4,-1,-3,1,-1,-1,-3,-2,0,1.4375,1.4375,1.4375,-2.6875,-2.6875,-2.6875,2.977552,2.938995,5.115052,6.832629,3.2983,4.791579,-0.2618115,-0.4201397,1.50282,0.2111874,-0.42521,1.516153,-0.002646712,0.4281719,1.62835,-0.3020195,-0.4117338,1.5162,0.2521433,-0.4264679,1.5236,-0.02145338,-0.04605998,1.629948,-0.02434557,-0.3745688,1.610988,-0.185415,0.1465983,1.592923,-0.1086386,-0.3636529,1.570793,-0.2504312,-0.1198651,1.60268,0.2089262,-0.1332699,1.637986,NA,NA,NotTracked,NotTracked,
0.9570313,-0.2597656,0.1142578,0.8588867,0.4262695,0.1962891,-1,-2,-1,-1,-1,0,1,4,-1,-1,-1,-1,0,0,0,-2,-1.625,-1.625,-1.625,-2.75,-2.75,-2.75,3.007347,2.943207,5.084196,6.823095,3.300068,4.796822,-0.260159,-0.4188117,1.502895,0.2101729,-0.4251743,1.515945,-0.002683757,0.4281354,1.628227,-0.3004929,-0.4174248,1.512262,0.250838,-0.4258187,1.523981,-0.02149292,-0.04621466,1.629803,-0.02440812,-0.3747112,1.610759,-0.1854927,0.1464663,1.592958,-0.1086994,-0.3637592,1.570478,-0.2502865,-0.120059,1.602648,0.2085684,-0.1334565,1.637648,NA,NA,NotTracked,NotTracked,
0.9511719,-0.262207,0.09912109,0.8588867,0.4306641,0.206543,-1,-1,-3,-2,-2,-2,-2,-2,-2,-1,-1,-2,-2,-2,0,1,-0.1875,-0.1875,-0.1875,0.375,0.375,0.375,3.026186,2.948908,5.064871,6.82087,3.300736,4.79782,-0.2587046,-0.419585,1.503627,0.210042,-0.42564,1.517312,-0.002712346,0.4281169,1.628281,-0.3000414,-0.4149575,1.514583,0.2514374,-0.4234569,1.52487,-0.02153197,-0.04633974,1.62969,-0.02446488,-0.3748835,1.610545,-0.1855392,0.1462729,1.592987,-0.1087389,-0.363892,1.570324,-0.2501012,-0.120324,1.602535,0.2083294,-0.1336673,1.637449,NA,NA,NotTracked,NotTracked,
0.9619141,-0.25,0.1049805,0.8564453,0.4267578,0.199707,-1,0,-1,-1,-2,0,-2,0,-1,-1,-2,-2,-2,0,1,1,-1.8125,-1.8125,-1.8125,-1.3125,-1.3125,-1.3125,3.039737,2.954344,5.049315,6.819177,3.302625,4.797935,-0.256563,-0.4185863,1.502511,0.2095972,-0.4254021,1.516338,-0.002777714,0.4280272,1.628477,-0.2996815,-0.4170592,1.513064,0.2503003,-0.4302947,1.523175,-0.02156069,-0.04636662,1.629683,-0.02451075,-0.3749276,1.610447,-0.1855783,0.146208,1.593084,-0.1087625,-0.3639371,1.570238,-0.2496344,-0.1205566,1.602246,0.2079962,-0.1338133,1.637375,NA,NA,NotTracked,NotTracked,
0.9526367,-0.2680664,0.1069336,0.8603516,0.434082,0.206543,-6,-3,-1,0,-1,-1,-1,-8,-1,-1,-2,-1,-1,0,1,-1,-1.6875,-1.6875,-1.6875,-0.6875,-0.6875,-0.6875,3.041131,2.957201,5.04516,6.818522,3.304039,4.797643,-0.2573182,-0.4186549,1.501853,0.2099662,-0.4264413,1.516831,-0.00283101,0.4280803,1.62882,-0.3002076,-0.4166262,1.512952,0.2507275,-0.4224015,1.525785,-0.02154252,-0.0464281,1.62969,-0.02453843,-0.374945,1.610394,-0.1856141,0.1461609,1.593196,-0.1087751,-0.36395,1.570214,-0.2495093,-0.1206689,1.602113,0.2079442,-0.1339233,1.637361,NA,NA,NotTracked,NotTracked,
0.9487305,-0.262207,0.1108398,0.859375,0.4277344,0.2055664,-2,1,0,-1,-1,0,0,-1,-2,-3,-1,0,-2,-2,-2,-2,-0.625,-0.625,-0.625,-0.5,-0.5,-0.5,3.042447,2.959022,5.043467,6.818315,3.30593,4.797027,-0.2559698,-0.4184008,1.500591,0.2094105,-0.4258003,1.51551,-0.002900559,0.4281092,1.628904,-0.2997451,-0.4160483,1.512447,0.2495777,-0.422079,1.522103,-0.02153998,-0.04645434,1.629661,-0.02452584,-0.3749629,1.610214,-0.1856028,0.1461177,1.593236,-0.1087473,-0.3639518,1.56997,-0.2493315,-0.1207661,1.60203,0.2077892,-0.1340239,1.637247,NA,NA,NotTracked,NotTracked,
0.9536133,-0.2612305,0.1079102,0.8574219,0.4296875,0.2075195,-12,-10,-2,1,-1,-2,-1,-7,1,-1,-2,0,0,0,1,-1,-0.4375,-0.4375,-0.4375,-2.125,-2.125,-2.125,3.0405,2.959964,5.04526,6.818041,3.307294,4.794859,-0.256357,-0.4196589,1.49977,0.2096043,-0.4259821,1.515491,-0.002997095,0.4280403,1.629193,-0.2987605,-0.421607,1.511814,0.2510438,-0.4242035,1.524317,-0.02155177,-0.04648016,1.629649,-0.02453103,-0.3750442,1.610049,-0.1856053,0.1460797,1.593329,-0.1087489,-0.3640437,1.569763,-0.2488164,-0.1209582,1.60187,0.2077163,-0.1341991,1.637297,NA,NA,NotTracked,NotTracked,
0.9560547,-0.2529297,0.1108398,0.859375,0.4248047,0.2114258,1,-1,-1,0,-2,0,0,-6,-1,-2,0,0,-1,1,-1,-1,-0.5,-0.5,-0.5,-2.3125,-2.3125,-2.3125,3.03864,2.958619,5.047033,6.816963,3.3083,4.792484,-0.2557938,-0.4189031,1.500613,0.209715,-0.4264604,1.515916,-0.003046946,0.4279983,1.629322,-0.2963077,-0.406195,1.5122,0.2510617,-0.4245124,1.524196,-0.02154855,-0.04652502,1.629669,-0.02452698,-0.3750662,1.610042,-0.1856601,0.1460773,1.593421,-0.1087455,-0.3640611,1.569758,-0.2487063,-0.1210112,1.601861,0.2076553,-0.1343129,1.63729,NA,NA,NotTracked,NotTracked,
0.9619141,-0.2558594,0.1123047,0.8613281,0.4277344,0.2094727,2,0,-1,-1,1,-2,0,3,0,0,-1,-2,-1,-2,0,0,-2.3125,-2.3125,-2.3125,-2.4375,-2.4375,-2.4375,3.03799,2.956846,5.045841,6.815075,3.30866,4.79106,-0.257222,-0.4200903,1.499583,0.2096343,-0.4264157,1.516087,-0.003116741,0.4279585,1.629411,-0.2978714,-0.4294588,1.503834,0.2504427,-0.4226872,1.524094,-0.02156116,-0.04655722,1.629684,-0.02453004,-0.3751122,1.610005,-0.1856656,0.1459306,1.593495,-0.1087357,-0.364122,1.569727,-0.2487077,-0.1211708,1.601802,0.2074706,-0.1345238,1.637307,NA,NA,NotTracked,NotTracked,
0.9589844,-0.2495117,0.1235352,0.8608398,0.4243164,0.2050781,8,10,0,-2,-1,0,-1,6,-1,-2,-2,-1,-2,0,-1,-1,-2.875,-2.875,-2.875,-1.5,-1.5,-1.5,3.039184,2.954122,5.041918,6.812218,3.30796,4.791492,-0.2572295,-0.4221346,1.499885,0.2095691,-0.4265577,1.517559,-0.00320634,0.4279611,1.629849,-0.298931,-0.4196303,1.50991,0.2507447,-0.4235518,1.525338,-0.02158906,-0.04663519,1.629779,-0.02454548,-0.3751777,1.610061,-0.185737,0.1458645,1.593673,-0.1087395,-0.3641903,1.569817,-0.2487289,-0.1212666,1.601797,0.2072826,-0.1346076,1.637336,NA,NA,NotTracked,NotTracked,
0.9541016,-0.2573242,0.1210938,0.8608398,0.4243164,0.2109375,-3,0,-1,-3,-3,-2,-5,-18,-1,-2,-2,-3,-1,-1,-1,-1,-1.25,-1.25,-1.25,-0.5625,-0.5625,-0.5625,3.043262,2.951787,5.036409,6.810152,3.307409,4.793078,-0.2569908,-0.4222319,1.500726,0.2090167,-0.425843,1.517149,-0.003259015,0.4279832,1.630129,-0.2986277,-0.4197152,1.509104,0.2508297,-0.4239997,1.524236,-0.02159546,-0.04668781,1.629855,-0.02453861,-0.3751988,1.610096,-0.1857677,0.1458169,1.593821,-0.1087235,-0.3642083,1.569837,-0.2485981,-0.1213712,1.601763,0.207087,-0.1346879,1.637437,NA,NA,NotTracked,NotTracked,
0.9560547,-0.246582,0.1132813,0.8588867,0.4238281,0.2070313,3,-1,-1,0,-1,-1,0,12,0,-2,0,-1,-2,-1,-1,-2,-0.5625,-0.5625,-0.5625,-0.0625,-0.0625,-0.0625,3.05026,2.948924,5.029518,6.805304,3.303962,4.798779,-0.2573161,-0.4219825,1.500893,0.208885,-0.4257,1.518116,-0.003322732,0.4280283,1.630265,-0.2987685,-0.414685,1.511278,0.2502764,-0.4238502,1.523962,-0.02154106,-0.04674147,1.629966,-0.02433483,-0.3752851,1.610245,-0.1858197,0.145758,1.593889,-0.1084505,-0.3643406,1.570111,-0.2484473,-0.1214874,1.601744,0.2070343,-0.1347483,1.637457,NA,NA,NotTracked,NotTracked,
0.9575195,-0.2446289,0.1044922,0.8608398,0.4233398,0.2041016,3,0,-1,-1,1,0,1,11,-1,-1,0,-1,0,0,2,0,-1.3125,-1.3125,-1.3125,-0.125,-0.125,-0.125,3.05611,2.945193,5.022122,6.803139,3.302956,4.800798,-0.2562329,-0.4218746,1.502723,0.2074046,-0.4265612,1.519435,-0.003433485,0.428021,1.630478,-0.2935949,-0.430986,1.500842,0.2463794,-0.4286504,1.523022,-0.02151149,-0.04679642,1.630156,-0.02427721,-0.3753375,1.610375,-0.185889,0.1455912,1.59416,-0.1083983,-0.3643826,1.570204,-0.2484095,-0.1217034,1.601756,0.2067032,-0.1349131,1.637776,NA,NA,NotTracked,NotTracked,
0.9545898,-0.2514648,0.1040039,0.8569336,0.4208984,0.2084961,-5,-5,-3,-1,0,-1,0,-1,-1,-2,1,-1,-1,0,-4,-2,-1.5625,-1.5625,-1.5625,0.4375,0.4375,0.4375,3.063086,2.943159,5.013469,6.798775,3.299948,4.805733,-0.2558891,-0.4221786,1.503507,0.2070456,-0.4270205,1.521121,-0.003446465,0.4279951,1.63067,-0.2967816,-0.4241313,1.507354,0.2483862,-0.4249613,1.525592,-0.02146106,-0.04685743,1.630361,-0.02415597,-0.3753946,1.610623,-0.1859899,0.1455041,1.594384,-0.1082444,-0.3644648,1.570524,-0.248281,-0.1218595,1.601827,0.2065623,-0.1350877,1.638025,NA,NA,NotTracked,NotTracked,
0.9560547,-0.2563477,0.1113281,0.855957,0.4326172,0.206543,-1,-2,-2,-2,-1,-1,-1,-3,-1,-1,-1,0,-1,-1,3,-1,-0.25,-0.25,-0.25,-0.1875,-0.1875,-0.1875,3.072205,2.942182,5.003468,6.794292,3.296482,4.811127,-0.2544157,-0.4219349,1.503096,0.206286,-0.4274632,1.521662,-0.00346544,0.4279634,1.630749,-0.2940482,-0.4109307,1.512348,0.2475925,-0.4243842,1.528418,-0.02145965,-0.04693411,1.630536,-0.02417568,-0.3754547,1.610811,-0.1861635,0.14538,1.594733,-0.1082581,-0.3645217,1.570656,-0.2482024,-0.1220686,1.6019,0.2063891,-0.1351632,1.638146,NA,NA,NotTracked,NotTracked,
0.9526367,-0.2519531,0.1103516,0.8574219,0.4287109,0.2060547,-3,-2,-3,-3,-3,-2,-2,-2,-1,-1,-3,1,0,-1,-2,-3,0.75,0.75,0.75,-0.25,-0.25,-0.25,3.082074,2.941776,4.99449,6.792151,3.294294,4.813139,-0.2542731,-0.4220508,1.505223,0.2064499,-0.4273102,1.523623,-0.003576749,0.427957,1.630932,-0.2955539,-0.4197673,1.508911,0.247593,-0.4273075,1.53183,-0.02140945,-0.0469666,1.630778,-0.02411598,-0.3754174,1.611043,-0.186219,0.1453054,1.594995,-0.1081872,-0.3644946,1.570951,-0.2481825,-0.1221677,1.602078,0.2061903,-0.1350799,1.638601,NA,NA,NotTracked,NotTracked,
0.9594727,-0.2568359,0.1103516,0.8535156,0.4277344,0.2021484,0,0,-3,-1,-3,-3,-1,-2,0,0,0,-1,-2,-2,8,-1,0.625,0.625,0.625,0.6875,0.6875,0.6875,3.087434,2.941206,4.990086,6.790437,3.292086,4.815783,-0.2540849,-0.4222671,1.505908,0.2061843,-0.4277685,1.524378,-0.003673707,0.4278863,1.631151,-0.295212,-0.4196039,1.509468,0.2466261,-0.42625,1.528852,-0.02141675,-0.04703525,1.631096,-0.02398507,-0.3755101,1.611342,-0.1862055,0.1452141,1.595223,-0.1080457,-0.3646379,1.571202,-0.2479589,-0.1222945,1.602438,0.2059579,-0.1350856,1.639215,NA,NA,NotTracked,NotTracked,
0.9589844,-0.2612305,0.1044922,0.8554688,0.4389648,0.2016602,-6,-3,-1,-2,-2,-2,-2,-10,0,0,-1,-2,-2,-4,-3,0,-0.3125,-0.3125,-0.3125,2.1875,2.1875,2.1875,3.089424,2.940826,4.988406,6.79193,3.290775,4.816769,-0.2523792,-0.4216092,1.506872,0.2052008,-0.4297303,1.525589,-0.003896204,0.4278731,1.631633,-0.2924535,-0.4142866,1.513278,0.246604,-0.4247118,1.533196,-0.02134481,-0.04712266,1.63147,-0.02387972,-0.3754369,1.611754,-0.1864718,0.1451691,1.595926,-0.1078563,-0.3646181,1.571862,-0.2476685,-0.122498,1.602842,0.205715,-0.135188,1.639882,NA,NA,NotTracked,NotTracked,
0.9624023,-0.2548828,0.1113281,0.8569336,0.4331055,0.2045898,-1,-3,-1,-3,-2,-2,-3,0,0,1,0,0,0,0,-2,-2,-0.3125,-0.3125,-0.3125,1.9375,1.9375,1.9375,3.089298,2.940166,4.98846,6.792457,3.289608,4.818841,-0.2527924,-0.4216327,1.508543,0.2047949,-0.4303046,1.526735,-0.003967313,0.4278043,1.631822,-0.2938742,-0.420009,1.515887,0.2465914,-0.4271716,1.533696,-0.02138408,-0.04714679,1.631684,-0.02383785,-0.37545,1.612058,-0.1865486,0.1450936,1.596164,-0.1077802,-0.3646446,1.572278,-0.2475709,-0.1226168,1.60304,0.2055101,-0.1351518,1.640571,NA,NA,NotTracked,NotTracked,
0.9594727,-0.2602539,0.1123047,0.8608398,0.434082,0.2119141,0,-2,0,-2,0,-3,-1,-6,-2,-1,-3,-1,-1,-1,-1,-1,-0.0625,-0.0625,-0.0625,3.25,3.25,3.25,3.088148,2.938922,4.989393,6.792822,3.28887,4.822564,-0.2523279,-0.4222408,1.50916,0.2051528,-0.4305625,1.5276,-0.004002486,0.4277751,1.631893,-0.2935821,-0.4234115,1.516804,0.2478077,-0.4298626,1.538667,-0.02147528,-0.04719515,1.631952,-0.02383727,-0.3755067,1.612331,-0.1866313,0.144956,1.596392,-0.1077511,-0.3647185,1.572639,-0.2474842,-0.1227671,1.603517,0.2053528,-0.1352436,1.640948,NA,NA,NotTracked,NotTracked,
0.9614258,-0.2568359,0.1152344,0.8652344,0.4287109,0.2060547,-2,-2,-2,-2,-1,-2,-2,-4,0,0,0,0,-1,-2,-1,-1,-2.125,-2.125,-2.125,3,3,3,3.084344,2.93827,4.992099,6.793654,3.287958,4.825294,-0.2519335,-0.4219557,1.509696,0.2044122,-0.4303857,1.528115,-0.004035203,0.4277479,1.631933,-0.2924627,-0.4313054,1.5127,0.2466026,-0.4265503,1.532027,-0.02145334,-0.04722469,1.632106,-0.02381723,-0.3755446,1.61255,-0.1866716,0.1449499,1.596686,-0.1077377,-0.3647732,1.57286,-0.2474339,-0.1227971,1.603771,0.2052489,-0.13528,1.641138,NA,NA,NotTracked,NotTracked,
0.9599609,-0.2529297,0.1040039,0.8569336,0.4287109,0.1962891,-5,-1,-1,0,2,0,3,8,-1,-2,-1,0,-2,-4,3,-2,-2,-2,-2,3.375,3.375,3.375,3.080519,2.938078,4.99388,6.79549,3.288105,4.827279,-0.252336,-0.4222848,1.509746,0.2053244,-0.430369,1.527621,-0.004156633,0.4278253,1.632317,-0.2940961,-0.4225034,1.513276,0.2473305,-0.4263147,1.532324,-0.02142044,-0.04731146,1.632358,-0.02371975,-0.3756607,1.612887,-0.1867215,0.1449083,1.596945,-0.1076286,-0.3649107,1.573253,-0.2472788,-0.1228492,1.604393,0.2051245,-0.1353526,1.64136,NA,NA,NotTracked,NotTracked,
0.9580078,-0.2504883,0.1157227,0.859375,0.4179688,0.206543,-6,-2,-1,-1,-2,-3,-1,-11,-1,1,1,-2,-2,-2,5,0,-3.3125,-3.3125,-3.3125,2.5625,2.5625,2.5625,3.075959,2.937891,4.995826,6.796368,3.288327,4.829545,-0.2532944,-0.4228864,1.510569,0.2053062,-0.4305365,1.526966,-0.004189203,0.4278314,1.632384,-0.293801,-0.4220701,1.51547,0.2473988,-0.4278676,1.532136,-0.02136957,-0.04734952,1.632502,-0.023586,-0.3756924,1.613121,-0.1867944,0.1449148,1.597168,-0.1075285,-0.3649203,1.573409,-0.2472541,-0.1228637,1.604624,0.2051306,-0.1353534,1.641479,NA,NA,NotTracked,NotTracked,
0.9570313,-0.2519531,0.1147461,0.8662109,0.4179688,0.203125,0,1,0,-3,-1,-2,-3,-8,0,-1,1,0,-1,2,-2,-1,-2,-2,-2,3.8125,3.8125,3.8125,3.070369,2.938101,4.999063,6.796809,3.289051,4.833456,-0.2524851,-0.4219123,1.509793,0.205403,-0.4298854,1.527341,-0.00419592,0.4278025,1.632402,-0.2940526,-0.4224239,1.512262,0.2464286,-0.4242407,1.531187,-0.02124428,-0.04740782,1.632761,-0.02348462,-0.3756836,1.613316,-0.18677,0.1449125,1.597355,-0.1074348,-0.3649129,1.573554,-0.2471532,-0.1228822,1.604822,0.2050942,-0.1353718,1.641589,NA,NA,NotTracked,NotTracked,
0.9594727,-0.2446289,0.1015625,0.8632813,0.4199219,0.2016602,2,-1,-3,-3,-1,-2,1,2,-2,-1,-2,-1,1,8,-1,-2,-0.6875,-0.6875,-0.6875,2.375,2.375,2.375,3.063496,2.937825,5.00559,6.796004,3.290154,4.83786,-0.253123,-0.4221522,1.510478,0.204966,-0.4300551,1.526153,-0.00420177,0.4277911,1.632458,-0.2937086,-0.4259934,1.51206,0.2465493,-0.4234018,1.530982,-0.0212158,-0.04740522,1.632797,-0.02346328,-0.375674,1.613336,-0.1867595,0.1449199,1.597374,-0.107416,-0.3648977,1.573574,-0.2470795,-0.12287,1.605035,0.2051233,-0.1353798,1.641628,NA,NA,NotTracked,NotTracked,
0.9599609,-0.2456055,0.1083984,0.859375,0.4169922,0.206543,-4,-2,-2,0,1,1,1,-1,-2,0,-1,-2,0,-4,-7,0,-1.375,-1.375,-1.375,3.6875,3.6875,3.6875,3.055056,2.936952,5.013114,6.794646,3.29023,4.843407,-0.2546662,-0.4221656,1.510561,0.2044332,-0.4296292,1.526738,-0.004193304,0.4277155,1.63268,-0.2951283,-0.4089103,1.518259,0.2476944,-0.4275606,1.532631,-0.02116218,-0.04743551,1.632948,-0.0234527,-0.375664,1.613477,-0.1867329,0.1449312,1.597511,-0.1074033,-0.3648876,1.573753,-0.2470136,-0.1228305,1.605535,0.2052412,-0.1354772,1.641739,NA,NA,NotTracked,NotTracked,
0.9555664,-0.2460938,0.1079102,0.8691406,0.4111328,0.2041016,-1,0,0,-1,0,-2,-3,-6,1,-2,-1,-1,-1,-5,2,-1,-1.3125,-1.3125,-1.3125,2.4375,2.4375,2.4375,3.052794,2.936261,5.014765,6.790485,3.289437,4.853243,-0.2545463,-0.4233686,1.510451,0.2051703,-0.4278007,1.527373,-0.004148847,0.4277112,1.63273,-0.2950891,-0.4172301,1.517977,0.2478258,-0.4277669,1.534175,-0.02109526,-0.04745734,1.633061,-0.02334888,-0.3756592,1.613591,-0.1867166,0.1449294,1.597572,-0.1073072,-0.3648996,1.573866,-0.2469867,-0.1227892,1.606033,0.205267,-0.1355424,1.641775,NA,NA,NotTracked,NotTracked,
0.9609375,-0.246582,0.1103516,0.8666992,0.4150391,0.2016602,-2,-1,0,0,0,1,-1,2,-3,-2,-2,-2,0,-4,-1,-7,-0.6875,-0.6875,-0.6875,3.625,3.625,3.625,3.047065,2.934623,5.019466,6.787628,3.287592,4.860444,-0.254071,-0.4214874,1.511711,0.2042908,-0.4277936,1.527786,-0.004114632,0.4276941,1.632775,-0.2954833,-0.4032745,1.519367,0.2486976,-0.4347773,1.538875,-0.02101842,-0.04743545,1.633171,-0.02322117,-0.3756506,1.613646,-0.1844829,0.1451853,1.598032,-0.107189,-0.3648805,1.57392,-0.2467213,-0.1221095,1.606125,0.205366,-0.135572,1.641797,NA,NA,NotTracked,NotTracked,
0.9599609,-0.2407227,0.1025391,0.859375,0.4121094,0.1992188,1,0,-2,-1,-2,-2,-1,4,-2,-2,-3,1,0,-2,-3,-1,-0.5625,-0.5625,-0.5625,4.0625,4.0625,4.0625,3.04239,2.933219,5.02471,6.786843,3.286638,4.864128,-0.2545534,-0.4212946,1.511678,0.2046012,-0.4274735,1.526935,-0.004082675,0.4276735,1.632818,-0.2947344,-0.4134406,1.515871,0.2467059,-0.4309146,1.531822,-0.02090096,-0.04748064,1.633242,-0.02308283,-0.3757088,1.613679,-0.1845737,0.1451685,1.598151,-0.1070558,-0.3649454,1.573929,-0.2467172,-0.1221585,1.606146,0.2054485,-0.1355616,1.641807,NA,NA,NotTracked,NotTracked,
0.9648438,-0.2475586,0.1147461,0.8652344,0.4150391,0.2084961,4,-2,0,-2,-1,-2,-4,-10,1,-1,1,0,-1,-4,-2,-2,-1.0625,-1.0625,-1.0625,4.125,4.125,4.125,3.040856,2.932033,5.025477,6.782848,3.283374,4.876191,-0.2558022,-0.4216276,1.512012,0.2042284,-0.4274426,1.528415,-0.004007746,0.4276298,1.632874,-0.2951869,-0.4120337,1.517199,0.2446725,-0.4293255,1.528648,-0.02086305,-0.04747029,1.633306,-0.02304792,-0.3756752,1.61373,-0.1846395,0.1451981,1.598254,-0.1070271,-0.3649183,1.573982,-0.2467037,-0.1221353,1.606369,0.205578,-0.1354781,1.641939,NA,NA,NotTracked,NotTracked,
0.9550781,-0.2475586,0.1040039,0.8603516,0.4116211,0.2021484,-1,0,-1,-2,0,-1,-2,1,0,1,-2,-1,-1,0,-2,-2,0,0,0,2.625,2.625,2.625,3.039955,2.931222,5.026392,6.780272,3.28037,4.882877,-0.2543337,-0.4208361,1.513313,0.2044606,-0.4279415,1.528943,-0.003870526,0.4275959,1.633001,-0.2957281,-0.4354579,1.511125,0.2471611,-0.4287112,1.534707,-0.02077269,-0.04744244,1.633356,-0.02282036,-0.375578,1.613707,-0.1847246,0.1452082,1.598316,-0.1068442,-0.3648429,1.573982,-0.246831,-0.1220753,1.606808,0.2056924,-0.1352556,1.641959,NA,NA,NotTracked,NotTracked,
0.9624023,-0.2495117,0.1030273,0.862793,0.4057617,0.2060547,3,2,-1,-3,-4,0,1,-2,-1,0,-1,1,-1,1,-4,1,-1.5,-1.5,-1.5,1.4375,1.4375,1.4375,3.038518,2.930395,5.027419,6.775487,3.278132,4.889863,-0.2559626,-0.4216001,1.513623,0.2037373,-0.4274489,1.529942,-0.00380011,0.4275575,1.633146,-0.2952784,-0.4234807,1.514355,0.2468451,-0.4295531,1.535611,-0.02074628,-0.04742235,1.633417,-0.02277701,-0.3755752,1.613724,-0.1848279,0.1451904,1.598418,-0.1067911,-0.3648357,1.574,-0.2468296,-0.1220914,1.607156,0.2057968,-0.1352607,1.641997,NA,NA,NotTracked,NotTracked,
0.9584961,-0.2470703,0.1044922,0.8632813,0.4067383,0.2084961,2,2,0,0,-1,1,2,16,-1,0,-1,-1,2,-3,-8,-1,-1,-1,-1,2,2,2,3.037313,2.928903,5.027521,6.77143,3.276308,4.896853,-0.2560582,-0.4221124,1.513278,0.2035016,-0.4271361,1.530038,-0.003732921,0.4275589,1.633181,-0.2953667,-0.4257793,1.514643,0.2467972,-0.4256721,1.536771,-0.02073145,-0.04741102,1.633428,-0.0227399,-0.375571,1.613735,-0.1848247,0.1451916,1.598432,-0.1067516,-0.3648472,1.574031,-0.2468369,-0.122077,1.60727,0.2058313,-0.1352527,1.641987,NA,NA,NotTracked,NotTracked,
0.953125,-0.2470703,0.1005859,0.8623047,0.4130859,0.2050781,3,1,0,0,1,0,0,1,-1,-1,0,-1,1,-1,-1,-1,-0.1875,-0.1875,-0.1875,2,2,2,3.038444,2.927958,5.026565,6.770021,3.27547,4.899784,-0.2550458,-0.4211811,1.514578,0.2027951,-0.4276021,1.529719,-0.003660524,0.4275309,1.633158,-0.295707,-0.4176498,1.518274,0.2468634,-0.427532,1.53526,-0.02069712,-0.04738996,1.633443,-0.02268201,-0.3755428,1.61375,-0.1848463,0.14521,1.598453,-0.1066977,-0.3648259,1.574046,-0.2468762,-0.1220269,1.607548,0.2060048,-0.1351686,1.641983,NA,NA,NotTracked,NotTracked,
0.9526367,-0.2456055,0.1049805,0.8676758,0.4165039,0.2167969,-3,-3,-1,0,-2,1,-1,-1,0,1,0,0,-3,-4,7,-2,0.0625,0.0625,0.0625,1,1,1,3.039844,2.927989,5.025136,6.764147,3.274027,4.908587,-0.25546,-0.422418,1.515033,0.2029066,-0.4273016,1.531349,-0.003531062,0.4275113,1.633266,-0.2947376,-0.4130467,1.520318,0.2443109,-0.422851,1.53789,-0.02062413,-0.04737302,1.633471,-0.0226142,-0.3755263,1.613743,-0.1848571,0.145216,1.598469,-0.1066552,-0.3648094,1.574039,-0.2468395,-0.1220018,1.607848,0.2061371,-0.1352387,1.642116,NA,NA,NotTracked,NotTracked,
0.9526367,-0.2456055,0.1049805,0.8676758,0.4165039,0.2167969,-3,-3,-1,0,-2,1,-1,-1,0,1,0,0,-3,-4,7,-2,0.0625,0.0625,0.0625,1,1,1,3.039844,2.927989,5.025136,6.764147,3.274027,4.908587,-0.2549486,-0.4208447,1.515096,0.2011519,-0.4273749,1.531114,-0.003337586,0.4274764,1.633316,-0.2956959,-0.4164946,1.519268,0.2457645,-0.4279219,1.535024,-0.02055049,-0.04734052,1.633491,-0.02253449,-0.3755287,1.613722,-0.1848441,0.1452363,1.598464,-0.1065852,-0.36481,1.573976,-0.2468356,-0.1219784,1.607855,0.2061958,-0.1353163,1.642147,NA,NA,NotTracked,NotTracked,
0.9541016,-0.2470703,0.1035156,0.8623047,0.4082031,0.2055664,-3,-1,-3,-2,-1,-1,-3,-10,-3,-2,0,-2,-1,-1,-2,-1,-0.875,-0.875,-0.875,0.4375,0.4375,0.4375,3.04052,2.927877,5.024519,6.760457,3.272857,4.91315,-0.255123,-0.4215548,1.516101,0.2014706,-0.4276248,1.532044,-0.003197606,0.4274541,1.633384,-0.2962892,-0.4336299,1.513667,0.2455108,-0.4274098,1.537259,-0.02050893,-0.04731604,1.633524,-0.02250377,-0.3755039,1.613736,-0.1848878,0.1453485,1.59856,-0.1065468,-0.3647738,1.573978,-0.2468005,-0.1218813,1.607994,0.206222,-0.1351807,1.642334,NA,NA,NotTracked,NotTracked,
0.9599609,-0.2480469,0.1054688,0.8613281,0.4047852,0.2011719,3,0,-1,-1,0,0,-2,-3,-1,-3,-1,-1,-1,-4,-8,-3,1.25,1.25,1.25,0.625,0.625,0.625,3.044312,2.928019,5.021118,6.757776,3.271868,4.917259,-0.2545802,-0.4214906,1.515311,0.2008142,-0.4270164,1.532084,-0.003075103,0.4274171,1.63337,-0.294048,-0.4118387,1.519839,0.2427673,-0.4272706,1.533029,-0.02050015,-0.04730885,1.633532,-0.02248777,-0.3755132,1.613726,-0.1848783,0.1453396,1.598573,-0.1065343,-0.3647899,1.573958,-0.2467866,-0.1218558,1.60833,0.2062772,-0.135193,1.642325,NA,NA,NotTracked,NotTracked,
0.9575195,-0.2402344,0.1040039,0.8618164,0.4038086,0.2124023,0,-1,-2,-1,-2,-1,0,-4,0,-1,-2,1,-2,0,-1,-1,-0.25,-0.25,-0.25,0.4375,0.4375,0.4375,3.048507,2.928663,5.018204,6.756892,3.271432,4.918524,-0.2543889,-0.4212989,1.516175,0.2002474,-0.4267926,1.532516,-0.003029255,0.4273737,1.633443,-0.2940522,-0.4075092,1.520548,0.2430611,-0.4251955,1.535634,-0.02041241,-0.04728838,1.633539,-0.02246447,-0.3755146,1.613724,-0.1848696,0.1453587,1.59863,-0.1065231,-0.3647857,1.573949,-0.2468826,-0.12177,1.608762,0.2063383,-0.1352055,1.642347,NA,NA,NotTracked,NotTracked,
0.9609375,-0.2480469,0.09667969,0.875,0.4125977,0.2143555,-1,-1,-2,-1,0,-2,-3,-2,-1,-2,0,-1,-1,1,1,-3,0.3125,0.3125,0.3125,-0.8125,-0.8125,-0.8125,3.04863,2.928331,5.017733,6.756685,3.271551,4.91883,-0.2554193,-0.4207997,1.515298,0.1997174,-0.4269863,1.532148,-0.002966292,0.4273588,1.633412,-0.2956618,-0.4064184,1.524731,0.2416479,-0.4388105,1.535616,-0.02036711,-0.04724324,1.633598,-0.02237761,-0.3754687,1.613796,-0.1848894,0.1453979,1.598649,-0.1063868,-0.3647446,1.574077,-0.2468097,-0.1217515,1.608798,0.2063863,-0.1352405,1.642339,NA,NA,NotTracked,NotTracked,
0.9536133,-0.2436523,0.09765625,0.8662109,0.4047852,0.2011719,-3,-3,-2,-3,1,-1,-2,1,1,0,-2,-2,-2,-1,-2,-1,0.3125,0.3125,0.3125,-1.1875,-1.1875,-1.1875,3.049427,2.927886,5.016646,6.7562,3.271404,4.918005,-0.2544575,-0.4206139,1.516149,0.1999487,-0.4271514,1.532493,-0.002791464,0.4273313,1.633321,-0.2960633,-0.4383438,1.5186,0.243626,-0.4286283,1.535564,-0.02028066,-0.04725813,1.633568,-0.02229375,-0.3754563,1.613755,-0.1848848,0.1454507,1.598718,-0.1063211,-0.3647456,1.574018,-0.2467165,-0.1217079,1.608979,0.2065273,-0.1351755,1.642328,NA,NA,NotTracked,NotTracked,
0.9575195,-0.2397461,0.1020508,0.871582,0.4008789,0.2055664,-2,-2,-2,-1,-1,0,-1,-4,0,1,0,-1,0,-2,-3,-1,0,0,0,-2.1875,-2.1875,-2.1875,3.050213,2.928138,5.016283,6.755329,3.271335,4.916868,-0.2540862,-0.4213116,1.51593,0.1994069,-0.4270221,1.532334,-0.002689311,0.4272821,1.633196,-0.2940407,-0.4156961,1.521619,0.2436283,-0.4282248,1.536419,-0.02026999,-0.04724773,1.633526,-0.02225883,-0.3754413,1.613713,-0.1849179,0.1454745,1.598733,-0.1063091,-0.3647346,1.573959,-0.2466848,-0.1216926,1.609059,0.2065539,-0.135203,1.642321,NA,NA,NotTracked,NotTracked,
0.9560547,-0.246582,0.1015625,0.8662109,0.3984375,0.2055664,0,-4,-2,-1,-1,-2,0,3,-1,-1,-1,0,-1,-1,1,-1,-0.4375,-0.4375,-0.4375,-0.875,-0.875,-0.875,3.051722,2.928535,5.015108,6.754005,3.271044,4.917129,-0.2532277,-0.4207085,1.518125,0.1993884,-0.4271584,1.532988,-0.002651793,0.4272417,1.633209,-0.2948422,-0.4157447,1.524532,0.2436846,-0.4312801,1.53616,-0.02026662,-0.04724837,1.63353,-0.02225634,-0.37545,1.613718,-0.1849415,0.1454756,1.598781,-0.1063109,-0.3647499,1.573967,-0.2465705,-0.121701,1.609316,0.2065627,-0.1352215,1.64233,NA,NA,NotTracked,NotTracked,
0.9584961,-0.2407227,0.09716797,0.8666992,0.40625,0.2089844,7,0,1,2,2,2,7,40,-1,0,0,-2,-2,-2,-1,0,0.9375,0.9375,0.9375,-1.4375,-1.4375,-1.4375,3.05252,2.928091,5.014019,6.754701,3.271392,4.914436,-0.2543324,-0.4209079,1.517603,0.1992421,-0.4270865,1.532332,-0.002597504,0.4272065,1.633167,-0.2956494,-0.4139279,1.526353,0.2438974,-0.4292593,1.536075,-0.02025402,-0.04724871,1.633537,-0.02225003,-0.37545,1.613723,-0.1849771,0.1455051,1.598835,-0.1063005,-0.3647579,1.574009,-0.2465106,-0.1216876,1.60943,0.2065721,-0.1352444,1.64234,NA,NA,NotTracked,NotTracked,
0.9633789,-0.2392578,0.09863281,0.8652344,0.4013672,0.2109375,-7,-8,-2,-2,-2,-1,-3,-8,0,-1,-1,-3,-2,1,2,-1,0.25,0.25,0.25,-1.6875,-1.6875,-1.6875,3.053431,2.928011,5.013183,6.754082,3.271281,4.912608,-0.2525712,-0.4210195,1.517213,0.1995267,-0.4268072,1.532176,-0.002578538,0.4271463,1.633062,-0.2940266,-0.4165123,1.522366,0.2423609,-0.4260773,1.533918,-0.02020731,-0.04730044,1.633536,-0.02223954,-0.3754586,1.61373,-0.1850008,0.145507,1.598848,-0.1062909,-0.3647615,1.574016,-0.246312,-0.1217203,1.609607,0.2065401,-0.1353414,1.64234,NA,NA,NotTracked,NotTracked,
0.9672852,-0.2416992,0.09912109,0.8686523,0.4018555,0.2084961,0,1,-1,1,-2,-2,-1,0,0,0,-1,1,1,-3,-2,0,1.125,1.125,1.125,-1.4375,-1.4375,-1.4375,3.056712,2.928737,5.011107,6.754392,3.270925,4.910067,-0.2521398,-0.4217691,1.516176,0.1995788,-0.4272815,1.531619,-0.002575485,0.4271404,1.632987,-0.2946599,-0.419505,1.521955,0.2430722,-0.4277482,1.534786,-0.02020206,-0.04730764,1.633535,-0.02223855,-0.3754678,1.613735,-0.1850403,0.1455071,1.598858,-0.1062892,-0.3647805,1.574037,-0.2462515,-0.1217404,1.60965,0.2065192,-0.1354137,1.642357,NA,NA,NotTracked,NotTracked,
