ALX,ALY,ALZ,ARX,ARY,ARZ,EMG0L,EMG1L,EMG2L,EMG3L,EMG4L,EMG5L,EMG6L,EMG7L,EMG0R,EMG1R,EMG2R,EMG3R,EMG4R,EMG5R,EMG6R,EMG7R,GLX,GLY,GLZ,GRX,GRY,GRZ,ORL,OPL,OYL,ORR,OPR,OYR,LHNX,LHNY,LHNZ,RHNX,RHNY,RHNZ,HX,HY,HZ,LTX,LTY,LTZ,RTX,RTY,RTZ,SpineMidX,SpineMidY,SpineMidZ,SpineBaseX,SpineBaseY,SpineBaseZ,ShoulderLeftX,ShoulderLeftY,ShoulderLeftZ,ShoulderRightX,ShoulderRightY,ShoulderRightZ,ElbowLeftX,ElbowLeftY,ElbowLeftZ,ElbowRightX,ElbowRightY,ElbowRightZ,Myo_Pose_left,Myo_Pose_Right,Kinect_pose_left,Kinect_pose_right
0.9638672,-0.2158203,0.1020508,0.8666992,0.4306641,0.1870117,0,0,-1,1,0,-2,-2,-2,0,0,0,-1,0,-1,0,0,7.625,7.625,7.625,-0.4375,-0.4375,-0.4375,3.160052,2.898678,7.602253,6.845414,3.311684,2.162573,-0.1435084,-0.4238113,1.545374,0.3055295,-0.4265479,1.535298,0.08514622,0.4273835,1.652369,-0.08957649,-0.4024329,1.518294,0.3440928,-0.4188257,1.530557,0.07238821,-0.02921185,1.645833,0.07019628,-0.3413082,1.620706,-0.1013957,0.1523378,1.622479,-0.01096844,-0.332319,1.582072,-0.1556033,-0.130012,1.632907,0.3073559,-0.1315467,1.659384,NA,NA,NotTracked,NotTracked,
0.9638672,-0.2158203,0.1020508,0.8666992,0.4306641,0.1870117,0,0,-1,1,0,-2,-2,-2,2,-5,1,-2,0,-1,-1,-2,7.625,7.625,7.625,-0.4375,-0.4375,-0.4375,3.160052,2.898678,7.602253,6.845414,3.311684,2.162573,-0.1438543,-0.4241548,1.546265,0.3060087,-0.4268155,1.536539,0.0852555,0.4274084,1.652484,-0.08961803,-0.3964804,1.520182,0.3365926,-0.4230826,1.519837,0.07245092,-0.02920628,1.645864,0.07020167,-0.3412982,1.620744,-0.1012224,0.1523993,1.622621,-0.01096501,-0.3323117,1.582096,-0.1555838,-0.1300818,1.632975,0.3073854,-0.1315456,1.659412,NA,NA,NotTracked,NotTracked,
0.9638672,-0.2158203,0.1020508,0.8530273,0.440918,0.2026367,0,0,-1,1,0,-2,-2,-2,-1,-2,-1,-1,-1,-9,-2,0,7.625,7.625,7.625,-1.3125,-1.3125,-1.3125,3.160052,2.898678,7.602253,6.844057,3.311719,2.161991,-0.1440493,-0.4234014,1.544886,0.305309,-0.4260896,1.536191,0.08536597,0.4273687,1.65246,-0.08966352,-0.3969903,1.519588,0.3388278,-0.4108187,1.523071,0.07245938,-0.02922457,1.645876,0.07020774,-0.3413302,1.620764,-0.1011324,0.1524141,1.622621,-0.01096516,-0.3323408,1.582141,-0.1555257,-0.1300953,1.632992,0.3074017,-0.1315289,1.659412,NA,NA,NotTracked,NotTracked,
0.9638672,-0.2158203,0.1020508,0.8588867,0.440918,0.1977539,0,0,-1,1,0,-2,-2,-2,-3,-3,-3,-1,1,1,-1,-2,7.625,7.625,7.625,-1.25,-1.25,-1.25,3.160052,2.898678,7.602253,6.843147,3.311904,2.162139,-0.1440258,-0.4229776,1.544534,0.3056788,-0.426403,1.535751,0.08547884,0.4273494,1.652413,-0.08991331,-0.4157762,1.518974,0.344157,-0.4131027,1.531123,0.07247882,-0.02921278,1.645897,0.07023645,-0.3413183,1.620774,-0.1010636,0.1524489,1.622581,-0.0109316,-0.3323216,1.582131,-0.1555187,-0.1300952,1.633034,0.3074066,-0.1315336,1.659432,NA,NA,NotTracked,NotTracked,
0.9638672,-0.2158203,0.1020508,0.8535156,0.4404297,0.1850586,0,0,-1,1,0,-2,-2,-2,0,0,0,0,0,-2,1,-1,7.625,7.625,7.625,0.125,0.125,0.125,3.160052,2.898678,7.602253,6.843676,3.31189,2.161611,-0.1437701,-0.4237097,1.544297,0.3067107,-0.4264472,1.537266,0.08558115,0.4273493,1.652434,-0.08943614,-0.4039909,1.519345,0.3446191,-0.4130557,1.532628,0.07254549,-0.02917713,1.645942,0.07030043,-0.3412585,1.620813,-0.1008887,0.1525005,1.622639,-0.01086254,-0.3322507,1.582141,-0.1554285,-0.1300962,1.63296,0.3075013,-0.1315348,1.659634,NA,NA,NotTracked,NotTracked,
0.9638672,-0.2158203,0.1020508,0.8549805,0.4399414,0.1958008,0,0,-1,1,0,-2,-2,-2,-3,-2,-2,2,-2,-1,-1,0,7.625,7.625,7.625,0.9375,0.9375,0.9375,3.160052,2.898678,7.602253,6.843671,3.311638,2.161644,-0.1436027,-0.4232367,1.542923,0.3057045,-0.4259773,1.535716,0.08564375,0.4273449,1.652399,-0.09006704,-0.3869703,1.522475,0.3367253,-0.4087525,1.519831,0.0725916,-0.02920597,1.645959,0.07031668,-0.3412889,1.620808,-0.100875,0.1525069,1.622638,-0.01085153,-0.3322744,1.582153,-0.1553574,-0.1301071,1.632897,0.3074983,-0.1314978,1.659656,NA,NA,NotTracked,NotTracked,
0.9638672,-0.2158203,0.1020508,0.8564453,0.4399414,0.1972656,0,0,-1,1,0,-2,-2,-2,-1,-1,0,-2,-2,-3,0,1,7.625,7.625,7.625,1.5,1.5,1.5,3.160052,2.898678,7.602253,6.844148,3.311168,2.162841,-0.1432273,-0.4236498,1.543148,0.3062525,-0.4268724,1.536974,0.08574098,0.4273731,1.652401,-0.08981737,-0.3986987,1.520336,0.3430348,-0.4132396,1.529118,0.07266091,-0.02917424,1.64598,0.07035506,-0.3412592,1.620836,-0.1008276,0.152531,1.622638,-0.01080388,-0.3322385,1.582174,-0.1553378,-0.1301016,1.632888,0.3075186,-0.1314952,1.659672,NA,NA,NotTracked,NotTracked,
0.9638672,-0.2158203,0.1020508,0.8540039,0.4375,0.1850586,0,0,-1,1,0,-2,-2,-2,-1,-1,1,-2,1,1,-1,-1,7.625,7.625,7.625,-0.8125,-0.8125,-0.8125,3.160052,2.898678,7.602253,6.84619,3.311815,2.160892,-0.1432829,-0.4233274,1.543193,0.3061792,-0.4260952,1.537086,0.08581616,0.4273299,1.652385,-0.09015297,-0.3926395,1.519784,0.346467,-0.4133734,1.534385,0.07267836,-0.02918462,1.645997,0.07037082,-0.3412654,1.620842,-0.1008292,0.15251,1.622638,-0.01078227,-0.3322612,1.582164,-0.1552952,-0.1300555,1.632832,0.307538,-0.1314955,1.659688,NA,NA,NotTracked,NotTracked,
0.9638672,-0.2158203,0.1020508,0.8525391,0.4453125,0.1923828,0,0,-1,1,0,-2,-2,-2,0,-2,1,-1,1,1,0,0,7.625,7.625,7.625,0.4375,0.4375,0.4375,3.160052,2.898678,7.602253,6.847304,3.313418,2.159645,-0.1428509,-0.4235772,1.542747,0.3068352,-0.4267907,1.536187,0.08590014,0.4273624,1.652387,-0.08898497,-0.41419,1.518143,0.3386369,-0.4231161,1.518642,0.07273224,-0.02918193,1.64599,0.07039698,-0.3412603,1.62085,-0.1008093,0.1525265,1.622663,-0.01075429,-0.3322546,1.582166,-0.1552434,-0.1300985,1.632777,0.3075692,-0.1314782,1.659707,NA,NA,NotTracked,NotTracked,
0.9638672,-0.2158203,0.1020508,0.8535156,0.4418945,0.190918,0,0,-1,1,0,-2,-2,-2,-1,0,0,-2,0,0,-2,-1,7.625,7.625,7.625,1.125,1.125,1.125,3.160052,2.898678,7.602253,6.848767,3.313909,2.158891,-0.1438433,-0.4238705,1.542055,0.3075753,-0.425976,1.535443,0.0859639,0.4273558,1.652471,-0.08843105,-0.4317647,1.514421,0.3516218,-0.4098738,1.541667,0.07275983,-0.02914868,1.646004,0.07044555,-0.3412324,1.620839,-0.1007037,0.1525268,1.622625,-0.01070078,-0.332209,1.582139,-0.1551647,-0.130347,1.632701,0.307692,-0.131432,1.659769,NA,NA,NotTracked,NotTracked,
0.9638672,-0.2158203,0.1020508,0.8461914,0.4433594,0.1899414,0,0,-1,1,0,-2,-2,-2,0,2,0,1,0,-1,-1,0,7.625,7.625,7.625,2.0625,2.0625,2.0625,3.160052,2.898678,7.602253,6.851134,3.315487,2.158474,-0.1434425,-0.4236387,1.542869,0.308621,-0.425773,1.534376,0.0860037,0.4273545,1.652523,-0.0885358,-0.4155255,1.516588,0.3432624,-0.4103964,1.523682,0.07277976,-0.02914842,1.646008,0.07045175,-0.3412311,1.620841,-0.1006474,0.1525214,1.62259,-0.01069126,-0.3322064,1.582147,-0.1551336,-0.1303439,1.632696,0.3077304,-0.1314025,1.659788,NA,NA,NotTracked,NotTracked,
0.9638672,-0.2158203,0.1020508,0.8461914,0.4433594,0.1899414,0,0,-1,1,0,-2,-2,-2,-3,-1,-2,0,0,-3,-1,-1,7.625,7.625,7.625,2.0625,2.0625,2.0625,3.160052,2.898678,7.602253,6.851134,3.315487,2.158474,-0.1436122,-0.4235902,1.543141,0.3088308,-0.4254398,1.534401,0.08602522,0.4273595,1.652522,-0.08900152,-0.4190715,1.517422,0.3418594,-0.4195534,1.519254,0.07280176,-0.02917112,1.646026,0.0704982,-0.3412586,1.620848,-0.1005742,0.1524891,1.622551,-0.01064194,-0.3322482,1.582181,-0.1551183,-0.1304441,1.632686,0.3078629,-0.1313261,1.659767,NA,NA,NotTracked,NotTracked,
0.9638672,-0.2158203,0.1020508,0.8510742,0.4438477,0.1958008,0,0,-1,1,0,-2,-2,-2,-1,0,-1,-1,-1,-1,0,-1,7.625,7.625,7.625,2.4375,2.4375,2.4375,3.160052,2.898678,7.602253,6.856338,3.317343,2.157588,-0.144042,-0.423882,1.542646,0.3093148,-0.4261748,1.534,0.08604658,0.4273672,1.652521,-0.08912521,-0.447033,1.519375,0.3432198,-0.4118065,1.52289,0.07282168,-0.02917452,1.646025,0.07051255,-0.3412545,1.620844,-0.1005521,0.1524991,1.622527,-0.01062861,-0.3322439,1.582181,-0.1550539,-0.1303421,1.632676,0.3079436,-0.1313006,1.659706,NA,NA,NotTracked,NotTracked,
0.9638672,-0.2158203,0.1020508,0.8603516,0.4428711,0.1894531,0,0,-1,1,0,-2,-2,-2,3,4,-3,-1,0,-2,-2,-1,7.625,7.625,7.625,1.875,1.875,1.875,3.160052,2.898678,7.602253,6.857889,3.318294,2.158195,-0.1441078,-0.4240063,1.542755,0.3093179,-0.4255321,1.532225,0.08610477,0.427352,1.65253,-0.08873414,-0.414624,1.517441,0.3443791,-0.4110285,1.522836,0.07282127,-0.02918345,1.646038,0.07051949,-0.3412582,1.620885,-0.1005486,0.1525768,1.622499,-0.01063349,-0.3322695,1.582244,-0.1550392,-0.1302887,1.632731,0.3081712,-0.1312119,1.659559,NA,NA,NotTracked,NotTracked,
0.9638672,-0.2158203,0.1020508,0.9233398,0.4770508,0.1777344,0,0,-1,1,0,-2,-2,-2,2,2,-1,-1,-2,-2,1,0,7.625,7.625,7.625,5.1875,5.1875,5.1875,3.160052,2.898678,7.602253,6.851276,3.324661,2.174118,-0.144298,-0.4236811,1.542183,0.3079934,-0.425111,1.530818,0.08611717,0.4273421,1.652519,-0.08955402,-0.3903653,1.518146,0.3457452,-0.4147633,1.526281,0.07283049,-0.02918442,1.646037,0.07052909,-0.3412439,1.620899,-0.1005314,0.1525837,1.62243,-0.01061293,-0.3322444,1.582267,-0.1550422,-0.1302602,1.632725,0.3082728,-0.1311415,1.659434,NA,NA,NotTracked,NotTracked,
0.9638672,-0.2158203,0.1020508,0.9047852,0.4741211,0.1586914,0,0,-1,1,0,-2,-2,-2,18,5,6,-6,-4,-5,-1,1,7.625,7.625,7.625,4.625,4.625,4.625,3.160052,2.898678,7.602253,6.842014,3.331462,2.188769,-0.1446882,-0.4234688,1.543321,0.30373,-0.422288,1.527741,0.08616015,0.4272967,1.652535,-0.09072697,-0.3893611,1.52222,0.3357345,-0.4048329,1.509929,0.07284737,-0.02917704,1.646059,0.07054594,-0.3412351,1.620914,-0.1005106,0.1526159,1.622435,-0.01059386,-0.3322304,1.582277,-0.155049,-0.1301076,1.632712,0.3085698,-0.1307843,1.659431,NA,NA,NotTracked,NotTracked,
0.9638672,-0.2158203,0.1020508,0.9941406,0.5073242,0.2924805,0,0,-1,1,0,-2,-2,-2,-15,-2,15,1,-2,5,-4,-13,7.625,7.625,7.625,-15.875,-15.875,-15.875,3.160052,2.898678,7.602253,6.772259,3.383054,2.249091,-0.1445028,-0.4239575,1.543538,0.2967699,-0.4119994,1.520585,0.08617506,0.4272822,1.652534,-0.0898623,-0.394653,1.519135,0.3320042,-0.395015,1.502659,0.07286815,-0.02915289,1.646106,0.07057609,-0.3412058,1.620936,-0.1005072,0.1526366,1.622439,-0.01056879,-0.3322116,1.582277,-0.1550231,-0.1296949,1.632978,0.3092483,-0.1298897,1.65957,NA,NA,NotTracked,NotTracked,
0.9638672,-0.2158203,0.1020508,1.016113,0.503418,0.3613281,0,0,-1,1,0,-2,-2,-2,-8,-3,-26,3,-3,0,-2,-1,7.625,7.625,7.625,-7.25,-7.25,-7.25,3.160052,2.898678,7.602253,6.733455,3.416053,2.288004,-0.1450307,-0.4239858,1.544121,0.2740349,-0.3766595,1.493943,0.08613802,0.4272647,1.652578,-0.08939666,-0.4048032,1.518038,0.3120629,-0.3433996,1.47146,0.07286125,-0.02912289,1.646127,0.07053655,-0.3411199,1.621007,-0.1005097,0.1526301,1.622492,-0.01060879,-0.33209,1.58235,-0.1549801,-0.1295944,1.633009,0.3104932,-0.1262098,1.660312,NA,NA,NotTracked,NotTracked,
0.9638672,-0.2158203,0.1020508,0.8427734,0.8212891,0.4628906,0,0,-1,1,0,-2,-2,-2,7,-2,30,-16,-8,-5,0,0,7.625,7.625,7.625,-34.875,-34.875,-34.875,3.160052,2.898678,7.602253,6.587158,3.593385,2.432732,-0.1445419,-0.4243191,1.542925,0.2618431,-0.3538144,1.46497,0.08610817,0.4272459,1.652562,-0.08928475,-0.4113694,1.520491,0.2836097,-0.3526325,1.413556,0.07281875,-0.02906281,1.646131,0.07040893,-0.3410085,1.621015,-0.1004853,0.1526435,1.62247,-0.01075903,-0.3319281,1.582375,-0.1549465,-0.1292973,1.632969,0.3113681,-0.1152945,1.660807,NA,NA,NotTracked,NotTracked,
0.9638672,-0.2158203,0.1020508,0.8427734,0.8212891,0.4628906,0,0,-1,1,0,-2,-2,-2,-3,-5,-41,6,3,6,-2,0,7.625,7.625,7.625,-34.875,-34.875,-34.875,3.160052,2.898678,7.602253,6.587158,3.593385,2.432732,-0.1447889,-0.4241169,1.543563,0.2496558,-0.315558,1.43612,0.08606379,0.4272448,1.652573,-0.08904405,-0.4136173,1.517765,0.2861736,-0.2818142,1.408563,0.0726661,-0.02897438,1.646264,0.06958979,-0.3407528,1.621152,-0.1004329,0.1527018,1.622476,-0.01166952,-0.3314759,1.582555,-0.1547401,-0.1287098,1.633254,0.3106456,-0.1085042,1.661023,NA,NA,NotTracked,Unknown,
0.9638672,-0.2158203,0.1020508,0.675293,0.7841797,0.6855469,0,0,-1,1,0,-2,-2,-2,6,20,91,27,4,-19,3,8,7.625,7.625,7.625,-7.5,-7.5,-7.5,3.160052,2.898678,7.602253,6.457299,3.900856,2.5532,-0.1439491,-0.423539,1.541939,0.2222941,-0.2809349,1.437212,0.08601614,0.4272399,1.652537,-0.08947587,-0.445016,1.521727,0.2836565,-0.2178599,1.419949,0.07243081,-0.02893043,1.646214,0.06865755,-0.3406208,1.620963,-0.1003928,0.1526596,1.622396,-0.01258751,-0.331225,1.582455,-0.1545451,-0.1284571,1.633194,0.3089263,-0.0962767,1.659287,NA,NA,NotTracked,Unknown,
0.9638672,-0.2158203,0.1020508,0.675293,0.7841797,0.6855469,0,0,-1,1,0,-2,-2,-2,-1,18,39,-4,-9,-29,-7,7,7.625,7.625,7.625,-7.5,-7.5,-7.5,3.160052,2.898678,7.602253,6.457299,3.900856,2.5532,-0.1432702,-0.4239595,1.541544,0.2221152,-0.1318736,1.346734,0.08598972,0.4272517,1.652518,-0.08867044,-0.4046057,1.520107,0.2571695,-0.1279993,1.340913,0.07235771,-0.02874217,1.646332,0.06826974,-0.340312,1.621041,-0.1001182,0.1527332,1.622126,-0.01300439,-0.330908,1.582775,-0.1543158,-0.1267111,1.632959,0.3082631,-0.06635357,1.644264,NA,NA,NotTracked,Closed,
0.9638672,-0.2158203,0.1020508,0.02636719,0.8271484,0.6137695,0,0,-1,1,0,-2,-2,-2,6,44,48,18,7,9,4,4,7.625,7.625,7.625,-13.8125,-13.8125,-13.8125,3.160052,2.898678,7.602253,6.384815,4.713333,2.652132,-0.1427177,-0.4232717,1.540872,0.2152862,-0.05694942,1.334492,0.08599228,0.4272512,1.652522,-0.09023043,-0.3888288,1.524289,0.2309473,-0.04277901,1.298364,0.07217663,-0.02869719,1.646542,0.0679283,-0.340295,1.621217,-0.09995625,0.1526956,1.621856,-0.0136211,-0.3309481,1.583569,-0.1541062,-0.1264526,1.632839,0.322408,-0.05976899,1.582637,NA,NA,NotTracked,Unknown,
0.9638672,-0.2158203,0.1020508,-0.1279297,0.7661133,0.6459961,0,0,-1,1,0,-2,-2,-2,8,-7,-10,-5,0,1,-2,8,7.625,7.625,7.625,10.8125,10.8125,10.8125,3.160052,2.898678,7.602253,6.389207,4.90675,2.665056,-0.1415384,-0.422912,1.540403,0.2098659,0.02315986,1.34047,0.08601554,0.4271913,1.652557,-0.08870807,-0.3940251,1.525121,0.222609,0.02346912,1.297539,0.07207847,-0.02858398,1.646905,0.0679544,-0.3401516,1.621711,-0.09982509,0.1526198,1.621719,-0.01346789,-0.3309305,1.58443,-0.1539689,-0.1261468,1.632391,0.3006822,-0.07410917,1.535377,NA,NA,NotTracked,Unknown,
0.9638672,-0.2158203,0.1020508,-0.1279297,0.7661133,0.6459961,0,0,-1,1,0,-2,-2,-2,2,11,32,-1,-9,1,2,10,7.625,7.625,7.625,10.8125,10.8125,10.8125,3.160052,2.898678,7.602253,6.389207,4.90675,2.665056,-0.1413688,-0.4232611,1.539502,0.2089255,0.0972107,1.349637,0.08602323,0.4271913,1.652596,-0.0876404,-0.4075798,1.521769,0.2229743,0.1291491,1.3362,0.07207593,-0.02863701,1.647276,0.06810894,-0.3402352,1.621992,-0.09961318,0.1526251,1.620459,-0.01322511,-0.3312389,1.584911,-0.1538975,-0.1256553,1.632089,0.3032465,-0.06599625,1.534172,NA,NA,NotTracked,Unknown,
0.9638672,-0.2158203,0.1020508,-0.5708008,0.7241211,0.71875,0,0,-1,1,0,-2,-2,-2,0,-1,-12,3,-3,2,-2,-5,7.625,7.625,7.625,35.75,35.75,35.75,3.160052,2.898678,7.602253,6.502281,5.922791,2.768164,-0.1407779,-0.4223322,1.538152,0.2167643,0.1543676,1.375329,0.08598486,0.4271693,1.652673,-0.08887692,-0.3971862,1.522372,0.2209411,0.1915912,1.369111,0.07212826,-0.02868535,1.647714,0.0682255,-0.340326,1.622294,-0.09941714,0.1526333,1.620472,-0.01310513,-0.3316033,1.586576,-0.1535629,-0.1251116,1.631658,0.3090185,-0.04321574,1.525414,NA,NA,NotTracked,Unknown,
0.9638672,-0.2158203,0.1020508,-0.5957031,0.6601563,0.6943359,0,0,-1,1,0,-2,-2,-2,-3,-1,11,12,-4,-1,1,1,7.625,7.625,7.625,36.8125,36.8125,36.8125,3.160052,2.898678,7.602253,6.545165,6.114225,2.808641,-0.1396966,-0.4214747,1.534789,0.2087797,0.2509741,1.425722,0.08559291,0.4275208,1.653143,-0.08741522,-0.3988904,1.521483,0.2248784,0.2917882,1.418,0.07369473,-0.02558652,1.648616,0.06789542,-0.3387042,1.622593,-0.09769416,0.1531934,1.620607,-0.01435201,-0.3297179,1.587152,-0.1527367,-0.1177,1.630234,0.3138825,-0.0001363351,1.479508,NA,NA,NotTracked,Unknown,
0.9638672,-0.2158203,0.1020508,-0.5463867,0.5004883,0.4550781,0,0,-1,1,0,-2,-2,-2,-15,-1,4,-8,-1,-2,-8,-53,7.625,7.625,7.625,7.1875,7.1875,7.1875,3.160052,2.898678,7.602253,6.736721,6.604705,3.021002,-0.1394277,-0.4204825,1.533564,0.2075341,0.2786555,1.453054,0.08545463,0.427549,1.653329,-0.08696499,-0.3864095,1.523708,0.2001189,0.296786,1.420141,0.07404409,-0.02473511,1.64919,0.06770232,-0.3385113,1.622712,-0.09734531,0.1533516,1.619858,-0.01492771,-0.3293933,1.587428,-0.152572,-0.1170425,1.62978,0.3323005,-0.02702384,1.472827,NA,NA,NotTracked,Unknown,
0.9638672,-0.2158203,0.1020508,-0.5463867,0.5004883,0.4550781,0,0,-1,1,0,-2,-2,-2,0,-3,-7,0,1,-1,-3,0,7.625,7.625,7.625,7.1875,7.1875,7.1875,3.160052,2.898678,7.602253,6.736721,6.604705,3.021002,-0.13951,-0.4207752,1.530704,0.185517,0.3163862,1.490097,0.08523943,0.4275165,1.653402,-0.08510617,-0.4145346,1.517956,0.215686,0.342753,1.475053,0.07417525,-0.02450259,1.649334,0.06755531,-0.3384593,1.622732,-0.09448162,0.153273,1.619594,-0.01546957,-0.3292151,1.587697,-0.1524777,-0.1153954,1.629202,0.313746,0.0476474,1.43327,NA,NA,NotTracked,Unknown,
0.9638672,-0.2158203,0.1020508,-0.6772461,0.3701172,0.3095703,0,0,-1,1,0,-2,-2,-2,4,-3,6,-2,1,2,5,22,7.625,7.625,7.625,-1.875,-1.875,-1.875,3.160052,2.898678,7.602253,6.989305,6.855392,3.306986,-0.1392108,-0.4193167,1.528982,0.1838655,0.3184934,1.509768,0.08505912,0.4275278,1.653576,-0.08584391,-0.3708936,1.518833,0.2439298,0.2903499,1.444727,0.07419839,-0.02445669,1.649217,0.06728816,-0.3381963,1.622736,-0.0945371,0.1533431,1.619293,-0.01606262,-0.3288389,1.588115,-0.1522693,-0.1151481,1.628863,0.3135937,0.05379891,1.428911,NA,NA,NotTracked,Unknown,
0.9638672,-0.2158203,0.1020508,-0.4902344,0.4013672,0.2783203,0,0,-1,1,0,-2,-2,-2,1,0,0,-1,-1,-2,0,-13,7.625,7.625,7.625,-6.6875,-6.6875,-6.6875,3.160052,2.898678,7.602253,7.184968,6.944355,3.521856,-0.1390309,-0.419145,1.528331,0.1809521,0.3291124,1.525304,0.08467323,0.427529,1.654747,-0.08472015,-0.3901224,1.514471,0.1717981,0.3019067,1.578084,0.07426981,-0.0243283,1.648992,0.0669044,-0.3378803,1.622744,-0.09460405,0.1534384,1.619162,-0.01673799,-0.328609,1.588698,-0.1519724,-0.1143365,1.62872,0.3116403,0.06888397,1.419113,NA,NA,NotTracked,NotTracked,
0.9638672,-0.2158203,0.1020508,-1.069824,0.2998047,-0.06542969,0,0,-1,1,0,-2,-2,-2,2,9,3,-2,-6,-1,-4,-7,7.625,7.625,7.625,-35.9375,-35.9375,-35.9375,3.160052,2.898678,7.602253,8.374327,7.04114,4.855002,-0.1384045,-0.4195268,1.530038,0.1436583,0.3554823,1.553164,0.0845455,0.4274586,1.655105,-0.08541176,-0.3798026,1.520172,0.1176593,0.2956032,1.590654,0.07430582,-0.02427613,1.648904,0.06661989,-0.3376961,1.622721,-0.09332087,0.153395,1.621202,-0.01723295,-0.3284314,1.589173,-0.151815,-0.113863,1.628909,0.3109468,0.07157308,1.416866,NA,NA,NotTracked,NotTracked,
0.9638672,-0.2158203,0.1020508,-1.069824,0.2998047,-0.06542969,0,0,-1,1,0,-2,-2,-2,-3,6,0,-2,-6,-1,7,36,7.625,7.625,7.625,-35.9375,-35.9375,-35.9375,3.160052,2.898678,7.602253,8.374327,7.04114,4.855002,-0.1383895,-0.4199912,1.532459,0.1733068,0.3237213,1.536381,0.08416024,0.4275764,1.655834,-0.08536009,-0.3738864,1.521478,0.1482731,0.3048472,1.574377,0.07430223,-0.02422611,1.648888,0.06590852,-0.337417,1.623009,-0.09223617,0.1533876,1.623146,-0.01820805,-0.3281361,1.590334,-0.151691,-0.1137362,1.629359,0.3091078,0.07024453,1.416473,NA,NA,NotTracked,NotTracked,
0.9638672,-0.2158203,0.1020508,-1.09082,0.2958984,-0.1396484,0,0,-1,1,0,-2,-2,-2,0,13,14,13,17,-3,-6,-12,7.625,7.625,7.625,-16.125,-16.125,-16.125,3.160052,2.898678,7.602253,8.32992,7.047483,4.829441,-0.1377765,-0.421443,1.535127,0.1694851,0.3335682,1.531128,0.08328921,0.427817,1.657362,-0.08493695,-0.4017319,1.518546,0.1043591,0.2996144,1.539,0.07426328,-0.02370112,1.64857,0.0647212,-0.3363868,1.622882,-0.09151202,0.1534975,1.625633,-0.01922605,-0.3274366,1.591213,-0.1512096,-0.1130792,1.630705,0.3049024,0.07307909,1.416562,NA,NA,NotTracked,NotTracked,
0.9638672,-0.2158203,0.1020508,-1.078125,0.253418,-0.07861328,0,0,-1,1,0,-2,-2,-2,-2,-11,-10,-12,-16,-2,1,-5,7.625,7.625,7.625,-15.625,-15.625,-15.625,3.160052,2.898678,7.602253,8.1897,7.055501,4.70427,-0.1386865,-0.4217016,1.538166,0.1697641,0.3341592,1.528952,0.08281751,0.4278035,1.657961,-0.08502199,-0.3986698,1.519666,0.1630136,0.2980483,1.562722,0.07444239,-0.02265023,1.649054,0.06441348,-0.3358297,1.622751,-0.09118596,0.153441,1.626599,-0.01953632,-0.3270328,1.59147,-0.1508399,-0.1139293,1.631849,0.3010032,0.07537689,1.419024,NA,NA,NotTracked,NotTracked,
0.9638672,-0.2158203,0.1020508,-0.9594727,0.3120117,-0.09960938,0,0,-1,1,0,-2,-2,-2,-3,0,3,0,-2,1,-1,-7,7.625,7.625,7.625,-22.375,-22.375,-22.375,3.160052,2.898678,7.602253,8.150562,7.048183,4.685153,-0.1395775,-0.4214659,1.539975,0.1700024,0.3336603,1.527797,0.08262714,0.4278432,1.658368,-0.08508994,-0.3997277,1.518441,0.1591972,0.2999448,1.573417,0.07443314,-0.02255465,1.648918,0.06427257,-0.3356568,1.622713,-0.09078128,0.1533967,1.627359,-0.01971686,-0.3268707,1.591669,-0.1508208,-0.1138393,1.632472,0.2999592,0.07549979,1.418688,NA,NA,NotTracked,NotTracked,
0.9638672,-0.2158203,0.1020508,-0.9057617,0.3081055,-0.07958984,0,0,-1,1,0,-2,-2,-2,-6,-14,-4,-1,-4,1,2,4,7.625,7.625,7.625,-8.75,-8.75,-8.75,3.160052,2.898678,7.602253,8.247656,7.037605,4.800002,-0.1405109,-0.4229055,1.541784,0.166557,0.3353045,1.53107,0.08241898,0.4278648,1.658651,-0.08632855,-0.3889445,1.522111,0.1599935,0.2969656,1.572181,0.0745242,-0.02236056,1.64871,0.06423378,-0.3354725,1.622649,-0.0903047,0.153551,1.627999,-0.01977597,-0.3267455,1.591779,-0.1509986,-0.11416,1.633754,0.2979762,0.07690442,1.41773,NA,NA,NotTracked,NotTracked,
0.9638672,-0.2158203,0.1020508,-0.9052734,0.2963867,-0.1118164,0,0,-1,1,0,-2,-2,-2,4,10,-4,-3,0,-2,4,23,7.625,7.625,7.625,-9.6875,-9.6875,-9.6875,3.160052,2.898678,7.602253,8.318645,7.033182,4.880598,-0.1427416,-0.4232569,1.544072,0.1654139,0.33465,1.534433,0.08208161,0.4281837,1.659535,-0.08560506,-0.392181,1.519824,0.15755,0.2946297,1.578176,0.07450648,-0.02218233,1.648569,0.06361775,-0.3349194,1.622759,-0.08994985,0.1536288,1.628932,-0.02036882,-0.3262332,1.592479,-0.150839,-0.1147128,1.635359,0.294094,0.07541149,1.418007,NA,NA,NotTracked,NotTracked,
0.9638672,-0.2158203,0.1020508,-1.089844,0.2709961,-0.2197266,0,0,-1,1,0,-2,-2,-2,6,5,-5,-4,3,-1,1,9,7.625,7.625,7.625,5.125,5.125,5.125,3.160052,2.898678,7.602253,8.426505,7.031268,4.992228,-0.1443347,-0.4226595,1.544605,0.1653531,0.3364462,1.534266,0.08207925,0.4281716,1.659569,-0.08595397,-0.3963249,1.519958,0.1045897,0.2986572,1.540667,0.07454506,-0.02215658,1.648458,0.06355539,-0.3348202,1.622688,-0.08989836,0.153645,1.629179,-0.0204078,-0.3261817,1.592489,-0.1508469,-0.1150851,1.63578,0.293576,0.07546742,1.418137,NA,NA,NotTracked,NotTracked,
0.9638672,-0.2158203,0.1020508,-1.020508,0.2768555,-0.1352539,0,0,-1,1,0,-2,-2,-2,-18,-15,-8,-8,-7,1,4,-11,7.625,7.625,7.625,4.6875,4.6875,4.6875,3.160052,2.898678,7.602253,8.403617,7.032938,4.966106,-0.1479205,-0.4231118,1.546,0.1643002,0.3374308,1.533487,0.08206509,0.428171,1.659573,-0.09006946,-0.3951583,1.527613,0.1042288,0.2990113,1.53991,0.07455291,-0.02209374,1.648383,0.06344971,-0.3346908,1.622668,-0.08974703,0.1536803,1.629423,-0.02053069,-0.326043,1.592599,-0.1509718,-0.1152943,1.636431,0.2918224,0.07732899,1.417131,NA,NA,NotTracked,NotTracked,
0.9638672,-0.2158203,0.1020508,-0.8754883,0.2392578,-0.09521484,0,0,-1,1,0,-2,-2,-2,-2,-3,-5,-2,3,-2,1,-2,7.625,7.625,7.625,1.9375,1.9375,1.9375,3.160052,2.898678,7.602253,8.254107,7.037736,4.812961,-0.1492522,-0.4231649,1.546699,0.1643602,0.3382828,1.533849,0.0820636,0.4281598,1.659719,-0.08965801,-0.3938186,1.525749,0.106486,0.2981995,1.542897,0.07456258,-0.02207383,1.648313,0.06340672,-0.3345913,1.622633,-0.08966539,0.1537025,1.629526,-0.02057568,-0.3259439,1.592681,-0.1511281,-0.1154612,1.636666,0.2913264,0.07542594,1.418086,NA,NA,NotTracked,NotTracked,
0.9638672,-0.2158203,0.1020508,-0.9165039,0.269043,-0.1206055,0,0,-1,1,0,-2,-2,-2,-1,-9,-8,-2,-5,-1,0,0,7.625,7.625,7.625,6.0625,6.0625,6.0625,3.160052,2.898678,7.602253,8.234806,7.034985,4.786273,-0.1518006,-0.4227974,1.544236,0.1643584,0.3331094,1.532693,0.08215558,0.4280625,1.659736,-0.09102024,-0.3849984,1.526974,0.1079107,0.2974307,1.542905,0.07517374,-0.02135492,1.648682,0.06330502,-0.3344012,1.622725,-0.08954777,0.1537015,1.629696,-0.02067297,-0.3257138,1.593076,-0.1512896,-0.1159297,1.637256,0.2898096,0.07173487,1.421162,NA,NA,NotTracked,NotTracked,
0.9638672,-0.2158203,0.1020508,-0.9038086,0.2612305,-0.125,0,0,-1,1,0,-2,-2,-2,-5,5,4,0,-1,1,3,7,7.625,7.625,7.625,-0.9375,-0.9375,-0.9375,3.160052,2.898678,7.602253,8.236153,7.032977,4.78791,-0.1521802,-0.4223077,1.543286,0.1637334,0.3341472,1.531485,0.08226579,0.4280016,1.659692,-0.091699,-0.3857118,1.526993,0.1542645,0.29642,1.572941,0.0755435,-0.02079417,1.649023,0.06316479,-0.3341642,1.622753,-0.0894639,0.15373,1.629729,-0.02085112,-0.3254626,1.593194,-0.1513087,-0.115903,1.637291,0.2896895,0.07149614,1.421696,NA,NA,NotTracked,NotTracked,
0.9638672,-0.2158203,0.1020508,-0.8330078,0.2700195,-0.1240234,0,0,-1,1,0,-2,-2,-2,3,7,2,3,-1,-2,-1,-6,7.625,7.625,7.625,14,14,14,3.160052,2.898678,7.602253,8.229833,7.031808,4.771398,-0.1525799,-0.4229795,1.542392,0.1630705,0.3326906,1.530202,0.08238954,0.4279002,1.659581,-0.09209009,-0.3756177,1.530903,0.1050803,0.2976878,1.54008,0.07579381,-0.02051986,1.649291,0.0630392,-0.3340684,1.622811,-0.08942837,0.1537375,1.629749,-0.02096639,-0.3253508,1.593225,-0.1513938,-0.1159811,1.637248,0.2901513,0.07098967,1.422224,NA,NA,NotTracked,NotTracked,
0.9638672,-0.2158203,0.1020508,-0.7988281,0.3642578,-0.125,0,0,-1,1,0,-2,-2,-2,1,-2,-3,-2,-2,-3,-6,-13,7.625,7.625,7.625,21.6875,21.6875,21.6875,3.160052,2.898678,7.602253,8.191768,7.028443,4.720132,-0.1532776,-0.4198939,1.53846,0.1621138,0.3348924,1.525788,0.08276112,0.4277437,1.658865,-0.09279737,-0.3739287,1.53145,0.1051728,0.2984414,1.538965,0.0757514,-0.02049244,1.649062,0.06295264,-0.3339698,1.622828,-0.09080391,0.1542161,1.627212,-0.0210606,-0.3252675,1.593193,-0.1514165,-0.1159681,1.637091,0.2920312,0.06474319,1.425625,NA,NA,NotTracked,NotTracked,
0.9638672,-0.2158203,0.1020508,-0.6845703,0.4301758,0.06982422,0,0,-1,1,0,-2,-2,-2,-2,1,0,-2,1,-5,-2,-7,7.625,7.625,7.625,19.625,19.625,19.625,3.160052,2.898678,7.602253,7.589093,6.942774,4.022921,-0.1520958,-0.4198443,1.537016,0.1548595,0.332913,1.518488,0.08311898,0.4282275,1.6575,-0.09235041,-0.3801436,1.529081,0.1209101,0.2987433,1.561125,0.07628065,-0.01949035,1.64942,0.06271385,-0.3334329,1.623137,-0.09059773,0.1546313,1.627437,-0.02123209,-0.3247423,1.593241,-0.1516064,-0.1156026,1.637033,0.3000386,0.04383945,1.442096,NA,NA,NotTracked,Closed,
0.9638672,-0.2158203,0.1020508,-0.6459961,0.4487305,0.1572266,0,0,-1,1,0,-2,-2,-2,-4,4,6,3,1,4,0,-8,7.625,7.625,7.625,10.9375,10.9375,10.9375,3.160052,2.898678,7.602253,7.432765,6.881686,3.848907,-0.1507636,-0.4183176,1.535559,0.1764647,0.2828469,1.458447,0.08294734,0.4287275,1.656545,-0.09273387,-0.3724255,1.530421,0.1505797,0.269352,1.510882,0.07625906,-0.01941005,1.649457,0.06212435,-0.3336871,1.623181,-0.09072097,0.1548743,1.627514,-0.02200517,-0.3249292,1.593068,-0.1516927,-0.1150335,1.636968,0.3173975,0.01811382,1.440944,NA,NA,NotTracked,Unknown,
0.9638672,-0.2158203,0.1020508,-0.6972656,0.434082,0.3447266,0,0,-1,1,0,-2,-2,-2,-1,-3,-4,-7,-12,-1,-1,-2,7.625,7.625,7.625,0.375,0.375,0.375,3.160052,2.898678,7.602253,7.029568,6.588673,3.396859,-0.1499749,-0.4178979,1.537518,0.1886338,0.2383032,1.424668,0.0823105,0.430029,1.655714,-0.09079343,-0.3678549,1.530267,0.1814787,0.213819,1.491667,0.0763063,-0.01907441,1.649297,0.06206261,-0.3336629,1.623209,-0.09123698,0.1553292,1.627626,-0.02209314,-0.3248998,1.593148,-0.1519025,-0.1146841,1.637007,0.3206182,-0.001295385,1.463843,NA,NA,NotTracked,Unknown,
0.9638672,-0.2158203,0.1020508,-0.6254883,0.5805664,0.3911133,0,0,-1,1,0,-2,-2,-2,-1,-7,-7,-3,-9,-6,3,10,7.625,7.625,7.625,-28.75,-28.75,-28.75,3.160052,2.898678,7.602253,6.802193,6.114875,3.136208,-0.1494252,-0.4208183,1.538228,0.1876925,0.1930182,1.399678,0.08165869,0.4303297,1.655729,-0.09210896,-0.3787083,1.53018,0.1876192,0.155247,1.460769,0.07487896,-0.02017105,1.648798,0.06175974,-0.3347808,1.62346,-0.09284998,0.1554072,1.628326,-0.02245102,-0.3264539,1.594166,-0.1520176,-0.115178,1.637145,0.3197086,-0.01520184,1.48688,NA,NA,NotTracked,Unknown,
0.9638672,-0.2158203,0.1020508,-0.6254883,0.5805664,0.3911133,0,0,-1,1,0,-2,-2,-2,-1,-7,-7,-3,-9,-6,3,10,7.625,7.625,7.625,-28.75,-28.75,-28.75,3.160052,2.898678,7.602253,6.802193,6.114875,3.136208,-0.1492165,-0.4203403,1.538351,0.1765734,0.1446397,1.373189,0.08156653,0.4301903,1.655531,-0.09139647,-0.3774285,1.528954,0.1118171,0.1604059,1.346,0.07286297,-0.02348007,1.64917,0.06194767,-0.3396431,1.624213,-0.09458501,0.1549047,1.628539,-0.02159934,-0.3321592,1.596876,-0.1520959,-0.1171803,1.637191,0.3209102,-0.03004958,1.49648,NA,NA,NotTracked,Unknown,
0.9638672,-0.2158203,0.1020508,-0.4414063,0.6342773,0.6137695,0,0,-1,1,0,-2,-2,-2,-4,2,1,0,4,25,15,3,7.625,7.625,7.625,-47.125,-47.125,-47.125,3.160052,2.898678,7.602253,6.653439,5.52133,2.995769,-0.1496287,-0.420573,1.540617,0.1694249,0.08057762,1.347266,0.08208314,0.4301949,1.654978,-0.09206957,-0.3784129,1.528938,0.1298002,0.07585426,1.344833,0.07252452,-0.02406747,1.649375,0.0619868,-0.3400337,1.624554,-0.09572469,0.1549057,1.626191,-0.02133616,-0.3324114,1.59691,-0.1523732,-0.11872,1.637572,0.3252906,-0.05497854,1.510229,NA,NA,NotTracked,Closed,
0.9638672,-0.2158203,0.1020508,-0.4838867,0.684082,0.4277344,0,0,-1,1,0,-2,-2,-2,-7,11,4,1,-2,1,5,15,7.625,7.625,7.625,-45.5,-45.5,-45.5,3.160052,2.898678,7.602253,6.622097,5.322654,2.972449,-0.1497091,-0.4210659,1.543534,0.1694255,-0.001955615,1.333443,0.08205678,0.4300236,1.654457,-0.09238236,-0.3806907,1.528891,0.1189786,-0.01366759,1.339889,0.07224511,-0.02427101,1.649481,0.06201477,-0.3399902,1.624614,-0.09666578,0.1548095,1.625091,-0.02103159,-0.3322851,1.596806,-0.1526948,-0.1197273,1.63798,0.3296321,-0.05120169,1.543785,NA,NA,NotTracked,Closed,
0.9638672,-0.2158203,0.1020508,-0.5375977,0.8798828,0.5444336,0,0,-1,1,0,-2,-2,-2,-7,-6,-1,-1,0,-23,7,-12,7.625,7.625,7.625,-38.875,-38.875,-38.875,3.160052,2.898678,7.602253,6.597157,5.130187,2.946947,-0.1500547,-0.4200994,1.546021,0.1790211,-0.08690462,1.3331,0.08205394,0.4297746,1.654086,-0.09227581,-0.37941,1.527763,0.1284323,-0.1091462,1.4185,0.07208581,-0.02454512,1.649403,0.06201549,-0.3399679,1.624593,-0.09712704,0.1548032,1.625455,-0.02069364,-0.3319825,1.595918,-0.1527786,-0.1198875,1.638142,0.3300563,-0.0472133,1.576566,NA,NA,NotTracked,Closed,
0.9638672,-0.2158203,0.1020508,-0.08105469,0.5415039,0.4628906,0,0,-1,1,0,-2,-2,-2,-7,-2,-4,-1,-3,-4,-7,-12,7.625,7.625,7.625,-11.6875,-11.6875,-11.6875,3.160052,2.898678,7.602253,6.618329,4.732689,2.89186,-0.1548317,-0.4197145,1.54924,0.2171638,-0.2477066,1.371674,0.08207449,0.4297785,1.653501,-0.09424259,-0.3969076,1.527512,0.1711617,-0.2915895,1.403833,0.07145551,-0.02495468,1.648815,0.06152291,-0.3398706,1.623991,-0.09761164,0.155117,1.625798,-0.02106268,-0.3308796,1.592574,-0.1529706,-0.1203515,1.638689,0.3580837,-0.0545663,1.617054,NA,NA,NotTracked,Closed,
0.9638672,-0.2158203,0.1020508,-0.08105469,0.5415039,0.4628906,0,0,-1,1,0,-2,-2,-2,0,1,7,1,-2,1,-8,4,7.625,7.625,7.625,-11.6875,-11.6875,-11.6875,3.160052,2.898678,7.602253,6.618329,4.732689,2.89186,-0.1582351,-0.4204425,1.551202,0.2355511,-0.3138607,1.398802,0.08202188,0.4297755,1.653097,-0.09549078,-0.397872,1.528,0.2707978,-0.3649397,1.390545,0.07136952,-0.02521062,1.64854,0.06148929,-0.3399636,1.623787,-0.09777802,0.1551398,1.625783,-0.02098755,-0.3307988,1.591616,-0.1536899,-0.1219577,1.639179,0.310792,-0.09147912,1.622305,NA,NA,NotTracked,Closed,
0.9638672,-0.2158203,0.1020508,0.9628906,1.296875,0.5166016,0,0,-1,1,0,-2,-2,-2,0,-2,-3,6,1,7,6,15,7.625,7.625,7.625,2.75,2.75,2.75,3.160052,2.898678,7.602253,6.724422,3.774837,2.6721,-0.1615599,-0.4189583,1.551351,0.2538158,-0.3588926,1.43392,0.08175804,0.4298535,1.652081,-0.0972544,-0.3863762,1.53108,0.2230241,-0.3976444,1.455154,0.07151818,-0.02537768,1.648142,0.06241734,-0.3399174,1.623297,-0.09797882,0.1552322,1.625623,-0.01951198,-0.3306406,1.5901,-0.1539718,-0.1229299,1.639481,0.3103756,-0.09716527,1.621644,NA,NA,NotTracked,Unknown,
0.9638672,-0.2158203,0.1020508,1.11084,0.5239258,0.3374023,0,0,-1,1,0,-2,-2,-2,-1,0,3,1,-2,-17,-2,4,7.625,7.625,7.625,-53.6875,-53.6875,-53.6875,3.160052,2.898678,7.602253,6.748709,3.524528,2.564919,-0.1648464,-0.4191226,1.551812,0.2724977,-0.3950886,1.469153,0.0817814,0.4297664,1.651569,-0.09846732,-0.3807593,1.531821,0.2383573,-0.3687317,1.516727,0.07195476,-0.02558607,1.647769,0.06413046,-0.339841,1.622884,-0.09804298,0.1552384,1.625582,-0.01717584,-0.3306004,1.588568,-0.1545662,-0.1244443,1.639803,0.3089517,-0.1054549,1.625231,NA,NA,NotTracked,Unknown,
0.9638672,-0.2158203,0.1020508,1.177734,0.512207,0.1508789,0,0,-1,1,0,-2,-2,-2,2,0,-1,-2,1,13,2,10,7.625,7.625,7.625,6.3125,6.3125,6.3125,3.160052,2.898678,7.602253,6.856194,3.319015,2.426192,-0.1702226,-0.419721,1.551535,0.303676,-0.4385165,1.539188,0.0820262,0.4295726,1.649991,-0.1014138,-0.3882668,1.533959,0.2386833,-0.4142094,1.536867,0.07302111,-0.02618787,1.646791,0.06653272,-0.3403629,1.622447,-0.09828094,0.1554619,1.624453,-0.01459254,-0.3312569,1.587455,-0.1552687,-0.12555,1.639606,0.3056464,-0.1205885,1.63273,NA,NA,NotTracked,Unknown,
0.9638672,-0.2158203,0.1020508,1.160156,0.6293945,-0.08251953,0,0,-1,1,0,-2,-2,-2,-3,-5,-3,-1,1,7,-1,-8,7.625,7.625,7.625,-11.1875,-11.1875,-11.1875,3.160052,2.898678,7.602253,7.01394,3.175511,2.247717,-0.1730354,-0.4197458,1.551,0.3207891,-0.4444368,1.568528,0.08253644,0.4297066,1.649282,-0.1040774,-0.3786112,1.539088,0.2508874,-0.4096181,1.561667,0.07331127,-0.02620609,1.646478,0.06703079,-0.3403279,1.622332,-0.09827335,0.1555547,1.62399,-0.01409373,-0.3312378,1.587217,-0.1555912,-0.1254297,1.6393,0.3048992,-0.1252784,1.638484,NA,NA,NotTracked,NotTracked,
0.9638672,-0.2158203,0.1020508,1.042969,0.6171875,-0.01171875,0,0,-1,1,0,-2,-2,-2,-3,-3,-1,1,1,41,1,-2,7.625,7.625,7.625,-63.375,-63.375,-63.375,3.160052,2.898678,7.602253,7.143896,3.110272,2.053607,-0.173598,-0.4190951,1.547334,0.3302287,-0.4483037,1.589901,0.08325416,0.429406,1.648093,-0.1062991,-0.3838097,1.540204,0.2536643,-0.3958327,1.5655,0.07365376,-0.02628107,1.646018,0.06740227,-0.3402773,1.622103,-0.09831462,0.1558537,1.62316,-0.01368404,-0.3311873,1.586851,-0.1561133,-0.125677,1.638828,0.3058581,-0.130042,1.646114,NA,NA,NotTracked,NotTracked,
0.9638672,-0.2158203,0.1020508,0.9291992,0.4492188,0.1274414,0,0,-1,1,0,-2,-2,-2,0,3,1,-2,2,4,1,0,7.625,7.625,7.625,-74.5,-74.5,-74.5,3.160052,2.898678,7.602253,7.182525,3.094037,1.920977,-0.1757602,-0.41836,1.544381,0.3346607,-0.4472577,1.604456,0.08377245,0.429597,1.647027,-0.1069152,-0.3757686,1.54081,0.2937248,-0.4418334,1.593062,0.07380126,-0.02614054,1.645517,0.06764865,-0.3401231,1.621921,-0.09839433,0.1564972,1.622184,-0.01339867,-0.3309526,1.586479,-0.1566427,-0.1252118,1.637846,0.3076476,-0.1326985,1.653318,NA,NA,NotTracked,Unknown,
0.9638672,-0.2158203,0.1020508,0.8789063,0.3950195,0.2451172,0,0,-1,1,0,-2,-2,-2,2,-1,-1,-1,2,17,1,2,7.625,7.625,7.625,-35.8125,-35.8125,-35.8125,3.160052,2.898678,7.602253,7.19511,3.096176,1.84797,-0.1724551,-0.4179327,1.539308,0.3346065,-0.4421899,1.614094,0.08479653,0.4297943,1.645377,-0.1075248,-0.373199,1.545435,0.2941827,-0.4486129,1.602875,0.07422792,-0.02594202,1.644647,0.06846186,-0.3395963,1.621408,-0.09823348,0.1572724,1.619442,-0.01247442,-0.3303905,1.585436,-0.1573616,-0.1251355,1.635617,0.3134336,-0.13337,1.667304,NA,NA,NotTracked,Unknown,
0.9638672,-0.2158203,0.1020508,0.8164063,0.4511719,0.309082,0,0,-1,1,0,-2,-2,-2,1,-1,-1,-1,-11,-70,-5,-1,7.625,7.625,7.625,-14.4375,-14.4375,-14.4375,3.160052,2.898678,7.602253,7.14082,3.13033,1.866442,-0.1706969,-0.4181881,1.536627,0.3331896,-0.440941,1.613109,0.08530845,0.4298255,1.644613,-0.1064884,-0.374017,1.540766,0.294191,-0.4429651,1.597814,0.07430581,-0.02593197,1.644286,0.06853782,-0.3395452,1.621299,-0.09815348,0.1574747,1.618276,-0.01241019,-0.3303152,1.585218,-0.1573953,-0.1249969,1.633994,0.3150178,-0.1325118,1.671325,NA,NA,NotTracked,Unknown,
0.9638672,-0.2158203,0.1020508,0.7841797,0.4697266,0.2978516,0,0,-1,1,0,-2,-2,-2,1,-2,0,-1,2,16,0,0,7.625,7.625,7.625,-21.25,-21.25,-21.25,3.160052,2.898678,7.602253,7.075918,3.171483,1.907871,-0.168435,-0.4180101,1.533803,0.3334286,-0.440974,1.608183,0.08584833,0.4298556,1.643792,-0.1060318,-0.3656708,1.532167,0.2947372,-0.4417239,1.595184,0.07450098,-0.02596427,1.643833,0.06884801,-0.3394524,1.62109,-0.09789554,0.1575675,1.617154,-0.01210356,-0.3302338,1.584839,-0.1570706,-0.1250082,1.632229,0.3162997,-0.1317649,1.674273,NA,NA,NotTracked,Lasso,
0.9638672,-0.2158203,0.1020508,0.784668,0.4731445,0.2807617,0,0,-1,1,0,-2,-2,-2,-2,-2,1,-2,1,6,-1,0,7.625,7.625,7.625,-25.25,-25.25,-25.25,3.160052,2.898678,7.602253,7.044734,3.196491,1.924207,-0.1638997,-0.4177572,1.531459,0.3343287,-0.4400911,1.600315,0.086251,0.4294751,1.643136,-0.1024891,-0.3760265,1.53026,0.2944969,-0.440779,1.585,0.07456098,-0.02603549,1.643583,0.06900744,-0.3395092,1.620974,-0.09767328,0.157626,1.616083,-0.01196289,-0.3303034,1.584653,-0.1569009,-0.1251494,1.630408,0.3170655,-0.1313226,1.675923,NA,NA,NotTracked,Lasso,
0.9638672,-0.2158203,0.1020508,0.8427734,0.4545898,0.1835938,0,0,-1,1,0,-2,-2,-2,-1,-2,-1,-1,1,17,-1,-1,7.625,7.625,7.625,-33.3125,-33.3125,-33.3125,3.160052,2.898678,7.602253,6.974104,3.275946,1.940262,-0.1544582,-0.4178173,1.526797,0.3331261,-0.4344024,1.578514,0.08674072,0.4293483,1.642509,-0.09818309,-0.3880647,1.524294,0.2947407,-0.4281191,1.5629,0.07471976,-0.02603808,1.643113,0.06962242,-0.3393647,1.620609,-0.09719341,0.1574042,1.613779,-0.01126029,-0.3301421,1.583803,-0.1554495,-0.1247901,1.626825,0.3171996,-0.130625,1.676534,NA,NA,NotTracked,Unknown,
0.9638672,-0.2158203,0.1020508,0.9013672,0.4501953,0.1313477,0,0,-1,1,0,-2,-2,-2,2,-3,-1,-2,1,9,6,-1,7.625,7.625,7.625,-33.0625,-33.0625,-33.0625,3.160052,2.898678,7.602253,6.937216,3.322006,1.940787,-0.1499316,-0.4184781,1.524427,0.3312662,-0.4332846,1.564439,0.08699551,0.4291455,1.642202,-0.09459069,-0.3823176,1.52045,0.2946506,-0.4202862,1.546156,0.07485412,-0.02615036,1.642872,0.07016024,-0.3393983,1.620372,-0.09687035,0.15719,1.612518,-0.01072186,-0.330229,1.583412,-0.1545552,-0.1242982,1.624988,0.3169721,-0.130382,1.675875,NA,NA,NotTracked,NotTracked,
0.9638672,-0.2158203,0.1020508,0.9169922,0.4189453,0.1352539,0,0,-1,1,0,-2,-2,-2,-2,-1,-2,0,0,4,0,-1,7.625,7.625,7.625,-17.625,-17.625,-17.625,3.160052,2.898678,7.602253,6.896033,3.362515,1.961059,-0.1464286,-0.4173524,1.522269,0.3277457,-0.4275793,1.548674,0.08724699,0.4290633,1.641891,-0.09350502,-0.3725789,1.52265,0.2901192,-0.4213542,1.531394,0.07500614,-0.02621302,1.642608,0.07082535,-0.3394283,1.61988,-0.09653203,0.1571164,1.611352,-0.01002003,-0.3302839,1.582529,-0.1541972,-0.1245564,1.622508,0.3163058,-0.129716,1.674163,NA,NA,NotTracked,NotTracked,
0.9638672,-0.2158203,0.1020508,0.9038086,0.434082,0.1572266,0,0,-1,1,0,-2,-2,-2,-1,-2,1,0,0,-2,0,0,7.625,7.625,7.625,5.625,5.625,5.625,3.160052,2.898678,7.602253,6.857766,3.401508,2.007197,-0.142142,-0.415205,1.517708,0.3248911,-0.4223683,1.53591,0.08756924,0.4289998,1.641654,-0.0893751,-0.367155,1.518941,0.287748,-0.4185238,1.518913,0.07512158,-0.02614615,1.642453,0.07164016,-0.3392513,1.619474,-0.09618501,0.1571909,1.610238,-0.009226415,-0.3301639,1.581668,-0.1538086,-0.1242116,1.621744,0.3155535,-0.1289326,1.671601,NA,NA,NotTracked,NotTracked,
0.9638672,-0.2158203,0.1020508,0.8652344,0.4580078,0.1679688,0,0,-1,1,0,-2,-2,-2,1,-2,-1,-1,-2,-1,-2,0,7.625,7.625,7.625,16.4375,16.4375,16.4375,3.160052,2.898678,7.602253,6.829612,3.438755,2.062438,-0.1297311,-0.3939556,1.483691,0.3166187,-0.4121496,1.512334,0.0891549,0.4284403,1.640648,-0.09074433,-0.3681037,1.51911,0.2556387,-0.3580657,1.551089,0.07585922,-0.02614656,1.641856,0.07400949,-0.3390742,1.618558,-0.0954853,0.1571193,1.609082,-0.007106659,-0.3301376,1.580371,-0.1533731,-0.123183,1.62153,0.3144901,-0.128139,1.665269,NA,NA,NotTracked,NotTracked,
0.9638672,-0.2158203,0.1020508,0.8330078,0.4746094,0.1884766,0,0,-1,1,0,-2,-2,-2,-2,1,-1,-3,-1,-8,-2,1,7.625,7.625,7.625,15.25,15.25,15.25,3.160052,2.898678,7.602253,6.805308,3.472379,2.115231,-0.1244318,-0.3734302,1.453458,0.3127165,-0.4069387,1.503798,0.09003297,0.4281713,1.640091,-0.08019672,-0.3974554,1.4766,0.2724407,-0.4148356,1.49224,0.07628562,-0.02620865,1.641697,0.07553017,-0.3388507,1.618085,-0.09536848,0.157074,1.609075,-0.005882373,-0.3300615,1.5798,-0.1528607,-0.1203984,1.623658,0.3142314,-0.126975,1.662718,NA,NA,Unknown,NotTracked,
0.9638672,-0.2158203,0.1020508,0.7553711,0.4667969,0.2133789,0,0,-1,1,0,-2,-2,-2,-2,-3,0,-1,1,2,0,1,7.625,7.625,7.625,13.5625,13.5625,13.5625,3.160052,2.898678,7.602253,6.78405,3.496273,2.160411,-0.1169385,-0.3410417,1.426383,0.3093626,-0.4026231,1.496691,0.09159013,0.4274928,1.639174,-0.07180735,-0.3802274,1.44475,0.2527553,-0.3487462,1.53975,0.07731804,-0.02630779,1.641346,0.07834473,-0.3386442,1.617371,-0.09517605,0.1570743,1.609197,-0.003285299,-0.3301981,1.578949,-0.1510837,-0.1141054,1.627033,0.3142716,-0.1262998,1.660151,NA,NA,Unknown,NotTracked,
0.9638672,-0.2158203,0.1020508,0.7128906,0.4594727,0.2460938,0,0,-1,1,0,-2,-2,-2,-2,-2,-2,-1,0,1,-2,0,7.625,7.625,7.625,28.25,28.25,28.25,3.160052,2.898678,7.602253,6.775882,3.505512,2.2174,-0.1105584,-0.3080797,1.395697,0.3069105,-0.3997687,1.492287,0.0930474,0.4268216,1.638371,-0.07467236,-0.322731,1.396636,0.2504744,-0.3517063,1.534448,0.07862613,-0.02649743,1.640973,0.08117872,-0.3385806,1.616717,-0.09474272,0.1571555,1.60959,-0.000458581,-0.3302739,1.577899,-0.1495797,-0.1029735,1.630138,0.3146308,-0.1255597,1.656934,NA,NA,Closed,NotTracked,
0.9638672,-0.2158203,0.1020508,0.7128906,0.4594727,0.2460938,0,0,-1,1,0,-2,-2,-2,-2,-2,-2,-1,0,1,-2,0,7.625,7.625,7.625,28.25,28.25,28.25,3.160052,2.898678,7.602253,6.775882,3.505512,2.2174,-0.1045819,-0.2767684,1.371099,0.3053816,-0.3986212,1.490768,0.09466556,0.4261603,1.637603,-0.06561409,-0.2764623,1.352529,0.2662886,-0.3974802,1.479289,0.07963835,-0.02660441,1.640859,0.0834102,-0.338338,1.616332,-0.09409197,0.157475,1.610782,0.001804072,-0.330111,1.577457,-0.147484,-0.09666273,1.631378,0.3148636,-0.124567,1.654642,NA,NA,Closed,NotTracked,
