ALX,ALY,ALZ,ARX,ARY,ARZ,EMG0L,EMG1L,EMG2L,EMG3L,EMG4L,EMG5L,EMG6L,EMG7L,EMG0R,EMG1R,EMG2R,EMG3R,EMG4R,EMG5R,EMG6R,EMG7R,GLX,GLY,GLZ,GRX,GRY,GRZ,ORL,OPL,OYL,ORR,OPR,OYR,LHNX,LHNY,LHNZ,RHNX,RHNY,RHNZ,HX,HY,HZ,LTX,LTY,LTZ,RTX,RTY,RTZ,SpineMidX,SpineMidY,SpineMidZ,SpineBaseX,SpineBaseY,SpineBaseZ,ShoulderLeftX,ShoulderLeftY,ShoulderLeftZ,ShoulderRightX,ShoulderRightY,ShoulderRightZ,ElbowLeftX,ElbowLeftY,ElbowLeftZ,ElbowRightX,ElbowRightY,ElbowRightZ,Myo_Pose_left,Myo_Pose_Right,Kinect_pose_left,Kinect_pose_right
0.9145508,0.331543,0.04541016,0.9379883,-0.2910156,-0.112793,-1,1,0,0,0,-2,-1,0,-1,-3,-2,-1,-1,-5,-2,-1,-2,-2,-2,3.0625,3.0625,3.0625,7.375363,3.063504,1.820332,2.010446,3.011931,7.754139,-0.12334,-0.4151787,1.598777,0.3279845,-0.4037668,1.539583,0.1260552,0.4778804,1.674886,-0.07136556,-0.4019516,1.5732,0.2907578,-0.4010582,1.527186,0.1211377,0.006729214,1.688288,0.1222276,-0.3275855,1.667009,-0.06849942,0.2040621,1.679575,0.03415811,-0.3210317,1.635181,-0.1184456,-0.05922093,1.682947,0.3428568,-0.06543959,1.635864,NA,NA,NotTracked,NotTracked,
0.9111328,0.3339844,0.04833984,0.9379883,-0.2910156,-0.112793,-1,0,-1,0,0,1,0,-1,-1,-3,-2,-1,-1,-5,-2,-1,-1.375,-1.375,-1.375,3.0625,3.0625,3.0625,7.379639,3.061319,1.811013,2.010446,3.011931,7.754139,-0.1242144,-0.4148046,1.599394,0.3277611,-0.4037813,1.539718,0.1258373,0.4780579,1.67446,-0.07256133,-0.3992484,1.580648,0.2839352,-0.3861517,1.544226,0.1210033,0.006836031,1.687947,0.1218321,-0.3274763,1.66666,-0.06866659,0.2042008,1.67925,0.03378665,-0.3209152,1.634862,-0.11893,-0.05900402,1.682839,0.3426389,-0.06536804,1.635524,NA,NA,NotTracked,NotTracked,
0.9135742,0.3393555,0.04931641,0.9379883,-0.2910156,-0.112793,-1,1,0,-2,-1,-2,0,-1,-1,-3,-2,-1,-1,-5,-2,-1,1.75,1.75,1.75,3.0625,3.0625,3.0625,7.385935,3.060138,1.805169,2.010446,3.011931,7.754139,-0.1250409,-0.4150982,1.597145,0.3284281,-0.4043831,1.539819,0.1255401,0.4780471,1.673871,-0.08004082,-0.3901717,1.609222,0.2890043,-0.4073918,1.530425,0.1208778,0.006774729,1.687549,0.1215273,-0.3275014,1.666224,-0.06901655,0.2041371,1.678935,0.03350536,-0.3209617,1.634454,-0.1191086,-0.05910727,1.682454,0.3423174,-0.0654046,1.635103,NA,NA,NotTracked,NotTracked,
0.9155273,0.3320313,0.04492188,0.9379883,-0.2910156,-0.112793,0,-4,0,-2,-1,-2,-1,0,-1,-3,-2,-1,-1,-5,-2,-1,-2.0625,-2.0625,-2.0625,3.0625,3.0625,3.0625,7.389762,3.058785,1.798682,2.010446,3.011931,7.754139,-0.12533,-0.4153562,1.597629,0.3283248,-0.4045736,1.540004,0.1252118,0.4778729,1.673288,-0.07307728,-0.3973193,1.581773,0.2814462,-0.3721871,1.548072,0.1207018,0.006706518,1.687309,0.1213972,-0.3275693,1.666003,-0.06918524,0.204094,1.678722,0.0333894,-0.321045,1.634248,-0.1193915,-0.05912782,1.682246,0.3418856,-0.0655311,1.634588,NA,NA,NotTracked,NotTracked,
0.9145508,0.3325195,0.05273438,0.9379883,-0.2910156,-0.112793,0,-3,0,-1,0,-1,0,-3,-1,-3,-2,-1,-1,-5,-2,-1,-0.0625,-0.0625,-0.0625,3.0625,3.0625,3.0625,7.387562,3.058435,1.796507,2.010446,3.011931,7.754139,-0.1259688,-0.4145499,1.596046,0.3279176,-0.4045187,1.539266,0.1249082,0.4776618,1.672725,-0.07285722,-0.3960356,1.578346,0.280154,-0.3744709,1.5476,0.1204189,0.006606949,1.686868,0.1209929,-0.3276536,1.665609,-0.06940438,0.2040277,1.678374,0.03300506,-0.321123,1.633913,-0.1196184,-0.05920701,1.681739,0.3414858,-0.06562904,1.634179,NA,NA,NotTracked,NotTracked,
0.9204102,0.3417969,0.04443359,0.9379883,-0.2910156,-0.112793,1,-1,0,-2,0,-1,-2,-1,-1,-3,-2,-1,-1,-5,-2,-1,0.9375,0.9375,0.9375,3.0625,3.0625,3.0625,7.391299,3.058575,1.793926,2.010446,3.011931,7.754139,-0.1250931,-0.4145331,1.595587,0.3285191,-0.4043154,1.539498,0.1246204,0.4776199,1.672362,-0.08410315,-0.4165817,1.607818,0.2839143,-0.3783044,1.545685,0.1201808,0.006550246,1.686535,0.1207269,-0.3276361,1.665242,-0.06953052,0.2040572,1.678162,0.03276254,-0.3211211,1.633637,-0.1198908,-0.05914809,1.681548,0.3412883,-0.06561392,1.633905,NA,NA,NotTracked,NotTracked,
0.925293,0.3413086,0.03613281,0.9379883,-0.2910156,-0.112793,-3,-9,-3,0,-1,0,-1,0,-1,-3,-2,-1,-1,-5,-2,-1,2.1875,2.1875,2.1875,3.0625,3.0625,3.0625,7.384306,3.062013,1.803105,2.010446,3.011931,7.754139,-0.1249212,-0.4141737,1.595321,0.3272217,-0.4033948,1.537907,0.1243449,0.4776947,1.671917,-0.07292854,-0.396742,1.577857,0.2910948,-0.396619,1.527,0.1198348,0.006717675,1.685975,0.1204238,-0.3275442,1.664833,-0.06973687,0.2039709,1.677585,0.03248496,-0.3210249,1.633302,-0.1200763,-0.05922217,1.681171,0.3412009,-0.06539683,1.633635,NA,NA,NotTracked,NotTracked,
1.009766,0.4580078,0.08056641,0.9379883,-0.2910156,-0.112793,-4,4,7,6,0,-4,-3,-1,-1,-3,-2,-1,-1,-5,-2,-1,-12,-12,-12,3.0625,3.0625,3.0625,7.294197,3.118695,1.889131,2.010446,3.011931,7.754139,-0.1254327,-0.4145018,1.594339,0.3215015,-0.3950733,1.52886,0.124033,0.4777842,1.671858,-0.07301734,-0.3970561,1.57737,0.2790107,-0.3666413,1.539227,0.1193604,0.006685593,1.685613,0.1200742,-0.3275564,1.664508,-0.06995943,0.2038812,1.677422,0.03210502,-0.3210021,1.632951,-0.1202147,-0.05937329,1.680486,0.3412536,-0.06534087,1.633698,NA,NA,NotTracked,NotTracked,
1.017578,0.5551758,0.1704102,0.9379883,-0.2910156,-0.112793,-4,6,12,5,3,0,0,-2,-1,-3,-2,-1,-1,-5,-2,-1,-14.3125,-14.3125,-14.3125,3.0625,3.0625,3.0625,7.094597,3.248654,2.077298,2.010446,3.011931,7.754139,-0.1246578,-0.4151619,1.594388,0.3010973,-0.3735084,1.502223,0.123645,0.4777695,1.671808,-0.07253682,-0.3974207,1.578577,0.2704298,-0.3398701,1.534909,0.1191387,0.006637621,1.685305,0.1194946,-0.3275042,1.664058,-0.07011912,0.203806,1.677195,0.03142818,-0.3208391,1.632445,-0.1203069,-0.05945341,1.680354,0.3430093,-0.06498044,1.635353,NA,NA,NotTracked,Unknown,
1.032715,0.7099609,0.3847656,0.9379883,-0.2910156,-0.112793,13,5,12,6,4,6,2,0,-1,-3,-2,-1,-1,-5,-2,-1,41.4375,41.4375,41.4375,3.0625,3.0625,3.0625,6.885439,3.476862,2.364904,2.010446,3.011931,7.754139,-0.1241854,-0.4149373,1.594572,0.259592,-0.3091215,1.46399,0.1233063,0.4778087,1.671635,-0.07267416,-0.4027213,1.57729,0.2309865,-0.2859226,1.486368,0.1177144,0.006659578,1.684596,0.1157114,-0.3271872,1.662417,-0.0703002,0.20363,1.677009,0.02664874,-0.3194574,1.630589,-0.1203225,-0.05966002,1.680169,0.3531137,-0.0549881,1.639881,NA,NA,NotTracked,Unknown,
0.8759766,0.9985352,0.5615234,0.9379883,-0.2910156,-0.112793,8,6,16,5,9,-7,0,0,-1,-3,-2,-1,-1,-5,-2,-1,47,47,47,3.0625,3.0625,3.0625,6.754634,3.855983,2.653301,2.010446,3.011931,7.754139,-0.1237012,-0.4156373,1.596175,0.1787177,-0.2107311,1.454608,0.1231006,0.4777986,1.671261,-0.07278261,-0.3927089,1.583824,0.2130545,-0.2727112,1.491154,0.1170474,0.006750512,1.684361,0.1149257,-0.3270258,1.66251,-0.07048394,0.2036435,1.67662,0.02607457,-0.3190864,1.630759,-0.1203329,-0.0596645,1.67998,0.3612868,-0.03069283,1.63574,NA,NA,NotTracked,Unknown,
0.112793,0.7407227,0.5375977,0.9379883,-0.2910156,-0.112793,-6,-5,-12,1,10,0,1,6,-1,-3,-2,-1,-1,-5,-2,-1,-14.625,-14.625,-14.625,3.0625,3.0625,3.0625,6.57562,4.522069,2.981252,2.010446,3.011931,7.754139,-0.1235749,-0.4163407,1.595234,0.1214353,-0.09456146,1.444185,0.1230158,0.4777071,1.6706,-0.0730971,-0.3941198,1.585499,0.1014595,-0.03874263,1.505667,0.1172004,0.007060613,1.684353,0.1158775,-0.3258455,1.662968,-0.06958921,0.203458,1.675494,0.02713072,-0.3184789,1.631071,-0.1199974,-0.05968192,1.679577,0.3677185,-0.01044647,1.615408,NA,NA,NotTracked,Unknown,
-0.06787109,0.644043,0.4008789,0.9379883,-0.2910156,-0.112793,-7,-11,1,-1,0,0,1,0,-1,-3,-2,-1,-1,-5,-2,-1,28.3125,28.3125,28.3125,3.0625,3.0625,3.0625,6.570629,5.011744,3.169536,2.010446,3.011931,7.754139,-0.1246235,-0.4161754,1.595196,0.07823296,0.02794916,1.444105,0.1231257,0.4776583,1.670464,-0.07328965,-0.3956898,1.58627,0.03166024,-0.01782543,1.491594,0.1173469,0.00758052,1.684748,0.1163672,-0.3240225,1.664156,-0.06788346,0.2042266,1.675253,0.02825661,-0.3169163,1.632133,-0.1196304,-0.05865366,1.679416,0.3689154,-0.03168811,1.54671,NA,NA,NotTracked,Unknown,
-0.1791992,0.6923828,0.4365234,0.9379883,-0.2910156,-0.112793,3,-3,-5,1,-1,0,-2,-4,-1,-3,-2,-1,-1,-5,-2,-1,28.0625,28.0625,28.0625,3.0625,3.0625,3.0625,6.645865,5.395284,3.34362,2.010446,3.011931,7.754139,-0.1237703,-0.4162625,1.594782,0.0398718,0.1190086,1.46057,0.1234472,0.4774686,1.67043,-0.07310853,-0.3978329,1.584493,0.01045672,0.07799939,1.50953,0.1177444,0.00802623,1.685152,0.1171513,-0.3226984,1.664625,-0.07059863,0.201946,1.679341,0.02950753,-0.3158186,1.633173,-0.1201962,-0.06160031,1.680002,0.3581766,-0.01294223,1.542056,NA,NA,NotTracked,Unknown,
-0.1796875,0.7026367,0.4980469,0.9379883,-0.2910156,-0.112793,12,-1,2,5,0,1,1,5,-1,-3,-2,-1,-1,-5,-2,-1,33.4375,33.4375,33.4375,3.0625,3.0625,3.0625,6.781349,5.693773,3.547671,2.010446,3.011931,7.754139,-0.1220826,-0.4162113,1.594486,0.06961502,0.1573056,1.459279,0.1242253,0.4771675,1.670607,-0.07296513,-0.3985558,1.584148,0.04093044,0.1287267,1.513714,0.1182545,0.008206546,1.685387,0.117785,-0.3224021,1.664605,-0.07126673,0.2010681,1.680763,0.03011306,-0.315816,1.633119,-0.1194938,-0.06282142,1.680067,0.3357085,0.004015306,1.516375,NA,NA,NotTracked,Unknown,
-0.3061523,0.7460938,0.4824219,0.9379883,-0.2910156,-0.112793,-4,-13,-7,-5,-1,0,-2,-3,-1,-3,-2,-1,-1,-5,-2,-1,20.25,20.25,20.25,3.0625,3.0625,3.0625,6.868331,5.794347,3.680046,2.010446,3.011931,7.754139,-0.1204617,-0.4155356,1.593391,0.09998019,0.1684436,1.464005,0.1252757,0.4769096,1.67078,-0.07004828,-0.3947188,1.57375,0.1330464,0.1180158,1.540375,0.1187897,0.008201413,1.685426,0.1184739,-0.3227657,1.664312,-0.06498999,0.2008462,1.673504,0.03058004,-0.3164734,1.632404,-0.1184747,-0.06147576,1.679557,0.324499,0.01515361,1.500628,NA,NA,NotTracked,Unknown,
-0.4272461,0.6601563,0.3232422,0.9379883,-0.2910156,-0.112793,0,11,4,3,4,-1,-1,-1,-1,-3,-2,-1,-1,-5,-2,-1,-2.4375,-2.4375,-2.4375,3.0625,3.0625,3.0625,6.909615,5.862222,3.778222,2.010446,3.011931,7.754139,-0.1207228,-0.4152408,1.595618,0.1085791,0.1773437,1.470611,0.1263636,0.4763192,1.670813,-0.07186215,-0.3967538,1.578489,0.1366835,0.126629,1.53813,0.1187747,0.008024255,1.685673,0.118983,-0.3240524,1.664029,-0.06189385,0.2012098,1.669453,0.03060898,-0.3181015,1.631693,-0.1177839,-0.06018925,1.679615,0.3232623,0.01787118,1.494704,NA,NA,NotTracked,Unknown,
-0.465332,0.7475586,0.2753906,0.9379883,-0.2910156,-0.112793,6,12,7,5,2,0,-2,-4,-1,-3,-2,-1,-1,-5,-2,-1,0.4375,0.4375,0.4375,3.0625,3.0625,3.0625,6.960456,5.913788,3.829437,2.010446,3.011931,7.754139,-0.1216441,-0.4151234,1.597683,0.1121777,0.1812,1.472646,0.1272623,0.475836,1.670957,-0.07125081,-0.4101817,1.568072,0.1280354,0.1987811,1.4975,0.1187553,0.007950838,1.685778,0.119135,-0.3251467,1.663746,-0.06097797,0.201921,1.668624,0.03032905,-0.3194885,1.631218,-0.1175734,-0.05921587,1.679817,0.322245,0.02022343,1.491398,NA,NA,NotTracked,Unknown,
-0.5107422,0.7446289,0.315918,0.9379883,-0.2910156,-0.112793,3,-1,4,0,2,-1,1,-2,-1,-3,-2,-1,-1,-5,-2,-1,3.6875,3.6875,3.6875,3.0625,3.0625,3.0625,6.95291,5.925428,3.825129,2.010446,3.011931,7.754139,-0.1236306,-0.4159018,1.599481,0.1148835,0.1820801,1.474714,0.1276471,0.4754574,1.670795,-0.07192105,-0.3976806,1.576912,0.1518915,0.1202294,1.537722,0.1187496,0.007852035,1.685813,0.1192229,-0.325904,1.663438,-0.06045707,0.2023232,1.668173,0.03013723,-0.3203377,1.630832,-0.1173585,-0.05865607,1.680171,0.3166694,0.02538207,1.4875,NA,NA,NotTracked,Unknown,
-0.5195313,0.7548828,0.2719727,0.9379883,-0.2910156,-0.112793,7,-1,-1,-3,0,-1,-1,0,-1,-3,-2,-1,-1,-5,-2,-1,-5.375,-5.375,-5.375,3.0625,3.0625,3.0625,6.937194,5.92165,3.804927,2.010446,3.011931,7.754139,-0.1265706,-0.416061,1.601818,0.1149663,0.1835833,1.476012,0.1280019,0.4750715,1.670714,-0.07175107,-0.4009821,1.575422,0.1433747,0.1322337,1.539334,0.1187516,0.007716188,1.68587,0.1193954,-0.3263538,1.66325,-0.05963555,0.2027098,1.667609,0.03013373,-0.3208096,1.630627,-0.1172798,-0.05799651,1.68053,0.3144786,0.0275711,1.486731,NA,NA,NotTracked,Unknown,
-0.4863281,0.8222656,0.3256836,0.9379883,-0.2910156,-0.112793,-18,-17,-10,-3,-1,-1,-1,-3,-1,-3,-2,-1,-1,-5,-2,-1,3.9375,3.9375,3.9375,3.0625,3.0625,3.0625,6.924581,5.904897,3.778003,2.010446,3.011931,7.754139,-0.129548,-0.4162954,1.602099,0.1184357,0.1825723,1.477512,0.1282244,0.4749197,1.670683,-0.0742789,-0.4112633,1.580733,0.1409398,0.1388121,1.542722,0.1187496,0.007685014,1.685903,0.1194714,-0.3265691,1.663108,-0.05935278,0.2030068,1.667454,0.03008443,-0.3210095,1.630502,-0.1175323,-0.05753381,1.680759,0.3179135,0.02421678,1.488717,NA,NA,NotTracked,Unknown,
-0.359375,0.8227539,0.3232422,0.9379883,-0.2910156,-0.112793,0,-4,-4,0,-2,-1,0,-2,-1,-3,-2,-1,-1,-5,-2,-1,12.875,12.875,12.875,3.0625,3.0625,3.0625,6.901935,5.889479,3.707517,2.010446,3.011931,7.754139,-0.1337823,-0.4162853,1.599034,0.125549,0.1855573,1.480251,0.1282518,0.4747386,1.67061,-0.07582115,-0.4012628,1.590079,0.1521462,0.1357001,1.548318,0.1191111,0.007016002,1.685214,0.1194592,-0.3267413,1.66292,-0.05945855,0.2032437,1.667857,0.03000235,-0.3211659,1.630461,-0.1180663,-0.05722189,1.680987,0.3289915,0.01584104,1.495592,NA,NA,NotTracked,Unknown,
-0.4526367,0.8051758,0.4086914,0.9379883,-0.2910156,-0.112793,-5,-3,0,1,-3,-1,-3,-6,-1,-3,-2,-1,-1,-5,-2,-1,24.0625,24.0625,24.0625,3.0625,3.0625,3.0625,6.826129,5.891184,3.494744,2.010446,3.011931,7.754139,-0.1352663,-0.4157079,1.593728,0.1413145,0.1982584,1.473391,0.1273671,0.47462,1.670425,-0.07738147,-0.3933498,1.596269,0.1571191,0.1556276,1.5375,0.1191987,0.00561134,1.68419,0.1192008,-0.3271629,1.662768,-0.06108926,0.2036283,1.670054,0.02959072,-0.3217647,1.631004,-0.1188089,-0.05728216,1.681139,0.3380801,0.01028293,1.502668,NA,NA,NotTracked,Unknown,
-0.5634766,0.7841797,0.4492188,0.9379883,-0.2910156,-0.112793,-8,-19,-9,-5,-3,-2,0,-2,-1,-3,-2,-1,-1,-5,-2,-1,30.9375,30.9375,30.9375,3.0625,3.0625,3.0625,6.747324,5.913373,3.250665,2.010446,3.011931,7.754139,-0.1354468,-0.4144983,1.589712,0.1657946,0.206081,1.47465,0.1245012,0.4754204,1.670091,-0.07819598,-0.3906725,1.596667,0.174491,0.1638905,1.5425,0.1185805,0.004919121,1.683159,0.1186064,-0.3278967,1.662428,-0.06617089,0.202812,1.674428,0.02854392,-0.3229909,1.632334,-0.1201889,-0.05928324,1.681756,0.3456496,0.01128956,1.51283,NA,NA,NotTracked,Unknown,
-0.6708984,0.6860352,0.519043,0.9379883,-0.2910156,-0.112793,4,-3,-2,-1,2,-3,-1,-1,-1,-3,-2,-1,-1,-5,-2,-1,52.125,52.125,52.125,3.0625,3.0625,3.0625,6.675403,5.928498,2.97602,2.010446,3.011931,7.754139,-0.1357139,-0.4146195,1.588668,0.2154767,0.2002167,1.466931,0.1214945,0.4758832,1.669419,-0.08013762,-0.4070535,1.592611,0.2225993,0.1603072,1.544889,0.1174919,0.004666673,1.682377,0.118045,-0.3283144,1.662013,-0.06902789,0.202922,1.675888,0.02778128,-0.3235684,1.633208,-0.1210815,-0.05971144,1.681784,0.3637198,0.004516619,1.541604,NA,NA,NotTracked,Unknown,
-0.7368164,0.5683594,0.5209961,0.9379883,-0.2910156,-0.112793,-2,-13,-6,-3,-9,-1,1,3,-1,-3,-2,-1,-1,-5,-2,-1,54.875,54.875,54.875,3.0625,3.0625,3.0625,6.598231,5.930721,2.551359,2.010446,3.011931,7.754139,-0.1358187,-0.4149418,1.590495,0.2495922,0.1954534,1.469648,0.1193964,0.4760758,1.668764,-0.07942485,-0.4068953,1.588885,0.2360602,0.1663458,1.53925,0.1166678,0.004997208,1.682233,0.1173547,-0.3283232,1.661981,-0.07052654,0.2035103,1.676292,0.0271488,-0.3235689,1.63383,-0.1216374,-0.05939088,1.681388,0.3700019,0.00770829,1.557482,NA,NA,NotTracked,Unknown,
-0.7250977,0.5834961,0.4941406,0.9379883,-0.2910156,-0.112793,-1,2,4,3,4,3,-1,3,-1,-3,-2,-1,-1,-5,-2,-1,54.5625,54.5625,54.5625,3.0625,3.0625,3.0625,6.577568,5.936623,2.364086,2.010446,3.011931,7.754139,-0.135889,-0.4163645,1.594533,0.2665699,0.1944354,1.476327,0.1180707,0.4759409,1.667851,-0.08001953,-0.4104041,1.58795,0.2374439,0.1700642,1.535545,0.1163788,0.005036573,1.682023,0.116863,-0.3283442,1.661712,-0.07120428,0.2035989,1.676161,0.02681294,-0.3235228,1.633631,-0.1217639,-0.0594131,1.681242,0.3725159,0.0136311,1.569838,NA,NA,NotTracked,Closed,
-0.7451172,0.574707,0.4755859,0.9379883,-0.2910156,-0.112793,0,-1,-6,-2,-5,0,1,2,-1,-3,-2,-1,-1,-5,-2,-1,36.3125,36.3125,36.3125,3.0625,3.0625,3.0625,6.564363,5.942174,2.229321,2.010446,3.011931,7.754139,-0.1367936,-0.4170186,1.597484,0.2977703,0.1793438,1.47403,0.1174709,0.4757721,1.667281,-0.07858145,-0.4044186,1.587924,0.2622378,0.1607933,1.5485,0.1162847,0.005069803,1.681836,0.1168877,-0.3283129,1.661467,-0.0714138,0.2036087,1.675994,0.02696024,-0.323414,1.632987,-0.1219604,-0.0594009,1.68113,0.3747132,0.015234,1.579721,NA,NA,NotTracked,Closed,
-0.7182617,0.605957,0.4985352,0.9379883,-0.2910156,-0.112793,4,4,0,9,3,1,1,-2,-1,-3,-2,-1,-1,-5,-2,-1,16.3125,16.3125,16.3125,3.0625,3.0625,3.0625,6.552039,5.937823,2.145168,2.010446,3.011931,7.754139,-0.1378487,-0.4168665,1.598596,0.2987973,0.1797268,1.474005,0.1172062,0.4756653,1.66694,-0.07861959,-0.423878,1.582,0.2342971,0.1796901,1.514,0.1162462,0.005126915,1.681601,0.1169621,-0.3282657,1.661236,-0.07157447,0.2036748,1.675685,0.02710589,-0.3232739,1.6324,-0.1221231,-0.05931329,1.681062,0.3757124,0.01658458,1.585552,NA,NA,NotTracked,Unknown,
-0.6699219,0.6445313,0.4873047,0.9379883,-0.2910156,-0.112793,2,-2,1,-4,-6,1,0,1,-1,-3,-2,-1,-1,-5,-2,-1,3.875,3.875,3.875,3.0625,3.0625,3.0625,6.539688,5.941478,2.101144,2.010446,3.011931,7.754139,-0.1385531,-0.4166307,1.59602,0.3000643,0.1789188,1.470676,0.1169672,0.4757227,1.666512,-0.07906573,-0.402884,1.5904,0.2422098,0.180484,1.515267,0.1162086,0.005170892,1.681558,0.1169199,-0.3282344,1.66122,-0.07174934,0.2037617,1.674974,0.0271724,-0.3231469,1.632073,-0.1223625,-0.05916188,1.680926,0.3760477,0.01702649,1.587465,NA,NA,NotTracked,Unknown,
-0.6245117,0.6870117,0.4824219,0.9379883,-0.2910156,-0.112793,-1,-2,1,2,23,6,3,2,-1,-3,-2,-1,-1,-5,-2,-1,1.0625,1.0625,1.0625,3.0625,3.0625,3.0625,6.535798,5.946521,2.09005,2.010446,3.011931,7.754139,-0.1395375,-0.4169769,1.59494,0.2970844,0.1798257,1.469842,0.1169008,0.4756417,1.666196,-0.1085293,-0.3983338,1.571178,0.2316119,0.1738218,1.495883,0.1162639,0.005199879,1.681512,0.1171272,-0.3281669,1.661055,-0.0719404,0.2037335,1.674837,0.0274665,-0.3230315,1.63151,-0.1225854,-0.05920633,1.680557,0.3760539,0.01721556,1.588062,NA,NA,NotTracked,Unknown,
-0.5913086,0.6708984,0.4790039,0.9379883,-0.2910156,-0.112793,1,13,3,-1,-4,0,8,-1,-1,-3,-2,-1,-1,-5,-2,-1,-2.9375,-2.9375,-2.9375,3.0625,3.0625,3.0625,6.526773,5.947146,2.08812,2.010446,3.011931,7.754139,-0.1382236,-0.4160534,1.590239,0.2939921,0.1800415,1.468837,0.1168871,0.4756722,1.666071,-0.1068022,-0.4013579,1.569294,0.2405305,0.1806856,1.522692,0.1163099,0.005248525,1.68143,0.1172825,-0.3281058,1.660975,-0.07199788,0.2036028,1.674653,0.0277735,-0.322895,1.631119,-0.1226119,-0.05935921,1.6802,0.3760234,0.01717846,1.588155,NA,NA,NotTracked,Unknown,
-0.5820313,0.6899414,0.4956055,0.9379883,-0.2910156,-0.112793,3,14,9,6,-2,-2,-2,-1,-1,-3,-2,-1,-1,-5,-2,-1,-0.75,-0.75,-0.75,3.0625,3.0625,3.0625,6.526929,5.950699,2.090105,2.010446,3.011931,7.754139,-0.1375408,-0.4150686,1.589198,0.2954209,0.1790557,1.46765,0.116965,0.4755511,1.666071,-0.1061257,-0.3977792,1.565128,0.2331032,0.1665386,1.4948,0.1163592,0.005197824,1.681584,0.1173074,-0.3281606,1.661164,-0.07196375,0.2036032,1.674615,0.02779736,-0.3229161,1.631124,-0.1226034,-0.05936381,1.680062,0.3759297,0.01714925,1.588184,NA,NA,NotTracked,Unknown,
-0.5644531,0.6943359,0.4882813,0.9379883,-0.2910156,-0.112793,-7,-15,-5,12,-12,-4,-1,-3,-1,-3,-2,-1,-1,-5,-2,-1,0.0625,0.0625,0.0625,3.0625,3.0625,3.0625,6.522218,5.950189,2.092682,2.010446,3.011931,7.754139,-0.1352061,-0.4179374,1.587787,0.2929083,0.1789246,1.467976,0.1171122,0.475436,1.665986,-0.1049114,-0.3969749,1.565756,0.2338664,0.1667708,1.514429,0.1164527,0.005187199,1.6816,0.1174106,-0.3281938,1.661157,-0.07191999,0.2033823,1.674515,0.02793657,-0.3229462,1.631049,-0.122535,-0.05959592,1.679875,0.3756006,0.01695669,1.588351,NA,NA,NotTracked,Unknown,
-0.5830078,0.6801758,0.4902344,0.9379883,-0.2910156,-0.112793,4,36,5,1,-4,-1,1,-2,-1,-3,-2,-1,-1,-5,-2,-1,-0.625,-0.625,-0.625,3.0625,3.0625,3.0625,6.513942,5.943753,2.085573,2.010446,3.011931,7.754139,-0.1339601,-0.4183582,1.587825,0.2965994,0.1761237,1.466969,0.1173465,0.4754758,1.66591,-0.1029921,-0.3990853,1.565574,0.2335481,0.1678041,1.4868,0.1167098,0.005210766,1.681602,0.1175969,-0.328141,1.661109,-0.07191577,0.2034097,1.674536,0.0281162,-0.322911,1.630877,-0.1224301,-0.0596104,1.679668,0.3755718,0.0167613,1.588462,NA,NA,NotTracked,Unknown,
-0.5859375,0.6938477,0.503418,0.9379883,-0.2910156,-0.112793,-8,-11,3,2,3,1,-1,-3,-1,-3,-2,-1,-1,-5,-2,-1,1.75,1.75,1.75,3.0625,3.0625,3.0625,6.510798,5.932908,2.073264,2.010446,3.011931,7.754139,-0.1327164,-0.4179631,1.590474,0.2955478,0.1754396,1.467069,0.1176214,0.4755168,1.665762,-0.1030978,-0.3952482,1.56723,0.2382662,0.1644474,1.509087,0.1168416,0.00526227,1.68168,0.1176514,-0.3280843,1.661164,-0.07187304,0.2034255,1.674503,0.02815717,-0.3228327,1.630872,-0.122371,-0.05959917,1.679626,0.375346,0.01606772,1.589477,NA,NA,NotTracked,Unknown,
-0.5913086,0.6826172,0.5039063,0.9379883,-0.2910156,-0.112793,-6,-15,-4,3,-2,1,-1,-4,-1,-3,-2,-1,-1,-5,-2,-1,-0.75,-0.75,-0.75,3.0625,3.0625,3.0625,6.502499,5.917289,2.061982,2.010446,3.011931,7.754139,-0.1316324,-0.4189346,1.594219,0.2937469,0.1738022,1.469328,0.1179774,0.4753414,1.665617,-0.0941467,-0.4088654,1.592917,0.2338943,0.171009,1.498945,0.117192,0.005209457,1.681705,0.1178688,-0.3280331,1.661089,-0.07176458,0.2033924,1.674431,0.0284659,-0.3227595,1.630615,-0.1221683,-0.05963502,1.679721,0.3752017,0.01545997,1.590285,NA,NA,NotTracked,Unknown,
-0.6000977,0.6806641,0.4936523,0.9379883,-0.2910156,-0.112793,0,-7,-3,0,5,0,-4,-3,-1,-3,-2,-1,-1,-5,-2,-1,-0.8125,-0.8125,-0.8125,3.0625,3.0625,3.0625,6.498932,5.913177,2.059393,2.010446,3.011931,7.754139,-0.1316757,-0.4166074,1.594946,0.2920251,0.1727748,1.468207,0.1184264,0.4752612,1.665405,-0.08658518,-0.4264135,1.598727,0.2370898,0.1618339,1.517077,0.1173248,0.005195037,1.681723,0.11787,-0.3280257,1.661136,-0.07154214,0.2032928,1.674301,0.02847265,-0.322723,1.630596,-0.1219513,-0.05970398,1.679901,0.3752052,0.01480568,1.591124,NA,NA,NotTracked,Unknown,
-0.527832,0.6655273,0.5014648,0.9379883,-0.2910156,-0.112793,-5,16,3,0,-5,-2,-2,-5,-1,-3,-2,-1,-1,-5,-2,-1,-0.125,-0.125,-0.125,3.0625,3.0625,3.0625,6.498063,5.896238,2.058048,2.010446,3.011931,7.754139,-0.1312776,-0.4185507,1.598672,0.2896561,0.169488,1.467858,0.1188888,0.4751294,1.665335,-0.07681546,-0.4037786,1.5914,0.2673962,0.1473516,1.5545,0.1174319,0.005226546,1.681817,0.1179627,-0.3279945,1.661226,-0.07124396,0.2032723,1.674218,0.02851869,-0.3226799,1.630574,-0.1216012,-0.05972631,1.679914,0.375239,0.01394654,1.592452,NA,NA,NotTracked,Unknown,
-0.503418,0.6323242,0.5058594,0.9379883,-0.2910156,-0.112793,2,0,0,4,1,0,-1,-1,-1,-3,-2,-1,-1,-5,-2,-1,7.3125,7.3125,7.3125,3.0625,3.0625,3.0625,6.502298,5.841191,2.063593,2.010446,3.011931,7.754139,-0.1314963,-0.4178374,1.599697,0.2812422,0.1547208,1.461436,0.1196043,0.4749269,1.665099,-0.07715447,-0.4043811,1.589974,0.2273907,0.1484543,1.497235,0.1177585,0.005387829,1.681884,0.1182044,-0.3276611,1.661258,-0.07103246,0.2032476,1.674097,0.02869874,-0.3223283,1.630436,-0.121279,-0.05974243,1.68011,0.3750127,0.01269981,1.593783,NA,NA,NotTracked,Unknown,
-0.4023438,0.6269531,0.5004883,0.9379883,-0.2910156,-0.112793,-8,3,-4,-1,-9,0,-1,-2,-1,-3,-2,-1,-1,-5,-2,-1,-12.1875,-12.1875,-12.1875,3.0625,3.0625,3.0625,6.494567,5.669406,2.068462,2.010446,3.011931,7.754139,-0.1304105,-0.4170168,1.598851,0.2681431,0.1252981,1.446844,0.1202182,0.4748202,1.66499,-0.07926223,-0.4047207,1.590172,0.209219,0.1104333,1.487846,0.1180395,0.005479285,1.681959,0.1185252,-0.3271933,1.661341,-0.07075194,0.2032287,1.674031,0.02898516,-0.3219106,1.6304,-0.1210847,-0.05972645,1.680234,0.3742083,-0.00792605,1.612321,NA,NA,NotTracked,Unknown,
-0.3212891,0.6933594,0.5200195,0.9379883,-0.2910156,-0.112793,-1,2,1,6,0,0,-2,-2,-1,-3,-2,-1,-1,-5,-2,-1,0.9375,0.9375,0.9375,3.0625,3.0625,3.0625,6.494501,5.480431,2.080257,2.010446,3.011931,7.754139,-0.1284004,-0.419552,1.596643,0.2641214,0.07790502,1.427204,0.120972,0.4745348,1.66501,-0.07699997,-0.3961299,1.59387,0.194442,0.06112197,1.452,0.1182382,0.005584636,1.682024,0.1187957,-0.3266687,1.661481,-0.07056475,0.2031928,1.674071,0.02930618,-0.3214229,1.630428,-0.1207906,-0.05980505,1.680053,0.3728766,-0.01640286,1.612579,NA,NA,NotTracked,Unknown,
-0.2568359,0.6933594,0.5449219,0.9379883,-0.2910156,-0.112793,1,-6,-1,15,1,-2,0,-3,-1,-3,-2,-1,-1,-5,-2,-1,23.125,23.125,23.125,3.0625,3.0625,3.0625,6.516922,5.248911,2.090267,2.010446,3.011931,7.754139,-0.1254749,-0.41936,1.597161,0.2479457,0.01155697,1.410274,0.1215748,0.4742217,1.66514,-0.07416349,-0.4109343,1.578286,0.180879,-0.01247143,1.457417,0.1183066,0.005634761,1.682202,0.1187928,-0.3264348,1.661684,-0.07016527,0.2031025,1.674331,0.02941519,-0.3211385,1.63056,-0.1201334,-0.05996171,1.680135,0.3787412,-0.03454765,1.603572,NA,NA,NotTracked,Closed,
0.02636719,0.7197266,0.5957031,0.9379883,-0.2910156,-0.112793,1,-4,-6,-2,-1,-2,-1,0,-1,-3,-2,-1,-1,-5,-2,-1,24,24,24,3.0625,3.0625,3.0625,6.567493,4.87202,2.126023,2.010446,3.011931,7.754139,-0.1241289,-0.4159837,1.597565,0.2512911,-0.07166365,1.397373,0.1219891,0.4742411,1.665323,-0.0806038,-0.3945152,1.607,0.1898259,-0.1283103,1.435615,0.1183172,0.0057361,1.682285,0.1186346,-0.3261249,1.661774,-0.06983609,0.2029945,1.674474,0.02932654,-0.3206131,1.630626,-0.1198458,-0.06006216,1.680262,0.374581,-0.04023404,1.597246,NA,NA,NotTracked,Lasso,
0.1274414,0.8554688,0.4150391,0.9379883,-0.2910156,-0.112793,-2,-12,-3,-2,-2,1,-1,-1,-1,-3,-2,-1,-1,-5,-2,-1,63.75,63.75,63.75,3.0625,3.0625,3.0625,6.645443,4.55319,2.182033,2.010446,3.011931,7.754139,-0.1228105,-0.41582,1.598645,0.2548563,-0.1655504,1.397949,0.1221733,0.4742057,1.66549,-0.0786365,-0.384318,1.6052,0.2256947,-0.2419621,1.4285,0.1183316,0.005775326,1.682336,0.1185347,-0.3260309,1.66166,-0.06974843,0.2028635,1.674669,0.02933034,-0.3202846,1.630312,-0.1195162,-0.06025154,1.680318,0.3835909,-0.0424157,1.615777,NA,NA,NotTracked,Unknown,
