ALX,ALY,ALZ,ARX,ARY,ARZ,EMG0L,EMG1L,EMG2L,EMG3L,EMG4L,EMG5L,EMG6L,EMG7L,EMG0R,EMG1R,EMG2R,EMG3R,EMG4R,EMG5R,EMG6R,EMG7R,GLX,GLY,GLZ,GRX,GRY,GRZ,ORL,OPL,OYL,ORR,OPR,OYR,LHNX,LHNY,LHNZ,RHNX,RHNY,RHNZ,HX,HY,HZ,LTX,LTY,LTZ,RTX,RTY,RTZ,SpineMidX,SpineMidY,SpineMidZ,SpineBaseX,SpineBaseY,SpineBaseZ,ShoulderLeftX,ShoulderLeftY,ShoulderLeftZ,ShoulderRightX,ShoulderRightY,ShoulderRightZ,ElbowLeftX,ElbowLeftY,ElbowLeftZ,ElbowRightX,ElbowRightY,ElbowRightZ,Myo_Pose_left,Myo_Pose_Right,Kinect_pose_left,Kinect_pose_right
0.9462891,0.2299805,0.05566406,0.9433594,-0.3085938,-0.1005859,-3,0,0,-1,-2,-1,-1,0,-1,0,0,-1,-1,0,-1,0,0.3125,0.3125,0.3125,-0.5625,-0.5625,-0.5625,7.124999,2.891021,5.960737,2.00048,3.024388,6.46942,-0.14312,-0.4055521,1.492362,0.2873755,-0.4119332,1.474433,0.08460665,0.4787555,1.583427,-0.1945343,-0.407118,1.499158,0.2388047,-0.3974009,1.439004,0.07934179,0.007966318,1.589114,0.07974167,-0.3260637,1.56639,-0.1080115,0.2012331,1.582537,-0.007183702,-0.3186844,1.535093,-0.152109,-0.08815917,1.576079,0.3079885,-0.08529259,1.547705,NA,NA,NotTracked,NotTracked,
0.9448242,0.2294922,0.05126953,0.9423828,-0.315918,-0.09521484,-3,-2,-1,-2,-1,0,-2,-2,-1,-1,0,-2,-2,-2,0,-1,1.8125,1.8125,1.8125,-0.25,-0.25,-0.25,7.130851,2.890671,5.957935,2.001096,3.024188,6.468786,-0.1432645,-0.4063608,1.49304,0.2873204,-0.4116747,1.474892,0.08442472,0.4786964,1.583361,-0.1951433,-0.4086183,1.501426,0.2389664,-0.3946398,1.439693,0.07927088,0.007970126,1.589072,0.07967668,-0.3260666,1.566351,-0.1080559,0.2012707,1.582475,-0.007224059,-0.3186844,1.535069,-0.1521322,-0.08817937,1.576049,0.3079367,-0.08516653,1.547494,NA,NA,NotTracked,NotTracked,
0.9521484,0.2314453,0.05175781,0.9418945,-0.3046875,-0.1000977,-2,-1,-1,-1,0,-1,0,-3,-2,-1,-1,-1,-1,-1,-2,-3,2.0625,2.0625,2.0625,-1.0625,-1.0625,-1.0625,7.133909,2.889756,5.958158,2.002361,3.024203,6.466885,-0.1433987,-0.4058583,1.49307,0.2874945,-0.4121925,1.474998,0.08423433,0.4787328,1.583299,-0.1950908,-0.4078175,1.499612,0.2391639,-0.3937401,1.440721,0.07921879,0.008012552,1.589032,0.07962067,-0.3260477,1.566314,-0.1080876,0.2013524,1.582435,-0.007266819,-0.3186707,1.535035,-0.1522028,-0.08822009,1.576009,0.3078588,-0.08507162,1.547312,NA,NA,NotTracked,NotTracked,
0.9477539,0.2353516,0.05615234,0.9414063,-0.3017578,-0.1054688,-8,-1,0,-1,-3,-1,-1,-1,0,-1,-2,-1,-3,0,1,0,0.3125,0.3125,0.3125,-1,-1,-1,7.135403,2.88925,5.958032,2.001936,3.024755,6.465877,-0.1437027,-0.4057525,1.491699,0.2871883,-0.411655,1.473666,0.08398525,0.4787132,1.583085,-0.1949949,-0.4079985,1.500164,0.238841,-0.3952764,1.439192,0.07903201,0.007941182,1.588835,0.07953021,-0.3260859,1.566216,-0.1082164,0.2013488,1.582219,-0.007356555,-0.3186996,1.534926,-0.1522668,-0.08829098,1.575808,0.3077229,-0.08500244,1.547053,NA,NA,NotTracked,NotTracked,
0.9370117,0.2314453,0.04199219,0.9448242,-0.3032227,-0.1005859,0,0,1,0,-2,-1,-1,-1,0,-1,0,-2,1,0,-2,0,0,0,0,-1.4375,-1.4375,-1.4375,7.1365,2.8893,5.957011,2.002341,3.023831,6.462899,-0.1433979,-0.4060357,1.492712,0.2873229,-0.4119237,1.47507,0.08381042,0.4787159,1.582934,-0.1957425,-0.4044276,1.500244,0.2385774,-0.3964864,1.439337,0.0788409,0.007975199,1.588752,0.07943521,-0.3260598,1.566185,-0.1083736,0.2013532,1.582109,-0.007418611,-0.318682,1.534896,-0.1523799,-0.08824698,1.575792,0.3076961,-0.08501122,1.547011,NA,NA,NotTracked,NotTracked,
0.9487305,0.2348633,0.04785156,0.9399414,-0.3125,-0.09375,2,0,-4,-1,0,-1,0,-1,-3,-1,-1,0,-1,-2,-1,-1,1.1875,1.1875,1.1875,-1.75,-1.75,-1.75,7.136308,2.889403,5.957575,2.003465,3.023185,6.458523,-0.143867,-0.4059604,1.49326,0.2873759,-0.4119988,1.475037,0.0835685,0.478787,1.582859,-0.195277,-0.4099922,1.49927,0.2390039,-0.3938061,1.440454,0.07872754,0.008013247,1.588727,0.07934491,-0.3260366,1.566157,-0.1085162,0.2013581,1.581968,-0.007506884,-0.318675,1.534881,-0.152494,-0.08829653,1.575682,0.3076741,-0.08499883,1.546989,NA,NA,NotTracked,NotTracked,
0.9545898,0.2597656,0.03564453,0.9433594,-0.3105469,-0.08300781,-2,9,2,1,-1,-1,-1,6,-2,0,0,0,-2,-1,0,-1,4.75,4.75,4.75,-0.75,-0.75,-0.75,7.149375,2.89359,5.950415,2.005461,3.023045,6.455281,-0.1439644,-0.4064034,1.491364,0.2874284,-0.4111762,1.473872,0.0833519,0.4788774,1.582792,-0.1961213,-0.4094408,1.500826,0.2391727,-0.3816642,1.440438,0.07859562,0.008044366,1.588619,0.07926299,-0.3260172,1.566099,-0.10882,0.2013639,1.581802,-0.007576269,-0.3186688,1.534847,-0.1527133,-0.08829398,1.57556,0.3076308,-0.08493196,1.546935,NA,NA,NotTracked,NotTracked,
0.9755859,0.4916992,0.03759766,0.9428711,-0.3066406,-0.09960938,9,-3,0,-2,-1,-2,0,-1,-1,-2,-3,0,0,-1,1,-2,-25.1875,-25.1875,-25.1875,0.3125,0.3125,0.3125,7.182009,2.95538,5.888807,2.008451,3.023148,6.452592,-0.1434965,-0.4058175,1.491756,0.287315,-0.4103538,1.469864,0.08301292,0.4788538,1.582791,-0.195626,-0.4096981,1.500786,0.2389532,-0.3989412,1.439367,0.07850902,0.008080171,1.5886,0.0792205,-0.326021,1.5661,-0.1090507,0.2013904,1.581663,-0.007620309,-0.3186769,1.53484,-0.1528964,-0.08841843,1.575376,0.3076083,-0.08487365,1.546886,NA,NA,NotTracked,NotTracked,
0.8935547,0.7802734,-0.002929688,0.9438477,-0.3105469,-0.1069336,5,10,5,1,1,0,-2,3,-4,0,-1,-2,-3,0,-2,1,-62.1875,-62.1875,-62.1875,-2.4375,-2.4375,-2.4375,7.147357,3.108917,5.822518,2.00967,3.023291,6.448866,-0.143783,-0.406155,1.491825,0.2795128,-0.4053689,1.446708,0.08266794,0.4788952,1.582688,-0.195259,-0.4080834,1.500648,0.2312168,-0.3993917,1.431735,0.07839581,0.008103355,1.588513,0.07917403,-0.3260032,1.56606,-0.1092387,0.2012888,1.581488,-0.007689531,-0.3186568,1.534747,-0.1529825,-0.08853965,1.575191,0.307679,-0.0838906,1.546114,NA,NA,NotTracked,NotTracked,
0.9726563,0.684082,0.2089844,0.9311523,-0.309082,-0.09716797,0,1,-5,-1,-1,-1,-2,3,-2,-1,-1,-2,-1,-3,0,-2,-77.6875,-77.6875,-77.6875,-5.625,-5.625,-5.625,6.963752,3.346751,5.873572,2.007894,3.023689,6.441278,-0.1439666,-0.4058058,1.490659,0.2694201,-0.3829027,1.387319,0.0824213,0.4787813,1.582544,-0.1942128,-0.400691,1.495256,0.2417158,-0.4063345,1.39475,0.0781874,0.008110957,1.588455,0.07878872,-0.3259583,1.565974,-0.1094091,0.2011966,1.581075,-0.008143285,-0.3185117,1.534552,-0.153207,-0.08852231,1.575062,0.3086084,-0.08023079,1.542292,NA,NA,NotTracked,NotTracked,
0.8525391,0.7607422,0.3945313,0.9414063,-0.3144531,-0.07568359,-20,-9,-4,-3,-1,1,-2,-5,0,-2,-4,-1,1,-1,-5,-1,-30.25,-30.25,-30.25,-6.75,-6.75,-6.75,6.811757,3.793974,5.929925,2.009758,3.024863,6.428598,-0.1439759,-0.4060433,1.491266,0.2463134,-0.3264017,1.304108,0.0821614,0.4788239,1.582553,-0.1949725,-0.4045323,1.497216,0.2217203,-0.3093354,1.276618,0.07741597,0.008268876,1.588488,0.07698388,-0.3255991,1.565918,-0.1095271,0.2011937,1.580991,-0.01024428,-0.3177727,1.534272,-0.1534405,-0.08850566,1.574952,0.3100075,-0.06771928,1.533654,NA,NA,NotTracked,Unknown,
0.6660156,0.8378906,0.4658203,0.9575195,-0.3105469,-0.08349609,-18,2,2,3,-1,0,0,2,0,0,-2,-1,-1,-3,0,0,-1.1875,-1.1875,-1.1875,-3.1875,-3.1875,-3.1875,6.770981,4.187769,5.95841,2.014437,3.027113,6.416599,-0.1432398,-0.4058701,1.489523,0.2212488,-0.2388307,1.226065,0.08198399,0.4786911,1.582519,-0.1941704,-0.4080254,1.494754,0.1933767,-0.2123226,1.20788,0.07608065,0.008375747,1.588488,0.07326223,-0.3252247,1.565423,-0.1095708,0.2011593,1.58089,-0.01419936,-0.3165151,1.533362,-0.1536864,-0.08839567,1.574449,0.3097358,-0.04759042,1.522247,NA,NA,NotTracked,Lasso,
0.4360352,0.9301758,0.4702148,0.956543,-0.2871094,-0.1079102,28,-5,-7,-1,-4,-1,-1,4,-3,1,-2,-2,-2,-1,-2,-1,22.9375,22.9375,22.9375,-1.125,-1.125,-1.125,6.778084,4.603566,5.999287,2.023194,3.029963,6.405537,-0.143024,-0.4057564,1.490168,0.1978086,-0.1319611,1.162659,0.08196238,0.4786586,1.582571,-0.1954768,-0.4210993,1.498143,0.1870564,-0.09406106,1.149867,0.07560349,0.008513858,1.588795,0.07248352,-0.3249422,1.565642,-0.1096239,0.2011793,1.580939,-0.01479311,-0.3161972,1.533607,-0.1536838,-0.08439665,1.574108,0.3565598,-0.02103677,1.465791,NA,NA,NotTracked,Unknown,
0.1499023,0.9697266,0.456543,0.9360352,-0.2797852,-0.1230469,48,4,2,1,-1,-2,2,10,-1,-1,-1,-1,-2,0,-1,0,35.5,35.5,35.5,4.625,4.625,4.625,6.824925,5.02407,6.061539,2.010766,3.03312,6.42241,-0.143713,-0.4066727,1.491187,0.1790589,-0.008615866,1.131437,0.08206937,0.4785302,1.582833,-0.1952266,-0.4010975,1.499193,0.1462407,0.02985577,1.133,0.07553707,0.008524936,1.589509,0.07281956,-0.3247319,1.566273,-0.1095372,0.2012963,1.581243,-0.01420222,-0.31635,1.534999,-0.1538509,-0.08391081,1.574332,0.3467258,-0.008498763,1.440186,NA,NA,NotTracked,Unknown,
-0.1938477,0.8891602,0.3706055,0.9365234,-0.2998047,-0.09814453,13,-3,-3,-1,-2,-1,-2,5,-2,-1,-1,-1,-1,1,-1,-2,40.6875,40.6875,40.6875,6.625,6.625,6.625,6.933624,5.552061,6.189714,1.999164,3.03358,6.44379,-0.1448922,-0.4074789,1.491782,0.1660171,0.1131409,1.132216,0.08237642,0.4781908,1.58311,-0.198233,-0.4137669,1.501493,0.1321062,0.1494263,1.096727,0.07548951,0.00854356,1.59009,0.07367451,-0.3248435,1.567048,-0.1093125,0.2012069,1.581796,-0.01319747,-0.3170055,1.535925,-0.1541414,-0.08467335,1.5745,0.3244675,0.006113674,1.399175,NA,NA,NotTracked,Unknown,
-0.3862305,0.7563477,0.3100586,0.9301758,-0.3134766,-0.08203125,1,4,0,-2,-3,-1,0,-1,-1,-2,1,-1,1,-1,0,-1,51.9375,51.9375,51.9375,9.0625,9.0625,9.0625,7.073486,5.898275,6.3255,1.9959,3.031886,6.463563,-0.1456441,-0.4061803,1.493085,0.1585588,0.2189748,1.157867,0.0822989,0.4781263,1.583153,-0.1984273,-0.4130484,1.501742,0.140412,0.2164731,1.199667,0.07533491,0.008143311,1.590255,0.07368058,-0.3264277,1.567222,-0.1092051,0.2011937,1.582471,-0.01368199,-0.3191946,1.537177,-0.1545597,-0.08467665,1.575402,0.3158663,0.02526908,1.373178,NA,NA,NotTracked,Unknown,
-0.5600586,0.6953125,0.2138672,0.9321289,-0.3330078,-0.08349609,-12,-3,-1,-2,-2,0,-3,-9,-3,1,-3,1,-1,-2,0,1,48.6875,48.6875,48.6875,8.25,8.25,8.25,7.269688,6.191342,6.51248,1.999513,3.030078,6.482124,-0.1468256,-0.4064559,1.496464,0.155618,0.3002446,1.208606,0.08105439,0.4775982,1.582545,-0.197357,-0.4093208,1.500931,0.1312813,0.3137146,1.246,0.07503084,0.008263922,1.590372,0.07320862,-0.3263749,1.567463,-0.1078755,0.201546,1.584041,-0.01494787,-0.3189557,1.538191,-0.154586,-0.08337807,1.576963,0.3211102,0.05321176,1.342868,NA,NA,NotTracked,Unknown,
-0.5952148,0.5786133,0.06396484,0.9233398,-0.3383789,-0.09130859,9,2,4,2,-2,-3,0,0,-1,0,-1,-2,0,0,-2,-1,42.9375,42.9375,42.9375,5.5,5.5,5.5,7.631566,6.472652,6.861553,2.017594,3.033926,6.483145,-0.1467999,-0.4040226,1.497366,0.1527459,0.359455,1.253201,0.07855416,0.4720687,1.580291,-0.1975659,-0.4100467,1.503648,0.1506275,0.3250106,1.322222,0.07484423,0.008499322,1.590433,0.07280985,-0.3258689,1.567502,-0.105048,0.2024979,1.584378,-0.01587723,-0.3180928,1.538484,-0.1546116,-0.07969947,1.579213,0.3208879,0.08592715,1.32212,NA,NA,NotTracked,Open,
-0.8457031,0.4853516,-0.1552734,0.9321289,-0.3334961,-0.09765625,3,-3,-5,-5,-2,-1,0,-3,1,-3,-1,-1,-4,0,-2,2,34.5,34.5,34.5,5.875,5.875,5.875,7.968641,6.604321,7.198573,2.026604,3.039071,6.482594,-0.1478562,-0.404178,1.496934,0.1562002,0.3848633,1.297549,0.0771706,0.4686345,1.578821,-0.1986946,-0.410185,1.50641,0.1341528,0.3945567,1.330524,0.07494994,0.009153321,1.590371,0.07237122,-0.3241566,1.5674,-0.1039718,0.2028314,1.583821,-0.01664516,-0.3160904,1.538828,-0.15454,-0.07857155,1.579998,0.3237789,0.1028259,1.315145,NA,NA,NotTracked,Unknown,
-1.317383,0.3408203,-0.4467773,0.9423828,-0.3071289,-0.1044922,9,2,0,2,0,5,1,0,-2,-2,0,-2,-1,-1,-2,-1,20.6875,20.6875,20.6875,1.4375,1.4375,1.4375,8.348701,6.660954,7.589866,2.026808,3.040509,6.490525,-0.1475918,-0.4033997,1.496064,0.1503256,0.4083978,1.33991,0.07641221,0.4658518,1.576275,-0.198157,-0.4114965,1.505058,0.1698701,0.3464173,1.3874,0.07490135,0.009778415,1.590175,0.07210667,-0.3227565,1.567094,-0.1032932,0.202996,1.583469,-0.01705584,-0.3147496,1.538864,-0.1544284,-0.07803965,1.580404,0.3219261,0.1355741,1.302468,NA,NA,NotTracked,Open,
-0.7246094,0.3325195,-0.293457,0.9467773,-0.3100586,-0.1074219,13,2,0,-1,-2,-2,0,-10,0,0,-2,-1,0,-2,-3,-4,5.1875,5.1875,5.1875,0.5625,0.5625,0.5625,8.725317,6.660602,7.991482,2.026735,3.04086,6.490592,-0.1477902,-0.403486,1.496237,0.1452128,0.4178245,1.370573,0.07662325,0.4649116,1.57286,-0.1981695,-0.4099374,1.50434,0.1494535,0.3725951,1.424,0.07446782,0.01039902,1.589971,0.07168224,-0.3216041,1.566769,-0.1027723,0.2030636,1.583089,-0.01762927,-0.3137231,1.53896,-0.1542945,-0.07768829,1.580678,0.3203869,0.1479591,1.298294,NA,NA,NotTracked,Unknown,
-0.7441406,0.2807617,-0.4072266,0.9379883,-0.3232422,-0.09179688,-3,-1,-2,-1,-1,0,3,10,-1,0,-1,-1,-2,-2,-1,0,-4.5625,-4.5625,-4.5625,-0.375,-0.375,-0.375,8.865467,6.624083,8.160675,2.025042,3.039959,6.492014,-0.1479492,-0.4037577,1.495385,0.13119,0.4273795,1.399923,0.07717227,0.4651352,1.570664,-0.1981337,-0.4106618,1.50545,0.1100174,0.3763987,1.461818,0.07412235,0.01078881,1.589675,0.07141814,-0.3207991,1.566196,-0.1026251,0.2030952,1.582946,-0.01793705,-0.3130618,1.538671,-0.1542239,-0.07712028,1.580701,0.3189842,0.1559784,1.29582,NA,NA,NotTracked,Unknown,
-0.8164063,0.3574219,-0.4389648,0.9375,-0.3300781,-0.08447266,2,4,1,0,-3,-2,-1,1,-1,-2,-1,-2,-2,-1,0,-2,-1.8125,-1.8125,-1.8125,1.125,1.125,1.125,8.856695,6.601971,8.165475,2.03056,3.04156,6.486349,-0.1476693,-0.4024354,1.493142,0.1279981,0.4259861,1.405507,0.07761496,0.4656588,1.569304,-0.1975651,-0.4040478,1.502967,0.1052655,0.3736641,1.46382,0.07385785,0.01102261,1.589402,0.07116786,-0.3202631,1.565635,-0.1025017,0.2031192,1.582756,-0.01819446,-0.312668,1.538458,-0.1542119,-0.07727017,1.580451,0.3181987,0.1589329,1.294875,NA,NA,NotTracked,Unknown,
-0.8173828,0.3808594,-0.3793945,0.9482422,-0.3217773,-0.09765625,-4,-2,0,-4,-2,-2,-1,-10,-1,-2,-3,0,-1,-1,-1,-3,2.3125,2.3125,2.3125,-1.0625,-1.0625,-1.0625,8.779227,6.611176,8.067538,2.03974,3.045561,6.476532,-0.1471442,-0.4024219,1.492392,0.1304934,0.4252058,1.398255,0.07759709,0.4658785,1.568826,-0.1963969,-0.4102982,1.498869,0.1103938,0.3753003,1.463475,0.07363256,0.01130429,1.589104,0.07110349,-0.3197986,1.565058,-0.102436,0.2031662,1.582615,-0.01829277,-0.3122495,1.538067,-0.1541359,-0.07666922,1.580118,0.3179316,0.1597455,1.294478,NA,NA,NotTracked,Open,
-0.9013672,0.4116211,-0.3637695,0.9414063,-0.3071289,-0.1049805,-3,-2,1,-3,-3,-1,0,-6,-1,0,-2,0,-2,0,-1,-1,2.8125,2.8125,2.8125,0.75,0.75,0.75,8.686193,6.613923,7.957083,2.045184,3.04756,6.470743,-0.1470823,-0.4025612,1.491676,0.1322919,0.4297331,1.383965,0.07740825,0.4657178,1.568439,-0.196601,-0.4117489,1.500319,0.1137666,0.3878348,1.457353,0.07416317,0.01164883,1.588662,0.07116624,-0.3194215,1.564594,-0.1023359,0.2031936,1.582453,-0.01830267,-0.3119947,1.53774,-0.154105,-0.07705752,1.579728,0.3178906,0.1599328,1.294361,NA,NA,NotTracked,Unknown,
-0.8662109,0.4619141,-0.3100586,0.9458008,-0.3081055,-0.1025391,-12,2,0,-1,-2,-1,1,0,0,-2,0,0,-2,-2,-1,1,-1.125,-1.125,-1.125,-3.125,-3.125,-3.125,8.599078,6.61125,7.851319,2.040245,3.046394,6.471882,-0.1469637,-0.4024812,1.490705,0.1345059,0.4344841,1.364644,0.07709724,0.4654199,1.568041,-0.1962605,-0.3982523,1.501377,0.1052122,0.4051846,1.451125,0.07458074,0.01207829,1.588124,0.07142031,-0.3188643,1.563952,-0.1021571,0.2031795,1.582172,-0.01812283,-0.3115188,1.537202,-0.15387,-0.07650921,1.579162,0.3181405,0.1599985,1.294232,NA,NA,NotTracked,Unknown,
-0.8442383,0.4179688,-0.246582,0.9418945,-0.3188477,-0.09375,7,-2,-1,2,2,7,-3,3,-2,-1,-1,-2,0,0,-2,-3,4.9375,4.9375,4.9375,-3.3125,-3.3125,-3.3125,8.562495,6.60992,7.815679,2.028005,3.043514,6.476595,-0.1470319,-0.4022864,1.490971,0.1314758,0.4408437,1.363645,0.0769842,0.46506,1.568019,-0.1966264,-0.4052189,1.499991,0.102769,0.4133062,1.442636,0.07510466,0.01262134,1.587726,0.07166624,-0.3182493,1.563381,-0.1019122,0.2032414,1.581912,-0.01793128,-0.3109038,1.5365,-0.1538216,-0.07662041,1.578906,0.3188231,0.1599994,1.294361,NA,NA,NotTracked,Unknown,
-0.8388672,0.4199219,-0.2817383,0.9399414,-0.3178711,-0.08300781,-4,-1,-1,-1,-2,-1,0,-8,0,-1,-1,-2,-1,-1,0,-1,-0.25,-0.25,-0.25,-2.5,-2.5,-2.5,8.61237,6.609933,7.874104,2.021615,3.040626,6.478666,-0.1467796,-0.4024549,1.491447,0.1305695,0.4437821,1.372446,0.07703309,0.4648855,1.567734,-0.195512,-0.3988316,1.499571,0.09814413,0.4131568,1.442995,0.07482301,0.01278553,1.587541,0.07164292,-0.318004,1.56316,-0.1017188,0.2032761,1.58168,-0.01799793,-0.3105845,1.536286,-0.1537556,-0.07616815,1.578538,0.3201404,0.1603135,1.294581,NA,NA,NotTracked,Unknown,
-0.84375,0.3989258,-0.3120117,0.9404297,-0.3149414,-0.09570313,4,-3,-3,-3,0,5,1,5,-1,-3,-2,-1,0,-1,-2,-2,-1.375,-1.375,-1.375,-0.75,-0.75,-0.75,8.637575,6.609839,7.905264,2.020253,3.038957,6.479114,-0.1468469,-0.4023225,1.491696,0.1248234,0.4395697,1.393553,0.07775482,0.464803,1.565894,-0.1956439,-0.3977772,1.500056,0.09356941,0.4066702,1.448409,0.07510515,0.01290264,1.587269,0.07171264,-0.3178253,1.563028,-0.1015019,0.2033203,1.581361,-0.01795552,-0.31042,1.536175,-0.1536923,-0.0760856,1.57804,0.3206469,0.1613164,1.294525,NA,NA,NotTracked,Unknown,
-0.8320313,0.3608398,-0.4057617,0.9291992,-0.3217773,-0.09570313,33,1,-1,-2,-2,0,-6,-2,-2,0,0,-1,0,-1,-2,-1,-0.3125,-0.3125,-0.3125,-4.875,-4.875,-4.875,8.79178,6.602966,8.093789,2.008389,3.033743,6.483091,-0.1467148,-0.4028587,1.491654,0.136502,0.423498,1.393326,0.07864722,0.4654746,1.56433,-0.1967097,-0.4062162,1.501662,0.1109611,0.3781004,1.457769,0.07524753,0.01298125,1.586947,0.07168702,-0.3176073,1.562901,-0.1013754,0.2033778,1.581022,-0.01798625,-0.3101342,1.536018,-0.1536033,-0.07574772,1.577593,0.3208956,0.1623263,1.294366,NA,NA,NotTracked,Unknown,
-0.7910156,0.3881836,-0.4111328,0.9384766,-0.3193359,-0.09765625,7,-2,-2,-1,1,0,-1,0,-3,-2,-1,-1,-1,-2,0,-1,-1.875,-1.875,-1.875,-1.5625,-1.5625,-1.5625,8.804016,6.607904,8.107517,2.003401,3.034124,6.483214,-0.1468749,-0.4020214,1.491385,0.1361234,0.424401,1.396322,0.07967588,0.4658072,1.562938,-0.1959703,-0.4028615,1.500535,0.1157179,0.3757228,1.461786,0.07504553,0.01305304,1.586773,0.07169344,-0.3174398,1.562708,-0.1012626,0.2034389,1.580799,-0.01797897,-0.3099275,1.535717,-0.153276,-0.07536554,1.576882,0.3206567,0.1635033,1.293956,NA,NA,NotTracked,Unknown,
-0.8105469,0.3588867,-0.3999023,0.9399414,-0.3095703,-0.09716797,-9,-3,0,0,0,4,0,-8,-1,-2,0,-2,-2,-2,-1,-2,4,4,4,-1.1875,-1.1875,-1.1875,8.768772,6.611785,8.06211,2.002363,3.035176,6.481037,-0.14677,-0.4020167,1.491012,0.1370597,0.4236049,1.390874,0.08048983,0.4659652,1.561825,-0.194255,-0.4024483,1.49296,0.1107156,0.3761285,1.459309,0.07493341,0.01309427,1.586693,0.0717183,-0.3173252,1.562639,-0.101092,0.2034658,1.580477,-0.01796747,-0.309781,1.53559,-0.1532492,-0.07601977,1.576276,0.3207132,0.163862,1.293799,NA,NA,NotTracked,Unknown,
-0.8022461,0.3481445,-0.371582,0.9375,-0.2963867,-0.09960938,-13,0,3,0,0,4,0,3,-2,0,-2,1,-2,-1,-2,-1,15.3125,15.3125,15.3125,1,1,1,8.67446,6.612295,7.917635,2.004529,3.035309,6.480246,-0.1465009,-0.4020691,1.490417,0.1353242,0.4272011,1.383618,0.08069729,0.4655402,1.561172,-0.1953328,-0.3957464,1.501045,0.1119666,0.3838376,1.454636,0.075759,0.01308786,1.586185,0.07173201,-0.3172988,1.562571,-0.1009133,0.203532,1.580245,-0.01797279,-0.3097453,1.535529,-0.1532093,-0.07623217,1.575976,0.3208413,0.1637792,1.29375,NA,NA,NotTracked,Unknown,
-0.7539063,0.394043,-0.3081055,0.9477539,-0.3120117,-0.09814453,-14,-4,-2,-1,2,8,2,3,0,-1,1,-2,-2,-1,-2,0,14.875,14.875,14.875,0.25,0.25,0.25,8.52932,6.6064,7.709715,2.004795,3.035171,6.480001,-0.1465873,-0.4026837,1.490898,0.1378607,0.4365729,1.338645,0.08039892,0.4648402,1.561984,-0.1941468,-0.4153461,1.493304,0.1176164,0.4434224,1.43575,0.07566608,0.01314498,1.586124,0.07184049,-0.3172362,1.562418,-0.100621,0.2035802,1.579979,-0.01790637,-0.3096516,1.535326,-0.1530098,-0.07577851,1.575776,0.3227116,0.1612667,1.294778,NA,NA,NotTracked,Unknown,
-0.6342773,0.4160156,-0.1689453,0.9389648,-0.3291016,-0.09228516,3,0,-1,-1,0,1,-1,-1,-1,-1,-2,-1,-4,-1,0,-2,-21.0625,-21.0625,-21.0625,-3,-3,-3,8.168626,6.533062,7.293591,2.004808,3.035588,6.476189,-0.1462524,-0.4020551,1.490499,0.1463538,0.414764,1.298446,0.07973944,0.4641634,1.56427,-0.1949034,-0.4069846,1.495825,0.1375541,0.4034601,1.345461,0.07556295,0.01320812,1.586081,0.07198164,-0.3171727,1.562248,-0.1003889,0.2037055,1.579792,-0.01779539,-0.3095531,1.535107,-0.1528947,-0.07573,1.575662,0.3256294,0.1554705,1.29704,NA,NA,NotTracked,Open,
-0.5908203,0.4316406,-0.06005859,0.9443359,-0.3134766,-0.105957,1,1,1,-1,1,0,-1,0,-2,0,0,-2,-1,-1,1,-2,-32.875,-32.875,-32.875,-1.0625,-1.0625,-1.0625,7.838143,6.394229,6.938046,2.00714,3.038342,6.472047,-0.1466417,-0.4018953,1.490936,0.1507409,0.3845644,1.24743,0.07918465,0.4639813,1.567085,-0.1986817,-0.4138857,1.506857,0.1267583,0.3980448,1.2797,0.07593282,0.01328184,1.585989,0.07206684,-0.317121,1.562185,-0.1001424,0.2037738,1.579663,-0.01765991,-0.3094161,1.534814,-0.1524795,-0.07575949,1.575614,0.3318954,0.1374099,1.304202,NA,NA,NotTracked,Unknown,
-0.4428711,0.5859375,0.1196289,0.9418945,-0.3032227,-0.1142578,25,0,-2,1,-1,0,0,3,-3,1,-2,0,1,-2,0,-2,-43.0625,-43.0625,-43.0625,0.5625,0.5625,0.5625,7.45461,6.022675,6.528099,2.011197,3.040605,6.466387,-0.1463223,-0.3991987,1.491353,0.1531374,0.3296897,1.188046,0.07855815,0.4646295,1.569403,-0.1949548,-0.396541,1.496909,0.129322,0.3498401,1.2142,0.07567572,0.01311338,1.585998,0.0719263,-0.3176243,1.561967,-0.0999096,0.2036708,1.579451,-0.01781652,-0.3097915,1.534518,-0.152387,-0.07583291,1.575464,0.3341166,0.1092916,1.315584,NA,NA,NotTracked,Unknown,
-0.206543,0.7900391,0.2236328,0.9394531,-0.3095703,-0.105957,-3,-1,-2,-1,-1,1,-2,-4,-2,0,-1,0,-2,-2,-2,-2,-36.6875,-36.6875,-36.6875,0.25,0.25,0.25,7.277823,5.640944,6.307763,2.009084,3.040497,6.463326,-0.1463798,-0.399265,1.491333,0.1629475,0.2370215,1.129215,0.0791671,0.4702187,1.573885,-0.1932,-0.4096656,1.492367,0.1396073,0.2577822,1.146588,0.07595035,0.01299014,1.586065,0.07185103,-0.3189501,1.561829,-0.1005945,0.2035832,1.579964,-0.01778836,-0.3111106,1.534539,-0.1523041,-0.07646065,1.575392,0.336995,0.07310605,1.333935,NA,NA,NotTracked,Unknown,
0.01904297,0.8564453,0.3115234,0.9350586,-0.3266602,-0.09912109,4,-1,0,-1,0,-1,1,1,0,-1,-1,0,-1,-2,-1,-1,-47.5,-47.5,-47.5,-0.9375,-0.9375,-0.9375,7.150918,5.220277,6.154147,2.007356,3.040551,6.463781,-0.1460135,-0.4036706,1.4903,0.1896213,0.1043646,1.090985,0.08122991,0.4732718,1.577742,-0.193795,-0.404118,1.493023,0.152039,0.1492534,1.0724,0.0758557,0.01138084,1.586769,0.0725686,-0.3222207,1.562199,-0.1018182,0.2031514,1.580635,-0.0160172,-0.3151247,1.53481,-0.1524234,-0.08158594,1.575222,0.34006,0.03701025,1.357152,NA,NA,NotTracked,Unknown,
0.2841797,0.9941406,0.3007813,0.9541016,-0.3271484,-0.08154297,-25,-6,-8,-1,-1,-1,-3,-9,0,0,-2,0,0,-1,-2,-2,-22.375,-22.375,-22.375,1,1,1,7.083986,4.65291,6.005419,2.00822,3.040518,6.464321,-0.1462041,-0.4027714,1.491266,0.2074047,-0.02620035,1.088873,0.08173598,0.4747652,1.579657,-0.1957358,-0.4027108,1.496289,0.1770295,-0.0006188719,1.094889,0.07599065,0.01130921,1.587011,0.0727566,-0.3221354,1.562356,-0.1037936,0.2031748,1.581967,-0.01540634,-0.3150887,1.534886,-0.1524958,-0.08304064,1.575249,0.3783848,0.03448486,1.413787,NA,NA,NotTracked,Unknown,
0.6318359,0.9941406,0.390625,0.9291992,-0.3100586,-0.1020508,4,3,6,-3,-1,0,1,-1,-1,-1,-1,-1,-1,-1,0,0,-38.0625,-38.0625,-38.0625,3.3125,3.3125,3.3125,7.059527,4.257062,5.907274,2.01135,3.04044,6.465313,-0.1463829,-0.4027615,1.491382,0.2341082,-0.1565972,1.131542,0.08195774,0.475481,1.58032,-0.1963783,-0.3981018,1.499726,0.1996782,-0.1270634,1.115,0.07604686,0.01113511,1.587041,0.07279208,-0.3222381,1.562328,-0.1046255,0.2030114,1.582229,-0.01514206,-0.3151846,1.534477,-0.1525652,-0.0837364,1.575133,0.3634161,0.002691939,1.429968,NA,NA,NotTracked,Unknown,
0.8842773,0.7929688,0.2412109,0.9638672,-0.3154297,-0.1074219,0,3,0,-3,-1,-2,-1,-1,-2,-1,-2,-1,-1,0,-1,-1,21.9375,21.9375,21.9375,1.4375,1.4375,1.4375,7.102283,3.761544,5.799761,2.007455,3.037783,6.47069,-0.1464433,-0.4031225,1.491822,0.2558848,-0.2689473,1.192371,0.0822392,0.4762019,1.580718,-0.1977225,-0.4021066,1.502325,0.225731,-0.2428778,1.169083,0.07609209,0.01107458,1.587042,0.07287177,-0.3223495,1.562365,-0.1051068,0.2030988,1.582388,-0.01478176,-0.3152534,1.534041,-0.1526003,-0.08481698,1.5751,0.3428843,-0.03905357,1.446211,NA,NA,NotTracked,Unknown,
1.029785,0.7861328,0.1508789,0.925293,-0.3110352,-0.1103516,-19,1,-1,0,1,1,0,-5,-1,-1,-2,-2,0,-2,1,0,11.1875,11.1875,11.1875,-7.9375,-7.9375,-7.9375,7.218044,3.457462,5.691781,1.99518,3.032727,6.47524,-0.1463506,-0.405172,1.491413,0.2768863,-0.3520325,1.27064,0.08237129,0.4765277,1.580712,-0.1963863,-0.403744,1.498553,0.2420854,-0.3365223,1.240809,0.07637782,0.01071214,1.58694,0.07357524,-0.323151,1.562564,-0.1054179,0.2031188,1.58208,-0.01352894,-0.3159807,1.533535,-0.1526794,-0.08556179,1.574937,0.3129721,-0.0534148,1.483706,NA,NA,NotTracked,Unknown,
1.100586,0.6347656,0.09912109,0.9350586,-0.3173828,-0.1000977,-4,0,2,4,0,1,-4,-2,-2,-1,-1,-1,-1,0,-1,-1,7.4375,7.4375,7.4375,-9.1875,-9.1875,-9.1875,7.310866,3.209447,5.594367,1.968536,3.029993,6.489079,-0.1466975,-0.4056637,1.491079,0.289696,-0.4060999,1.346355,0.08254018,0.4766788,1.580618,-0.198773,-0.4074934,1.50035,0.2597129,-0.3913006,1.3165,0.07730792,0.01002407,1.586652,0.07515381,-0.3242549,1.562779,-0.1055338,0.2031816,1.581803,-0.01140682,-0.316977,1.533165,-0.1527981,-0.08577424,1.574844,0.3109578,-0.07529227,1.494871,NA,NA,NotTracked,Unknown,
1.076172,0.4794922,0.004882813,0.9438477,-0.3125,-0.08398438,9,-1,0,-1,0,-1,-1,-7,0,-2,-1,-1,-1,-1,-2,-1,51.625,51.625,51.625,-0.1875,-0.1875,-0.1875,7.408854,3.019348,5.548988,1.952854,3.032431,6.492404,-0.1474857,-0.4050127,1.490889,0.2956359,-0.4312885,1.410101,0.08298811,0.4770486,1.580085,-0.1989938,-0.4036903,1.499745,0.262014,-0.4296669,1.440625,0.07806657,0.009660612,1.58629,0.07613232,-0.3248919,1.562824,-0.1056331,0.2032485,1.581373,-0.0102381,-0.31751,1.532875,-0.1528286,-0.08645538,1.574545,0.3090397,-0.08477256,1.507789,NA,NA,NotTracked,Unknown,
