ALX,ALY,ALZ,ARX,ARY,ARZ,EMG0L,EMG1L,EMG2L,EMG3L,EMG4L,EMG5L,EMG6L,EMG7L,EMG0R,EMG1R,EMG2R,EMG3R,EMG4R,EMG5R,EMG6R,EMG7R,GLX,GLY,GLZ,GRX,GRY,GRZ,ORL,OPL,OYL,ORR,OPR,OYR,LHNX,LHNY,LHNZ,RHNX,RHNY,RHNZ,HX,HY,HZ,LTX,LTY,LTZ,RTX,RTY,RTZ,SpineMidX,SpineMidY,SpineMidZ,SpineBaseX,SpineBaseY,SpineBaseZ,ShoulderLeftX,ShoulderLeftY,ShoulderLeftZ,ShoulderRightX,ShoulderRightY,ShoulderRightZ,ElbowLeftX,ElbowLeftY,ElbowLeftZ,ElbowRightX,ElbowRightY,ElbowRightZ,Myo_Pose_left,Myo_Pose_Right,Kinect_pose_left,Kinect_pose_right
0.918457,0.3291016,0.06835938,0.9423828,-0.3139648,-0.07714844,-3,0,-2,-1,-1,-1,0,-1,0,-1,-2,1,-2,-2,-1,-2,-1.6875,-1.6875,-1.6875,-0.6875,-0.6875,-0.6875,7.182158,3.051785,5.395254,2.064509,3.023622,6.278075,-0.1377398,-0.4038587,1.511779,0.2897155,-0.4053737,1.446892,0.09024086,0.4812784,1.593282,-0.08440126,-0.3797498,1.480134,0.3391485,-0.4099083,1.443,0.08820335,0.008438959,1.599697,0.08959224,-0.3270551,1.578478,-0.1012668,0.2036038,1.594355,0.002747203,-0.3198809,1.547007,-0.1507384,-0.08661292,1.597309,0.3160266,-0.08617406,1.538655,NA,NA,NotTracked,Unknown,
0.9179688,0.3212891,0.06689453,0.9443359,-0.3051758,-0.08935547,-1,-1,-2,0,-2,-1,1,-1,1,1,-2,0,0,-1,1,0,0.75,0.75,0.75,0.75,0.75,0.75,7.181602,3.05173,5.39505,2.064844,3.023487,6.277773,-0.1377158,-0.4043486,1.512338,0.2898436,-0.4050861,1.447423,0.09024076,0.4811565,1.593047,-0.08461083,-0.37976,1.480101,0.3401312,-0.4227817,1.446323,0.08811974,0.008407997,1.599516,0.08941613,-0.3270915,1.578274,-0.1013011,0.2035609,1.594131,0.002589027,-0.3198688,1.54682,-0.1509404,-0.08724423,1.596819,0.3158939,-0.08619275,1.538479,NA,NA,NotTracked,Unknown,
0.9189453,0.3183594,0.07080078,0.9414063,-0.3041992,-0.08642578,1,-2,-1,-3,-3,-1,-1,-3,-1,-2,-1,-1,0,-1,-1,0,1.875,1.875,1.875,-0.9375,-0.9375,-0.9375,7.183021,3.052206,5.398166,2.064751,3.023211,6.277711,-0.1378211,-0.4036262,1.511013,0.2898764,-0.4050035,1.446793,0.09021907,0.4811695,1.592906,-0.08471841,-0.378667,1.479079,0.340919,-0.4432692,1.455,0.0880834,0.00842196,1.599166,0.0893162,-0.3270698,1.577888,-0.1013191,0.2036158,1.593974,0.002458228,-0.3197619,1.546376,-0.151203,-0.08723035,1.596478,0.3157606,-0.08622056,1.538262,NA,NA,NotTracked,Unknown,
0.9145508,0.3261719,0.06152344,0.9433594,-0.315918,-0.09033203,-1,-1,-3,0,0,-2,1,-2,-2,-1,-2,-1,-2,-2,-1,-1,0.6875,0.6875,0.6875,-0.5625,-0.5625,-0.5625,7.184939,3.05246,5.398085,2.064079,3.023487,6.278087,-0.137627,-0.4030176,1.510972,0.2891075,-0.4047063,1.445956,0.09018292,0.4812658,1.592645,-0.08489454,-0.3804827,1.477865,0.3389409,-0.4248636,1.445396,0.08794235,0.00846967,1.598808,0.08912001,-0.3270285,1.577552,-0.1013666,0.2036741,1.593758,0.002274434,-0.3197109,1.546113,-0.1512588,-0.08690836,1.596237,0.3155425,-0.08602919,1.537945,NA,NA,NotTracked,Unknown,
0.9179688,0.3203125,0.06982422,0.9443359,-0.315918,-0.08398438,0,0,1,1,1,0,-1,-2,-2,0,-1,-1,1,-1,-2,-1,-0.0625,-0.0625,-0.0625,-1.25,-1.25,-1.25,7.185247,3.052342,5.397632,2.063236,3.023238,6.278094,-0.137869,-0.4036963,1.511471,0.2896184,-0.4049251,1.446944,0.09013647,0.4813392,1.592536,-0.08475143,-0.3791646,1.479398,0.3395794,-0.4291349,1.446959,0.08787014,0.008518262,1.598713,0.08902372,-0.3270015,1.577391,-0.1014196,0.2038454,1.593536,0.002192829,-0.3196692,1.545995,-0.1514649,-0.0864211,1.596139,0.3154574,-0.085853,1.537786,NA,NA,NotTracked,Unknown,
0.9135742,0.3183594,0.06689453,0.9379883,-0.3149414,-0.08398438,-1,0,-2,0,-2,-2,-2,-2,0,0,-2,-1,-1,-5,-2,-3,-0.6875,-0.6875,-0.6875,-0.625,-0.625,-0.625,7.185247,3.052342,5.397632,2.063329,3.023515,6.278156,-0.1378983,-0.4045767,1.510253,0.2893896,-0.4053583,1.446304,0.09010789,0.4813183,1.592469,-0.08505747,-0.3802345,1.477742,0.3386009,-0.4178354,1.442723,0.08781153,0.008463765,1.598581,0.08887795,-0.3271363,1.577153,-0.1014991,0.2037226,1.59326,0.002042699,-0.3197981,1.545681,-0.1515977,-0.08688451,1.595698,0.3152893,-0.08596362,1.537404,NA,NA,NotTracked,Unknown,
0.9370117,0.3242188,0.07666016,0.9482422,-0.3120117,-0.08398438,-33,-11,-2,0,-2,-1,0,-5,-2,-3,-2,0,0,-2,-1,-2,7.875,7.875,7.875,-0.25,-0.25,-0.25,7.187125,3.058084,5.402339,2.062777,3.023538,6.277239,-0.1383017,-0.4031554,1.511847,0.2897716,-0.4052435,1.447323,0.09006997,0.4812092,1.592383,-0.08465573,-0.378484,1.479866,0.3400992,-0.4439395,1.454,0.0877169,0.008395727,1.598469,0.08877883,-0.3272045,1.577041,-0.101589,0.203759,1.593162,0.001964217,-0.3198572,1.545598,-0.1517068,-0.0872675,1.595563,0.3152144,-0.08615872,1.537246,NA,NA,NotTracked,Unknown,
0.9638672,0.4213867,0.05273438,0.9492188,-0.3144531,-0.09667969,11,15,3,2,-1,0,0,22,-1,1,-2,-2,-1,0,0,-2,18.0625,18.0625,18.0625,-2.75,-2.75,-2.75,7.191726,3.092006,5.429494,2.061649,3.023552,6.275657,-0.1381841,-0.4047581,1.510359,0.2899524,-0.4058145,1.443958,0.0900056,0.4811279,1.592266,-0.08501729,-0.3744643,1.479631,0.3388022,-0.393946,1.440871,0.08764119,0.008354366,1.598328,0.08869943,-0.3272401,1.576887,-0.101744,0.2036992,1.592978,0.001874997,-0.3198932,1.545329,-0.1517888,-0.08756083,1.595209,0.3151547,-0.08597392,1.53717,NA,NA,NotTracked,Unknown,
1.001465,0.5585938,0.03759766,0.9316406,-0.3212891,-0.09277344,-8,4,5,-1,-2,2,0,6,-1,-1,0,-1,-1,0,0,-1,-19.5,-19.5,-19.5,-3.375,-3.375,-3.375,7.135406,3.195724,5.487317,2.057648,3.023556,6.274348,-0.1384614,-0.403771,1.510243,0.2862971,-0.4043164,1.426006,0.08996461,0.481108,1.592206,-0.08506292,-0.3767013,1.479674,0.3419296,-0.4285181,1.4287,0.08756363,0.008386785,1.598192,0.08865008,-0.3271831,1.576721,-0.1018505,0.2037272,1.592748,0.001801697,-0.3197769,1.54506,-0.1519638,-0.08688957,1.59511,0.3151203,-0.08521339,1.537115,NA,NA,NotTracked,Unknown,
1.132324,0.6455078,0.2519531,0.9414063,-0.3125,-0.08544922,-33,-7,-5,0,1,-3,0,-8,-3,-1,-2,-1,-3,0,-1,1,-54.1875,-54.1875,-54.1875,-3.0625,-3.0625,-3.0625,6.869472,3.468951,5.682749,2.052835,3.026191,6.273285,-0.1388476,-0.4039596,1.510133,0.2700725,-0.381808,1.383626,0.08994098,0.4810984,1.59218,-0.08464848,-0.3735432,1.481122,0.2945352,-0.3621453,1.3533,0.08747587,0.008425726,1.598145,0.08839867,-0.3271294,1.576618,-0.1019177,0.2037668,1.592569,0.001455941,-0.3195639,1.544866,-0.1521542,-0.08610414,1.595009,0.3170139,-0.07770444,1.539184,NA,NA,NotTracked,Unknown,
1.038086,0.5776367,0.4951172,0.9580078,-0.3134766,-0.07763672,6,-15,-17,-6,-2,-3,-7,-29,-3,-1,-3,0,-1,-3,-1,-1,-34.0625,-34.0625,-34.0625,-2.25,-2.25,-2.25,6.661808,3.790178,5.854266,2.052622,3.027277,6.268564,-0.1386682,-0.4043019,1.508823,0.2379071,-0.3135482,1.337278,0.08994987,0.4811033,1.592153,-0.08468081,-0.3755912,1.480632,0.2636789,-0.3057854,1.304187,0.08671921,0.008459049,1.597901,0.0853065,-0.326898,1.575948,-0.1020187,0.2038251,1.592403,-0.002109548,-0.3183844,1.544166,-0.152297,-0.08582538,1.594904,0.3222586,-0.0599204,1.548006,NA,NA,NotTracked,Unknown,
0.578125,0.6582031,0.5893555,0.9433594,-0.2954102,-0.08642578,25,55,14,8,5,2,4,10,0,-1,-1,-2,0,0,-2,-1,6.5,6.5,6.5,1.3125,1.3125,1.3125,6.574672,4.188478,6.000505,2.054479,3.028774,6.268028,-0.1392593,-0.4034575,1.50826,0.1943228,-0.2236943,1.315439,0.09019889,0.4809723,1.591819,-0.08480171,-0.3753406,1.480724,0.1770873,-0.1922305,1.283103,0.08541641,0.00853606,1.597649,0.08152945,-0.3266269,1.57554,-0.1019836,0.2039901,1.592239,-0.005653633,-0.3174678,1.543787,-0.1526133,-0.0847096,1.594503,0.3331049,-0.04463962,1.55703,NA,NA,NotTracked,Unknown,
0.2709961,0.637207,0.5019531,0.9267578,-0.2910156,-0.07568359,20,-2,-6,1,1,1,2,25,-1,-1,0,0,0,-2,0,-2,-12.1875,-12.1875,-12.1875,-2.5625,-2.5625,-2.5625,6.503946,4.723256,6.175001,2.057961,3.027308,6.261624,-0.1398231,-0.4011095,1.50951,0.1613172,-0.1112621,1.331011,0.09060302,0.4809216,1.591487,-0.08522912,-0.3762877,1.480541,0.1099375,-0.1207567,1.34,0.08574226,0.008764544,1.597801,0.08263505,-0.3257174,1.57647,-0.1016274,0.2043785,1.591945,-0.004129899,-0.3169775,1.544795,-0.1525999,-0.08410022,1.59444,0.3400054,-0.04189137,1.557749,NA,NA,NotTracked,Open,
-0.1391602,0.5595703,0.4091797,0.9443359,-0.3076172,-0.07861328,-1,2,1,1,0,2,7,10,-2,-1,-1,0,-2,-2,-1,-1,-1.3125,-1.3125,-1.3125,0.8125,0.8125,0.8125,6.484531,5.067399,6.306707,2.044189,3.020886,6.272251,-0.139486,-0.4022983,1.510641,0.1437924,-0.02690888,1.361477,0.09138738,0.4808624,1.590688,-0.08614008,-0.3790197,1.479799,0.1646832,-0.07766823,1.290429,0.08607076,0.008949658,1.597928,0.08369415,-0.3250002,1.577261,-0.1011121,0.204557,1.591616,-0.003025506,-0.3166754,1.545583,-0.1525929,-0.08359346,1.594459,0.4108743,-0.0427983,1.551078,NA,NA,NotTracked,Unknown,
-0.2041016,0.6542969,0.3901367,0.940918,-0.3085938,-0.09472656,-10,8,-3,-4,-4,-2,1,8,1,-1,-2,-1,-2,1,0,0,-16.8125,-16.8125,-16.8125,4.5,4.5,4.5,6.488373,5.316681,6.439375,2.044588,3.017854,6.279435,-0.1393477,-0.4024843,1.510623,0.1355988,0.02126079,1.380107,0.09212243,0.4806637,1.590033,-0.08626435,-0.3788805,1.479755,0.1547116,0.05251502,1.309818,0.08626775,0.009053619,1.597957,0.08407669,-0.3246864,1.577585,-0.1007394,0.2046764,1.591283,-0.002404856,-0.3165701,1.5462,-0.1523759,-0.08354448,1.594388,0.4132186,-0.04784702,1.551689,NA,NA,NotTracked,Unknown,
-0.2280273,0.7475586,0.4829102,0.9482422,-0.3286133,-0.1005859,10,13,9,1,-1,-2,-4,24,0,-2,-2,-1,-2,-1,-2,-1,0.875,0.875,0.875,-0.5,-0.5,-0.5,6.50115,5.35221,6.499918,2.05425,3.017234,6.273215,-0.1388081,-0.4031235,1.511771,0.1246975,0.03797163,1.39607,0.09258994,0.480427,1.58999,-0.08599946,-0.3788809,1.480013,0.1457105,0.001774492,1.317714,0.08657388,0.009109631,1.598224,0.08462466,-0.3244065,1.578194,-0.1005604,0.2047678,1.59128,-0.001501744,-0.3164934,1.547317,-0.152235,-0.08391037,1.594526,0.4126972,-0.05208723,1.552018,NA,NA,NotTracked,Unknown,
-0.1630859,0.75,0.5878906,0.9321289,-0.340332,-0.09082031,-17,-12,-9,-6,-2,-3,-3,4,-3,0,-1,-2,-1,-2,-2,1,3.375,3.375,3.375,-2,-2,-2,6.502452,5.316156,6.536541,2.057992,3.01898,6.267223,-0.138759,-0.4018356,1.51266,0.118952,0.03367626,1.397411,0.092926,0.4802754,1.590067,-0.0860357,-0.3809019,1.479856,0.1374071,-0.01215338,1.326571,0.08694717,0.009156859,1.598548,0.08530042,-0.3242002,1.578696,-0.1004921,0.2047721,1.591333,-0.0006521444,-0.3164442,1.547968,-0.1520309,-0.08353007,1.594788,0.4138932,-0.05149291,1.552028,NA,NA,NotTracked,Unknown,
-0.1948242,0.8408203,0.6459961,0.9311523,-0.3164063,-0.08984375,-1,5,1,-2,1,-2,-3,-9,-1,-1,-2,0,-2,-3,0,0,3.875,3.875,3.875,-4.4375,-4.4375,-4.4375,6.513245,5.271736,6.571983,2.057257,3.022414,6.260957,-0.1385712,-0.4011164,1.512286,0.1174003,0.0240257,1.40445,0.09305399,0.4801732,1.590105,-0.08591236,-0.3817194,1.479204,0.1310836,-0.0349166,1.32775,0.08730075,0.00925044,1.598806,0.08594048,-0.3239676,1.579059,-0.1003681,0.2048588,1.591354,0.0001188652,-0.3163448,1.548471,-0.1519839,-0.0832191,1.594985,0.4181411,-0.0492409,1.551785,NA,NA,NotTracked,Unknown,
-0.1870117,0.8183594,0.6225586,0.9453125,-0.3032227,-0.08251953,-16,-6,0,-1,-1,-2,-3,-3,0,-2,0,-1,-1,1,0,-2,2.8125,2.8125,2.8125,-2.5,-2.5,-2.5,6.507983,5.255557,6.592235,2.055329,3.024722,6.258651,-0.1391698,-0.4014663,1.511316,0.1125669,0.01294197,1.405329,0.09310809,0.4800989,1.590096,-0.08578677,-0.3809066,1.479232,0.1348639,-0.01291271,1.335882,0.08755023,0.009316267,1.599125,0.08644025,-0.3237246,1.579445,-0.1002845,0.2049136,1.591389,0.0006502652,-0.3161979,1.548891,-0.1518955,-0.08310904,1.595073,0.4210778,-0.04719953,1.550235,NA,NA,NotTracked,Unknown,
-0.1977539,0.8325195,0.6313477,0.9404297,-0.2900391,-0.07910156,1,1,1,-3,-1,0,2,8,-2,-2,-2,0,-2,0,1,0,1.3125,1.3125,1.3125,-0.5625,-0.5625,-0.5625,6.509951,5.280677,6.595437,2.053425,3.024225,6.258971,-0.1389945,-0.4023568,1.511113,0.1125174,0.0125171,1.40672,0.09311727,0.4800196,1.59009,-0.08562188,-0.3806607,1.480106,0.1253511,-0.03490362,1.32475,0.08776338,0.00928699,1.599238,0.08692403,-0.3236511,1.579637,-0.1002628,0.2049093,1.591403,0.001133404,-0.3162173,1.549037,-0.1517952,-0.08313441,1.5951,0.4221534,-0.04652858,1.549307,NA,NA,NotTracked,Unknown,
-0.2285156,0.7866211,0.6323242,0.9423828,-0.2973633,-0.07861328,22,15,2,0,5,4,3,5,0,0,0,-2,-1,-1,0,-2,20.4375,20.4375,20.4375,-4,-4,-4,6.522589,5.330263,6.587341,2.055442,3.020083,6.252064,-0.1386666,-0.4020214,1.512245,0.1134205,0.02474519,1.411668,0.09310874,0.4799398,1.59007,-0.08553913,-0.3816241,1.479889,0.1255936,0.008993699,1.324615,0.08802676,0.009200616,1.599575,0.0874091,-0.3236533,1.580091,-0.1001818,0.204852,1.591428,0.001629662,-0.3162919,1.549508,-0.151499,-0.0841331,1.595045,0.4136538,-0.04662252,1.539749,NA,NA,NotTracked,Unknown,
-0.2373047,0.7192383,0.5415039,0.9501953,-0.3085938,-0.0859375,-1,5,17,0,1,1,1,1,0,0,-1,-3,-2,1,1,2,19.625,19.625,19.625,-2.6875,-2.6875,-2.6875,6.556839,5.359187,6.591262,2.061504,3.015112,6.240156,-0.1372673,-0.401689,1.511615,0.1150768,0.05496137,1.430223,0.09312885,0.4798702,1.590159,-0.08560264,-0.3816538,1.479576,0.1317791,0.0589589,1.324692,0.08821566,0.009156099,1.59996,0.08785012,-0.3235983,1.580449,-0.1000549,0.2047658,1.591498,0.002059559,-0.3163173,1.549901,-0.1513338,-0.08481105,1.595193,0.3956411,-0.05550495,1.535489,NA,NA,NotTracked,Unknown,
-0.2099609,1.020996,0.5268555,0.9458008,-0.3066406,-0.1015625,53,31,21,10,0,10,20,52,-2,-2,-4,-1,-2,-1,-2,-1,54.3125,54.3125,54.3125,2.5,2.5,2.5,6.646505,5.379358,6.552481,2.072776,3.013757,6.231287,-0.1364156,-0.4010058,1.512332,0.1170284,0.09757949,1.429765,0.09309632,0.4797882,1.590162,-0.08517129,-0.3998162,1.472784,0.1469811,0.1233236,1.348111,0.08847969,0.009185887,1.599826,0.0880414,-0.3236659,1.580612,-0.09988953,0.204664,1.590959,0.002199554,-0.3164335,1.550074,-0.1511054,-0.0846915,1.595325,0.3529288,-0.03431438,1.529247,NA,NA,NotTracked,Open,
-0.1489258,0.8398438,0.5180664,0.9619141,-0.3227539,-0.09619141,98,10,-5,0,-2,-4,-8,8,0,-2,-1,-1,0,-4,-1,-1,5.25,5.25,5.25,0.125,0.125,0.125,6.692339,5.357193,6.547859,2.074102,3.014266,6.229606,-0.1361446,-0.4027224,1.512852,0.1198456,0.1219318,1.439752,0.09303691,0.4797175,1.590166,-0.08527289,-0.3871598,1.478524,0.142623,0.1595104,1.33575,0.08868147,0.009157422,1.599756,0.0884052,-0.3238633,1.580771,-0.09983772,0.2046038,1.590673,0.002507915,-0.3167862,1.550403,-0.1508975,-0.08437219,1.595404,0.35259,-0.03441065,1.528876,NA,NA,NotTracked,Open,
-0.2080078,0.9086914,0.4716797,0.9423828,-0.315918,-0.1054688,34,2,7,-5,6,4,8,21,-2,-1,0,-1,-2,0,-2,-3,14.5625,14.5625,14.5625,-0.75,-0.75,-0.75,6.717004,5.337994,6.565812,2.070276,3.016407,6.232089,-0.1364567,-0.4020483,1.513353,0.1031992,0.07498452,1.447996,0.09282625,0.479513,1.590306,-0.08532245,-0.3881185,1.477331,0.1410826,0.1435795,1.36825,0.08872916,0.008919764,1.599986,0.08857506,-0.3240675,1.580896,-0.09988748,0.2045266,1.590545,0.002659811,-0.3171132,1.550795,-0.1506467,-0.08461298,1.595656,0.3525017,-0.0345219,1.528585,NA,NA,NotTracked,Unknown,
-0.2304688,0.8740234,0.4624023,0.9365234,-0.2910156,-0.08740234,83,20,-6,18,25,2,4,18,-2,-2,-1,-3,0,-2,-2,-2,-2.3125,-2.3125,-2.3125,4,4,4,6.734926,5.316855,6.592156,2.069491,3.019922,6.240455,-0.1368864,-0.4033169,1.512697,0.1029083,0.07385761,1.449657,0.09273209,0.4793474,1.590408,-0.08545153,-0.3881934,1.477258,0.1444995,0.1472612,1.37578,0.08893218,0.008907223,1.599772,0.08864927,-0.3243164,1.581049,-0.09992833,0.2044583,1.590461,0.002717772,-0.3175313,1.551298,-0.1503944,-0.08502137,1.595902,0.3530926,-0.03432603,1.528415,NA,NA,NotTracked,Unknown,
-0.2412109,0.9287109,0.4472656,0.9453125,-0.3144531,-0.07177734,-110,-52,-24,4,-18,-10,-20,-71,0,-2,0,0,-2,0,0,0,3.9375,3.9375,3.9375,0.125,0.125,0.125,6.746259,5.303699,6.598545,2.061466,3.019532,6.25075,-0.1374535,-0.4030166,1.513292,0.129997,0.1285949,1.457482,0.09261006,0.479145,1.590387,-0.08527117,-0.3848636,1.479583,0.1593353,0.1833801,1.413684,0.08903695,0.008793393,1.599777,0.08868435,-0.3246445,1.581139,-0.1002677,0.2042983,1.590931,0.002649946,-0.3179692,1.55159,-0.1503496,-0.08469906,1.596072,0.3540029,-0.03402553,1.528192,NA,NA,NotTracked,Open,
-0.1845703,0.8969727,0.4848633,0.9443359,-0.3066406,-0.07666016,-81,-19,1,13,6,3,0,-19,-1,-2,-1,-2,-1,-2,-2,0,-2.5625,-2.5625,-2.5625,4.4375,4.4375,4.4375,6.757601,5.287499,6.590276,2.061072,3.018885,6.258487,-0.1375534,-0.4024477,1.514274,0.1221135,0.1302697,1.455317,0.09258316,0.4791319,1.590484,-0.08540598,-0.384574,1.479606,0.158051,0.1838707,1.410573,0.08907304,0.00863109,1.600103,0.08867483,-0.3247808,1.581236,-0.1002681,0.2043029,1.590896,0.002573392,-0.3181228,1.551804,-0.1503019,-0.08445048,1.59635,0.3553914,-0.03344654,1.527738,NA,NA,NotTracked,Unknown,
-0.1791992,0.8955078,0.4785156,0.9375,-0.3149414,-0.08789063,29,-8,-17,7,10,1,3,12,0,-2,-1,0,1,0,0,-1,2.3125,2.3125,2.3125,1.6875,1.6875,1.6875,6.755762,5.28487,6.587068,2.073356,3.019241,6.250315,-0.137053,-0.4025124,1.51423,0.1099282,0.123145,1.442833,0.09255326,0.4790657,1.59051,-0.08511659,-0.3837152,1.479336,0.1421387,0.1589422,1.366067,0.08917123,0.008644208,1.600012,0.08868175,-0.3248029,1.581263,-0.1002394,0.2042972,1.590789,0.002564217,-0.3181354,1.551841,-0.1502109,-0.0842595,1.596664,0.3561963,-0.03313428,1.527637,NA,NA,NotTracked,Unknown,
-0.184082,0.8730469,0.4692383,0.9345703,-0.3105469,-0.09375,2,-16,-6,1,-2,-1,-3,-7,-1,-1,0,-1,-2,-1,-1,2,-4.1875,-4.1875,-4.1875,2.5625,2.5625,2.5625,6.747126,5.282848,6.591074,2.080433,3.020909,6.246677,-0.1367535,-0.4028692,1.515094,0.1073344,0.1256513,1.444017,0.0925524,0.4790373,1.590531,-0.08513311,-0.3839857,1.4795,0.1391098,0.1613717,1.366214,0.08925068,0.008601017,1.600031,0.08870094,-0.324862,1.581316,-0.100241,0.2042822,1.590747,0.002565186,-0.3181584,1.551871,-0.1500494,-0.08400791,1.597022,0.3565245,-0.03298715,1.527547,NA,NA,NotTracked,Unknown,
-0.1889648,0.8735352,0.4614258,0.9418945,-0.3139648,-0.08007813,-27,-4,1,-17,-11,-5,-4,-9,0,-1,-2,-2,-1,-1,-2,-1,-5.875,-5.875,-5.875,-1.0625,-1.0625,-1.0625,6.740802,5.279688,6.595566,2.075926,3.020054,6.250264,-0.1366135,-0.4041262,1.51346,0.1069453,0.08288362,1.447931,0.0925768,0.4789832,1.590605,-0.0850981,-0.3838688,1.47928,0.1411608,0.1566681,1.367045,0.08944156,0.008610986,1.59979,0.08879692,-0.324977,1.581394,-0.1002154,0.2042518,1.590691,0.002601331,-0.3182226,1.551895,-0.1499471,-0.08365731,1.597441,0.3569706,-0.03284541,1.52762,NA,NA,NotTracked,Unknown,
-0.1733398,0.9101563,0.4726563,0.9418945,-0.315918,-0.08251953,39,3,-3,-1,-3,1,2,6,-1,1,-1,-2,-2,-1,-2,-2,-2.75,-2.75,-2.75,-1.125,-1.125,-1.125,6.737825,5.275742,6.597646,2.074658,3.020301,6.250223,-0.1368764,-0.4029882,1.514648,0.1105669,0.1120454,1.446421,0.09261153,0.4788852,1.590684,-0.08501644,-0.3815447,1.481799,0.1424189,0.1589363,1.352,0.08952156,0.008556555,1.599913,0.08882771,-0.3249899,1.581521,-0.1002065,0.2042495,1.590668,0.002611402,-0.318225,1.552063,-0.1499461,-0.08368915,1.597607,0.3571762,-0.03279517,1.527722,NA,NA,NotTracked,Open,
-0.1450195,0.887207,0.4672852,0.9414063,-0.3105469,-0.07910156,28,-4,-7,-5,-2,-6,-5,1,-2,-2,-2,-1,-1,1,-3,-3,-5.4375,-5.4375,-5.4375,-1.0625,-1.0625,-1.0625,6.731369,5.270875,6.597484,2.076077,3.019892,6.247091,-0.1366138,-0.4024969,1.514493,0.1049534,0.07826403,1.446987,0.0926046,0.4788829,1.590687,-0.08517018,-0.3865674,1.478822,0.1354993,0.1472025,1.366941,0.08968878,0.008678024,1.599668,0.0888676,-0.3249743,1.581539,-0.1001839,0.2042501,1.590591,0.002632051,-0.3182158,1.55206,-0.1498625,-0.08350662,1.597679,0.3574151,-0.03275595,1.527754,NA,NA,NotTracked,Unknown,
-0.1474609,0.8725586,0.4868164,0.9462891,-0.3144531,-0.08251953,-6,-1,-9,-5,1,-4,-7,-10,-2,-1,-1,-3,-3,-1,-1,0,-24.5,-24.5,-24.5,-0.375,-0.375,-0.375,6.700928,5.264984,6.606265,2.076713,3.020072,6.24516,-0.1367076,-0.4034214,1.514246,0.1222642,0.1128663,1.446749,0.09258452,0.4787213,1.590653,-0.08511917,-0.3841028,1.479602,0.1428724,0.1644398,1.395074,0.08983477,0.008733237,1.599499,0.08890996,-0.3249646,1.581593,-0.1001341,0.2042437,1.590532,0.002662095,-0.3182198,1.552061,-0.149828,-0.08341429,1.59786,0.3575667,-0.0327003,1.527943,NA,NA,NotTracked,Open,
-0.1787109,0.8085938,0.4135742,0.9404297,-0.3027344,-0.08496094,5,-7,-2,0,1,0,1,12,0,-2,-2,-1,-1,-2,-3,-2,-42.625,-42.625,-42.625,-1.125,-1.125,-1.125,6.63338,5.229852,6.634288,2.076201,3.019647,6.245099,-0.1365077,-0.4035739,1.513392,0.1159997,0.08056673,1.431116,0.0925834,0.478624,1.590728,-0.08499222,-0.380135,1.482819,0.1425667,0.04952508,1.358765,0.0897798,0.008614611,1.599803,0.08895507,-0.3249626,1.581628,-0.09999514,0.2042088,1.590368,0.002729366,-0.318212,1.551939,-0.14983,-0.08342731,1.597859,0.3575396,-0.03276898,1.5281,NA,NA,NotTracked,Open,
-0.1303711,0.7607422,0.4746094,0.9404297,-0.3212891,-0.08154297,46,19,22,4,-2,-5,-7,-24,-2,0,-2,-1,0,0,-2,-2,0.125,0.125,0.125,-1.3125,-1.3125,-1.3125,6.597631,5.161052,6.606148,2.074423,3.019558,6.243598,-0.1363004,-0.4037661,1.513235,0.1111934,0.02942553,1.42006,0.09258723,0.4786163,1.590723,-0.0851264,-0.3838374,1.479753,0.1408866,0.01652323,1.3356,0.08973834,0.00857812,1.599973,0.08901201,-0.3249531,1.58162,-0.09982276,0.2039532,1.590866,0.002832406,-0.3182094,1.551806,-0.1498463,-0.08347329,1.597859,0.3573876,-0.03289454,1.528397,NA,NA,NotTracked,Unknown,
0.03369141,0.7739258,0.5224609,0.9482422,-0.3056641,-0.08300781,15,-13,-25,-22,-2,-1,1,15,0,0,-1,0,-1,-1,-1,-1,-52.375,-52.375,-52.375,1.75,1.75,1.75,6.554479,5.041823,6.56426,2.079936,3.021199,6.24131,-0.1362254,-0.403411,1.512766,0.1087145,-0.02269553,1.381117,0.09255216,0.4786565,1.59082,-0.08515193,-0.3839305,1.479772,0.1306461,-0.0699935,1.3058,0.08967537,0.008600205,1.600198,0.08909523,-0.324841,1.581613,-0.09980968,0.2039393,1.591576,0.002943531,-0.3180231,1.55159,-0.1498613,-0.08345766,1.597885,0.3565046,-0.03338389,1.529283,NA,NA,NotTracked,Open,
0.2236328,0.8720703,0.6274414,0.9384766,-0.3066406,-0.0859375,-5,-20,-44,-20,-3,-1,-4,0,-2,-1,-2,-2,0,-3,0,-2,2.3125,2.3125,2.3125,0.8125,0.8125,0.8125,6.514703,4.851913,6.538978,2.080701,3.02121,6.240995,-0.1364485,-0.4034463,1.513391,0.09299665,-0.06144974,1.397468,0.09252994,0.4786157,1.590834,-0.08518606,-0.3830479,1.480431,0.1141529,-0.03107086,1.309,0.08963008,0.008669712,1.600395,0.08925726,-0.3245698,1.581622,-0.09974166,0.203796,1.59191,0.0031331,-0.3176914,1.551338,-0.1496348,-0.08414763,1.597952,0.3834658,-0.03735413,1.534059,NA,NA,NotTracked,Unknown,
0.2329102,0.7451172,0.6875,0.9526367,-0.3173828,-0.0859375,-18,-3,-12,3,-1,-3,-14,-35,-2,0,-1,-1,-2,-2,0,-1,-50.1875,-50.1875,-50.1875,0.375,0.375,0.375,6.460234,4.72549,6.571256,2.080718,3.021835,6.241166,-0.1365161,-0.4037687,1.513155,0.104357,-0.09501881,1.392078,0.09241041,0.4785768,1.591,-0.08514662,-0.3838508,1.479885,0.04520785,-0.1090877,1.427292,0.08965904,0.008670478,1.600544,0.089581,-0.3244287,1.581592,-0.09981203,0.2036949,1.592321,0.00345017,-0.3175742,1.551076,-0.1496524,-0.08415384,1.597917,0.4015371,-0.0358431,1.541681,NA,NA,NotTracked,Unknown,
0.1357422,0.8642578,0.6201172,0.9433594,-0.315918,-0.08154297,21,-4,-5,1,-1,-1,0,12,0,0,0,0,-1,0,-1,1,8.8125,8.8125,8.8125,1.6875,1.6875,1.6875,6.454911,4.679154,6.563989,2.083951,3.023034,6.240695,-0.1369521,-0.403699,1.51298,0.1023198,-0.109454,1.399687,0.09235044,0.4785297,1.591079,-0.08511482,-0.3832262,1.479851,0.03979422,-0.1177814,1.429706,0.08966305,0.008674791,1.600567,0.08989043,-0.3243722,1.581454,-0.09979982,0.2034479,1.592521,0.003732466,-0.3175367,1.55066,-0.149822,-0.08540893,1.597828,0.4010421,-0.03743711,1.542475,NA,NA,NotTracked,Open,
0.1171875,0.6557617,0.4150391,0.9272461,-0.3051758,-0.078125,1,1,0,0,-2,0,0,-4,0,-3,-1,-2,0,-2,-3,-1,-43.75,-43.75,-43.75,-1.125,-1.125,-1.125,6.433884,4.59005,6.47957,2.08106,3.022342,6.245576,-0.1367306,-0.4047199,1.512817,0.09736612,-0.1371745,1.392328,0.09224021,0.4785671,1.591192,-0.08504007,-0.3835922,1.479706,0.1135683,-0.2120318,1.4146,0.08965833,0.008686746,1.600604,0.09009025,-0.3242634,1.581343,-0.09977896,0.2034128,1.592293,0.003883028,-0.3174272,1.550332,-0.1498735,-0.08553009,1.597877,0.4100768,-0.02437517,1.551144,NA,NA,NotTracked,Unknown,
0.3041992,0.5834961,0.4799805,0.9331055,-0.309082,-0.06689453,2,0,-1,-1,-1,0,0,2,-3,-1,0,-1,-3,1,1,-1,-16.75,-16.75,-16.75,-0.625,-0.625,-0.625,6.416264,4.421555,6.397871,2.076658,3.020517,6.248397,-0.137042,-0.4050606,1.513606,0.1110312,-0.1762977,1.387447,0.0921363,0.4785205,1.591246,-0.0845894,-0.3744615,1.483509,0.06173576,-0.1348484,1.425409,0.0896612,0.008685455,1.600733,0.09027266,-0.3242726,1.581417,-0.09970477,0.2033859,1.591827,0.004020433,-0.317435,1.550352,-0.1497913,-0.0858033,1.597934,0.350538,-0.03667044,1.554278,NA,NA,NotTracked,Open,
0.4077148,0.5844727,0.5073242,0.956543,-0.3144531,-0.07958984,-6,0,-5,-1,-1,-2,-1,-2,1,-1,-1,-1,-1,-1,-3,-1,23.6875,23.6875,23.6875,-3.75,-3.75,-3.75,6.457623,4.185436,6.31233,2.07231,3.01716,6.249156,-0.1366481,-0.4047093,1.513616,0.1322614,-0.2295552,1.38497,0.09203433,0.478454,1.591262,-0.08498468,-0.3819508,1.480371,0.08444486,-0.2087099,1.421193,0.08962457,0.008534713,1.600794,0.0903983,-0.3245789,1.581347,-0.09982049,0.2031383,1.592112,0.004067435,-0.3175391,1.550261,-0.149911,-0.08712344,1.597705,0.3488987,-0.0373087,1.555448,NA,NA,NotTracked,Open,
0.7763672,0.7133789,0.4985352,0.9599609,-0.3203125,-0.09814453,6,-5,-13,-5,-3,-4,-3,1,-1,-1,-1,-1,-1,0,0,-3,34.75,34.75,34.75,-4.375,-4.375,-4.375,6.601724,3.842147,6.200515,2.079505,3.014687,6.233811,-0.1361251,-0.4040713,1.512536,0.1610528,-0.2798137,1.398762,0.09193084,0.4784387,1.5913,-0.08496998,-0.3818877,1.480346,0.1493876,-0.2637464,1.33984,0.08917749,0.008154573,1.600829,0.08979168,-0.3253984,1.580884,-0.09998856,0.2028641,1.592338,0.003239423,-0.3179144,1.549653,-0.1499415,-0.08641552,1.597635,0.3469773,-0.03842915,1.556444,NA,NA,NotTracked,Unknown,
0.8681641,0.4897461,0.3852539,0.9477539,-0.3154297,-0.105957,-4,0,0,-3,-1,-1,-2,-2,-2,0,0,-1,-1,1,-2,0,18.8125,18.8125,18.8125,-3.0625,-3.0625,-3.0625,6.655495,3.609866,6.151096,2.077856,3.017018,6.228021,-0.1357027,-0.4060768,1.512959,0.2125038,-0.3234338,1.393307,0.09184366,0.4783741,1.591311,-0.08497146,-0.382303,1.480274,0.1730356,-0.3128886,1.389895,0.08826572,0.007891005,1.60084,0.08731315,-0.3260336,1.580285,-0.1002466,0.2027898,1.592705,-3.500657E-05,-0.3178645,1.548667,-0.149991,-0.08615224,1.597659,0.3410419,-0.04129746,1.557295,NA,NA,NotTracked,Unknown,
