ALX,ALY,ALZ,ARX,ARY,ARZ,EMG0L,EMG1L,EMG2L,EMG3L,EMG4L,EMG5L,EMG6L,EMG7L,EMG0R,EMG1R,EMG2R,EMG3R,EMG4R,EMG5R,EMG6R,EMG7R,GLX,GLY,GLZ,GRX,GRY,GRZ,ORL,OPL,OYL,ORR,OPR,OYR,LHNX,LHNY,LHNZ,RHNX,RHNY,RHNZ,HX,HY,HZ,LTX,LTY,LTZ,RTX,RTY,RTZ,SpineMidX,SpineMidY,SpineMidZ,SpineBaseX,SpineBaseY,SpineBaseZ,ShoulderLeftX,ShoulderLeftY,ShoulderLeftZ,ShoulderRightX,ShoulderRightY,ShoulderRightZ,ElbowLeftX,ElbowLeftY,ElbowLeftZ,ElbowRightX,ElbowRightY,ElbowRightZ,Myo_Pose_left,Myo_Pose_Right,Kinect_pose_left,Kinect_pose_right
0.9326172,0.269043,0.05859375,0.9482422,-0.2919922,-0.09960938,-2,-2,0,-2,-1,-2,1,0,-1,1,3,2,-1,-2,0,-1,0.125,0.125,0.125,0.125,0.125,0.125,7.213166,2.963143,8.851199,1.964081,2.987861,5.993382,-0.1095674,-0.4015382,1.581165,0.3226581,-0.4046722,1.525594,0.1240746,0.4761372,1.636242,-0.1598358,-0.4073534,1.59156,0.2725383,-0.4135239,1.496125,0.118718,0.005497834,1.644387,0.1161708,-0.3284192,1.620498,-0.06835696,0.2019747,1.644852,0.02894226,-0.3203145,1.589145,-0.1188051,-0.08597881,1.650421,0.3471881,-0.0789725,1.598268,NA,NA,NotTracked,NotTracked,
0.9355469,0.2724609,0.05859375,0.9462891,-0.2900391,-0.09912109,-1,0,-1,-1,-1,-1,-1,-1,-2,-4,1,-2,-1,-3,-1,0,0.125,0.125,0.125,-0.9375,-0.9375,-0.9375,7.211823,2.96309,8.852457,1.963686,2.987994,5.99373,-0.1094701,-0.4008205,1.580034,0.3227573,-0.4047585,1.525184,0.1238663,0.4759982,1.636575,-0.1600686,-0.4112474,1.592508,0.2725534,-0.3839175,1.498081,0.1185642,0.005508515,1.644771,0.1161077,-0.3283874,1.620694,-0.06853788,0.201966,1.645172,0.02888189,-0.3202958,1.58934,-0.118842,-0.08589387,1.650733,0.3471266,-0.07932228,1.598586,NA,NA,NotTracked,NotTracked,
0.9316406,0.269043,0.05908203,0.9414063,-0.2890625,-0.1010742,0,-1,-3,-1,-1,1,-2,0,-1,1,-1,0,0,0,-1,-1,0.0625,0.0625,0.0625,-0.75,-0.75,-0.75,7.21131,2.963186,8.852483,1.964109,2.988168,5.993244,-0.1096388,-0.4011602,1.579636,0.3223814,-0.4044286,1.524322,0.1237462,0.4758807,1.63699,-0.1602825,-0.4117501,1.591043,0.2718623,-0.3980086,1.495234,0.118376,0.005524111,1.645133,0.1159317,-0.3283989,1.620943,-0.06866072,0.2019489,1.645492,0.02869292,-0.3203078,1.589648,-0.1189684,-0.08561652,1.651081,0.3470651,-0.07944866,1.599002,NA,NA,NotTracked,NotTracked,
0.9355469,0.2749023,0.0625,0.956543,-0.2890625,-0.1040039,-1,-1,1,-1,-2,-2,-1,1,-2,-1,-7,-3,-2,-2,-2,-1,0.1875,0.1875,0.1875,-0.3125,-0.3125,-0.3125,7.210553,2.963254,8.853354,1.963714,2.988301,5.993592,-0.1097666,-0.4016607,1.580407,0.3223113,-0.402782,1.525975,0.123499,0.4759585,1.637704,-0.1603239,-0.4185299,1.591255,0.2723315,-0.3903719,1.496742,0.1183058,0.00553586,1.645445,0.1159462,-0.3283869,1.621054,-0.06887455,0.2019186,1.645888,0.02869979,-0.3203247,1.589733,-0.1190412,-0.0854798,1.65147,0.3468998,-0.0792159,1.599386,NA,NA,NotTracked,NotTracked,
0.9350586,0.2734375,0.05664063,0.9482422,-0.2890625,-0.09912109,-1,-2,-1,0,-3,0,0,-2,-1,-1,-2,-1,-1,-2,0,0,-0.3125,-0.3125,-0.3125,-0.0625,-0.0625,-0.0625,7.209208,2.963202,8.854612,1.964533,2.989017,5.992996,-0.1099018,-0.4005343,1.579709,0.322593,-0.4025825,1.525597,0.1233799,0.4758741,1.638009,-0.1601385,-0.4109316,1.58976,0.2720827,-0.3869003,1.496896,0.1181228,0.005497197,1.645608,0.1157515,-0.3283958,1.621241,-0.06894234,0.2018465,1.645967,0.02853754,-0.3203211,1.589884,-0.1190509,-0.0855132,1.651489,0.346689,-0.07929413,1.59969,NA,NA,NotTracked,NotTracked,
0.934082,0.2714844,0.05078125,0.9467773,-0.2944336,-0.1010742,-1,-1,-2,0,0,-1,-2,-1,0,-1,-2,-1,0,-1,-2,-1,-1.3125,-1.3125,-1.3125,0.0625,0.0625,0.0625,7.209906,2.963481,8.853371,1.963166,2.988951,5.992826,-0.1100405,-0.4010978,1.580927,0.3227305,-0.4027948,1.52697,0.1232381,0.475877,1.638453,-0.1601421,-0.4108735,1.590482,0.2701827,-0.4129979,1.494611,0.1180103,0.005503946,1.645959,0.1156384,-0.3283828,1.621493,-0.06902414,0.201862,1.646098,0.02842979,-0.3203093,1.590122,-0.1191502,-0.0855649,1.651707,0.3465121,-0.07895465,1.600294,NA,NA,NotTracked,NotTracked,
0.9458008,0.3012695,0.03466797,0.953125,-0.2885742,-0.09521484,-4,6,-7,-3,-2,5,-1,-6,-3,-2,-2,0,-1,0,-1,-1,-3.25,-3.25,-3.25,-0.3125,-0.3125,-0.3125,7.217476,2.967708,8.842318,1.963477,2.989464,5.992506,-0.1105109,-0.4016899,1.581491,0.3231431,-0.4024274,1.526828,0.1231722,0.4760486,1.639029,-0.1614476,-0.4032013,1.592529,0.2722692,-0.3825989,1.49875,0.1179386,0.005527911,1.646237,0.1155462,-0.3283054,1.621743,-0.06916725,0.2019176,1.646362,0.02834281,-0.3202379,1.590416,-0.1192932,-0.08545286,1.651847,0.3464187,-0.07843759,1.60085,NA,NA,NotTracked,NotTracked,
1.019043,0.3413086,-0.01953125,0.9541016,-0.2993164,-0.09570313,-19,-8,0,-3,8,6,-3,-8,-1,-3,-2,-1,-2,-2,0,-1,-55.75,-55.75,-55.75,1,1,1,7.244793,3.009097,8.75097,1.965378,2.990343,5.991156,-0.1103201,-0.4011008,1.581091,0.3225154,-0.400904,1.52204,0.123043,0.4759241,1.63978,-0.1613191,-0.4040985,1.59382,0.2713085,-0.3965272,1.4963,0.117794,0.005545339,1.646659,0.1154692,-0.3282394,1.622195,-0.06911878,0.2019749,1.646744,0.02829921,-0.3201875,1.590747,-0.1193817,-0.08533871,1.651963,0.346427,-0.07840709,1.601469,NA,NA,NotTracked,NotTracked,
1.079102,0.7866211,-0.08349609,0.9545898,-0.2861328,-0.1132813,4,-7,-1,1,-4,-8,-2,1,-2,0,1,1,-1,-1,0,0,-148.375,-148.375,-148.375,4.125,4.125,4.125,7.124115,3.238929,8.628655,1.967773,2.992387,5.994513,-0.1105965,-0.4000148,1.580877,0.3159706,-0.3961389,1.497614,0.1229763,0.475947,1.639954,-0.1593523,-0.4004608,1.588772,0.2683194,-0.4026531,1.489999,0.1178084,0.005646915,1.646993,0.1154866,-0.3281403,1.622514,-0.06928574,0.2021942,1.647225,0.02831586,-0.3201196,1.590872,-0.1195873,-0.0861137,1.652421,0.3471124,-0.07931348,1.603499,NA,NA,NotTracked,NotTracked,
1.145996,0.621582,0.3388672,0.9399414,-0.2880859,-0.1040039,3,0,-3,-4,-4,1,2,1,0,-3,-2,-1,-2,-4,-3,-3,-188,-188,-188,-0.375,-0.375,-0.375,6.808898,3.540667,8.645134,1.963709,2.989854,6.000038,-0.1113278,-0.3999256,1.582468,0.3084569,-0.3472035,1.443784,0.1229394,0.4760199,1.640134,-0.1608122,-0.408758,1.592287,0.3276707,-0.3487248,1.398314,0.1175729,0.005723733,1.647294,0.1148495,-0.327996,1.622957,-0.06941731,0.2023659,1.647558,0.02768838,-0.31991,1.591099,-0.1196674,-0.08734421,1.652655,0.3516427,-0.0756062,1.611166,NA,NA,NotTracked,Lasso,
0.6303711,1.00293,0.6201172,0.9619141,-0.3134766,-0.09179688,10,7,1,-7,-2,4,3,10,-1,0,8,0,0,0,-1,0,-26.4375,-26.4375,-26.4375,-6,-6,-6,6.651247,4.148736,8.654977,1.954227,2.985912,6.002025,-0.1118168,-0.3981285,1.583685,0.2955018,-0.2557841,1.378108,0.1229758,0.4759404,1.640002,-0.1625665,-0.419871,1.595059,0.2999888,-0.2258993,1.341436,0.1169154,0.005887888,1.64743,0.1132852,-0.3275791,1.623339,-0.06942553,0.2024671,1.647567,0.02598694,-0.319186,1.591276,-0.1200695,-0.08755971,1.652851,0.3600335,-0.05655562,1.626339,NA,NA,NotTracked,Unknown,
0.1098633,0.6875,0.4902344,0.9404297,-0.3022461,-0.1000977,-2,-6,-3,-9,-9,-2,0,-5,0,-1,-2,-1,-1,-1,0,-4,-65.5625,-65.5625,-65.5625,-6.9375,-6.9375,-6.9375,6.489268,4.887775,8.661379,1.941546,2.98537,6.003468,-0.1124272,-0.3975438,1.582431,0.2954891,-0.1081433,1.325371,0.1232274,0.475868,1.639714,-0.1642582,-0.4102028,1.598802,0.3085203,-0.1356918,1.301,0.1167387,0.005916386,1.647511,0.112711,-0.327364,1.623671,-0.06937135,0.2025329,1.647456,0.02544013,-0.3189167,1.591408,-0.1204222,-0.08651385,1.652729,0.370786,-0.04499591,1.633999,NA,NA,NotTracked,Unknown,
-0.3330078,0.7041016,0.4868164,0.9213867,-0.2817383,-0.09521484,2,-5,-6,-5,11,3,2,11,-1,0,-1,0,-2,0,-1,0,52.0625,52.0625,52.0625,-4.4375,-4.4375,-4.4375,6.534904,5.451365,8.711581,1.938784,2.98585,5.996554,-0.1133727,-0.3980063,1.582407,0.30608,0.03919172,1.343647,0.1238024,0.4755753,1.638878,-0.1630085,-0.4121957,1.594683,0.309049,0.01418476,1.316143,0.116689,0.005960368,1.647598,0.1125836,-0.3269711,1.624134,-0.06933442,0.2026948,1.647195,0.02528309,-0.3186857,1.591789,-0.1206465,-0.08668842,1.652367,0.36681,-0.05372217,1.576184,NA,NA,NotTracked,Unknown,
-0.4682617,0.5649414,0.4804688,0.9423828,-0.2919922,-0.09521484,-4,0,-1,2,-4,-1,0,-6,-2,-1,-1,0,-1,-1,-2,0,48.9375,48.9375,48.9375,-5.625,-5.625,-5.625,6.665922,5.919067,8.825779,1.93582,2.987052,5.989419,-0.1130324,-0.3980468,1.580824,0.302281,0.1679133,1.376571,0.1243732,0.4752716,1.638142,-0.162569,-0.4128765,1.593575,0.2452212,0.1543673,1.349286,0.1165892,0.006023285,1.647816,0.1125676,-0.3267968,1.624454,-0.06930948,0.2027678,1.647064,0.0251615,-0.3186658,1.592008,-0.1208371,-0.08650693,1.652112,0.4224765,-0.07747097,1.589962,NA,NA,NotTracked,Unknown,
-0.5869141,0.4770508,0.3427734,0.9584961,-0.277832,-0.1123047,-8,-5,-7,-6,-7,-2,-7,-14,-1,-3,-8,-1,-2,0,-1,0,50.5625,50.5625,50.5625,-3.4375,-3.4375,-3.4375,6.988121,6.380375,9.128689,1.94531,2.988049,5.974946,-0.1137985,-0.3975427,1.579457,0.2988416,0.2436335,1.422534,0.1245135,0.4751374,1.637649,-0.1627295,-0.4085113,1.590171,0.2329865,0.2356844,1.401267,0.116297,0.005946773,1.647913,0.1119024,-0.3267811,1.624405,-0.06925949,0.2027206,1.646726,0.02378984,-0.3184249,1.591646,-0.1215666,-0.08522485,1.651561,0.4473926,-0.04431099,1.551185,NA,NA,NotTracked,Unknown,
-0.6279297,0.4023438,0.1835938,0.9511719,-0.2895508,-0.1035156,8,1,1,3,-1,0,1,4,1,-1,-2,0,-1,-2,-2,-1,10.875,10.875,10.875,-1.5,-1.5,-1.5,7.323089,6.565344,9.514155,1.943541,2.989225,5.971516,-0.1140827,-0.3968273,1.579238,0.2953916,0.278697,1.459165,0.1244987,0.4750213,1.637468,-0.1630264,-0.4104108,1.591819,0.2290543,0.2809528,1.444333,0.1163701,0.006896919,1.648185,0.111189,-0.3235497,1.624423,-0.06920177,0.202715,1.646649,0.02250242,-0.3153059,1.59162,-0.1221138,-0.08321856,1.651197,0.4553831,-0.01525999,1.520166,NA,NA,NotTracked,Unknown,
-0.6235352,0.40625,-0.06787109,0.9399414,-0.2763672,-0.09521484,-2,-9,-3,-1,-2,-1,-1,4,-2,0,-4,-3,-1,2,0,-2,12.9375,12.9375,12.9375,1.3125,1.3125,1.3125,7.639445,6.626577,9.874592,1.941918,2.988508,5.974652,-0.114703,-0.3965847,1.579824,0.2863887,0.2935073,1.483465,0.1243998,0.4744627,1.636788,-0.1633814,-0.4183521,1.587315,0.2111132,0.3023205,1.467226,0.1175232,0.00932651,1.648162,0.1107197,-0.3196924,1.624032,-0.06889217,0.2026131,1.646316,0.02145729,-0.3116122,1.591577,-0.1221911,-0.0827819,1.651003,0.4367528,0.04776675,1.483895,NA,NA,NotTracked,Unknown,
-0.7915039,0.4775391,-0.04101563,0.9541016,-0.2788086,-0.09326172,-5,-6,-3,1,-3,0,-3,-10,-1,-3,-9,1,-2,-2,-1,-2,-13.9375,-13.9375,-13.9375,3.4375,3.4375,3.4375,7.831653,6.620272,0.1024844,1.941594,2.987849,5.980425,-0.1153674,-0.3974362,1.579657,0.246119,0.3317805,1.506717,0.1246604,0.4737394,1.636238,-0.1643076,-0.4081646,1.590149,0.2913139,0.3300099,1.475667,0.1187879,0.01157392,1.647871,0.1105613,-0.317606,1.623572,-0.06856752,0.202593,1.645938,0.02099002,-0.3095799,1.591454,-0.122459,-0.08171,1.650792,0.4368448,0.05375183,1.479121,NA,NA,NotTracked,Unknown,
-0.7631836,0.5576172,-0.06689453,0.9570313,-0.2895508,-0.09716797,3,-14,-4,-1,-2,-4,-1,-17,0,-3,-3,-1,1,0,0,0,7.75,7.75,7.75,5.75,5.75,5.75,7.858897,6.609725,0.1274922,1.947588,2.986862,5.982095,-0.1153017,-0.3959417,1.581501,0.2606051,0.3196449,1.49734,0.1247608,0.4730661,1.635752,-0.1645996,-0.4071149,1.594703,0.2419297,0.2933149,1.541333,0.1194556,0.01271465,1.647731,0.110156,-0.316147,1.623313,-0.06839097,0.2026612,1.645844,0.02034727,-0.30809,1.591516,-0.1225972,-0.08103646,1.650803,0.4369493,0.06203514,1.472186,NA,NA,NotTracked,Unknown,
-0.793457,0.5244141,-0.05859375,0.9482422,-0.2841797,-0.1132813,1,-7,-5,-7,-4,-1,-4,-1,-2,-3,-2,-1,-2,-2,-3,-3,-3.75,-3.75,-3.75,8.6875,8.6875,8.6875,7.853056,6.606575,0.1266218,1.956033,2.986564,5.982732,-0.1154994,-0.3961206,1.581752,0.2507045,0.326426,1.49863,0.1247953,0.472497,1.635261,-0.1633983,-0.4032401,1.592104,0.2330749,0.2950436,1.528867,0.1200913,0.01358751,1.647334,0.1099325,-0.3152666,1.623067,-0.06825107,0.2027756,1.645777,0.02001206,-0.3073064,1.591596,-0.1228464,-0.08023611,1.651048,0.4363592,0.06624763,1.467794,NA,NA,NotTracked,Unknown,
-0.8349609,0.5483398,-0.09423828,0.9384766,-0.3007813,-0.09814453,-1,-5,-6,-8,2,-1,-5,-16,1,0,1,0,-1,0,0,-1,-5.375,-5.375,-5.375,6.5625,6.5625,6.5625,7.837278,6.590017,0.125429,1.961639,2.988714,5.995002,-0.1161298,-0.3960016,1.581621,0.2480064,0.3274603,1.498707,0.1247227,0.4717191,1.634604,-0.1645399,-0.4054681,1.59341,0.2394705,0.2932285,1.5346,0.1203785,0.01398752,1.647125,0.1097073,-0.3148244,1.623011,-0.06815045,0.2028567,1.645764,0.01966541,-0.3068262,1.591786,-0.122922,-0.07936911,1.651444,0.435884,0.06777734,1.465875,NA,NA,NotTracked,Unknown,
-0.8271484,0.5541992,-0.09667969,0.9462891,-0.2988281,-0.09082031,4,-5,0,-3,-3,-1,-3,-5,1,-1,-5,-2,0,-1,-1,-1,1.8125,1.8125,1.8125,1.75,1.75,1.75,7.81985,6.580716,0.1063658,1.962223,2.989154,6.000912,-0.1162937,-0.3966875,1.58152,0.2550026,0.3196705,1.492288,0.1246006,0.4714048,1.634075,-0.1639016,-0.4086472,1.592661,0.2857734,0.3259579,1.5195,0.120732,0.01440865,1.646805,0.1095971,-0.3145683,1.622884,-0.06809927,0.2028733,1.64575,0.01948573,-0.3065998,1.591802,-0.1231143,-0.07878172,1.651893,0.4355252,0.06844666,1.464684,NA,NA,NotTracked,Unknown,
-0.8125,0.5625,-0.09179688,0.934082,-0.3051758,-0.08837891,1,6,3,-4,-3,1,2,5,-1,0,-2,-3,-2,-3,-6,-6,3.5625,3.5625,3.5625,-2.75,-2.75,-2.75,7.787693,6.568617,0.06352684,1.962137,2.989215,5.999468,-0.116712,-0.3962557,1.581766,0.2542961,0.3186794,1.490922,0.1243975,0.4709355,1.633465,-0.1639744,-0.4085038,1.592246,0.3115743,0.2599666,1.573019,0.1208358,0.01469541,1.646576,0.1094176,-0.3141421,1.622752,-0.06802771,0.2029951,1.645646,0.01924466,-0.3061505,1.591884,-0.123276,-0.07860362,1.652093,0.4352542,0.06863408,1.464543,NA,NA,NotTracked,Unknown,
-0.7807617,0.5820313,-0.08642578,0.9443359,-0.2993164,-0.09570313,-1,-1,2,-2,8,3,3,1,-1,-2,0,-2,1,-1,0,-2,14.25,14.25,14.25,-4.0625,-4.0625,-4.0625,7.75338,6.556498,0.00146312,1.958874,2.989722,5.996194,-0.1168877,-0.3955486,1.581359,0.2559103,0.3155214,1.486306,0.1243114,0.4707942,1.633116,-0.1641441,-0.4085379,1.592495,0.1847724,0.315778,1.465767,0.1209556,0.01491566,1.646375,0.1092258,-0.3139904,1.622702,-0.06798839,0.2030648,1.645605,0.01895506,-0.3059467,1.591892,-0.1233676,-0.07855181,1.652136,0.4352574,0.06843843,1.464648,NA,NA,NotTracked,Unknown,
-0.8198242,0.6118164,-0.1479492,0.949707,-0.2885742,-0.1049805,1,-10,-2,0,9,1,3,10,-2,-2,-6,-1,-1,0,-2,1,41.9375,41.9375,41.9375,-2.5625,-2.5625,-2.5625,7.717509,6.534298,9.883053,1.954554,2.990267,5.995762,-0.1175799,-0.3953625,1.580925,0.2507664,0.3194067,1.48448,0.1240694,0.4707657,1.632715,-0.166853,-0.4081891,1.596465,0.2352564,0.2890057,1.522741,0.1210232,0.01525151,1.646135,0.1089433,-0.3136491,1.622504,-0.06791404,0.2032554,1.645319,0.01861667,-0.3055454,1.591755,-0.1235653,-0.07825316,1.652039,0.4356093,0.06841794,1.464925,NA,NA,NotTracked,Unknown,
-0.8603516,0.6318359,-0.1279297,0.9467773,-0.2841797,-0.1040039,-7,-8,-7,0,-6,-1,0,-2,-3,-2,0,0,-2,0,1,-2,61.5625,61.5625,61.5625,0.375,0.375,0.375,7.681116,6.528037,9.727822,1.953158,2.990631,5.993019,-0.1179802,-0.3954979,1.580197,0.2656407,0.3105951,1.468102,0.1235072,0.4711419,1.632332,-0.1694514,-0.4226594,1.59825,0.197882,0.3085328,1.4444,0.1210706,0.01572106,1.645906,0.1088583,-0.3132083,1.622331,-0.06798937,0.2034183,1.645049,0.01849554,-0.3051368,1.591586,-0.1239215,-0.07761918,1.651807,0.4379876,0.06234995,1.474157,NA,NA,NotTracked,Unknown,
-0.8666992,0.6333008,-0.109375,0.9472656,-0.2807617,-0.1020508,-3,3,3,7,53,11,0,-7,-1,0,0,0,-1,-1,-2,0,84.125,84.125,84.125,1,1,1,7.639748,6.538357,9.504936,1.956463,2.989772,5.992767,-0.1180225,-0.3953435,1.580237,0.2890191,0.3076713,1.447598,0.1223824,0.4722343,1.632529,-0.1693695,-0.4192029,1.597417,0.2072581,0.3141136,1.417833,0.1193461,0.01524761,1.646018,0.1088149,-0.3132313,1.622383,-0.06850074,0.2036104,1.644829,0.01850999,-0.3052374,1.591546,-0.1240763,-0.0777242,1.65166,0.4429807,0.05997625,1.483297,NA,NA,NotTracked,Unknown,
-0.875,0.5307617,-0.078125,0.9472656,-0.2802734,-0.1020508,-8,-4,-2,-1,-11,-3,-3,-4,0,1,19,3,-1,2,0,-1,65,65,65,1.5625,1.5625,1.5625,7.510545,6.570794,9.166067,1.956909,2.989282,5.993021,-0.1188855,-0.3958121,1.581112,0.3185923,0.314,1.432601,0.1213061,0.4732029,1.632572,-0.1680767,-0.4083419,1.593499,0.2638678,0.2988777,1.393286,0.1169947,0.01371203,1.645902,0.1088171,-0.3145508,1.622168,-0.06906478,0.2036409,1.644184,0.01894671,-0.3069582,1.590742,-0.1247686,-0.07815836,1.65123,0.4947823,0.03247474,1.495725,NA,NA,NotTracked,Unknown,
-0.7675781,0.5205078,0.2705078,0.9418945,-0.2861328,-0.08642578,1,-4,-4,-2,-1,-2,-1,2,-2,-1,-6,-3,-2,-1,-2,-1,71.4375,71.4375,71.4375,1.0625,1.0625,1.0625,7.414253,6.601668,8.939319,1.952079,2.986154,5.996447,-0.1188311,-0.3959721,1.580507,0.3469044,0.3197283,1.428536,0.1203196,0.4736756,1.6325,-0.1685411,-0.4081845,1.595485,0.2566586,0.3233825,1.389,0.1152577,0.01237916,1.645689,0.1083548,-0.3165192,1.62197,-0.06869102,0.2032941,1.639794,0.01879784,-0.3090568,1.590325,-0.1257463,-0.07958671,1.650771,0.507719,0.03357476,1.504133,NA,NA,NotTracked,Unknown,
-0.9199219,0.3632813,0.1821289,0.9541016,-0.2993164,-0.08105469,-1,3,5,-8,-7,0,0,-6,-1,-2,0,0,-1,-1,-1,-2,141.3125,141.3125,141.3125,-0.75,-0.75,-0.75,7.459047,6.687599,8.784112,1.950974,2.985795,5.996548,-0.119382,-0.3966819,1.579569,0.3755679,0.3265872,1.429281,0.1192335,0.4738512,1.632302,-0.1693834,-0.4072138,1.59355,0.3021611,0.34509,1.360833,0.1137653,0.01133586,1.645539,0.107845,-0.3180374,1.622036,-0.06999949,0.2033981,1.639763,0.01864706,-0.310955,1.590294,-0.1260066,-0.07970687,1.650533,0.5086944,0.0339397,1.505357,NA,NA,NotTracked,Closed,
-0.925293,0.5717773,-0.06445313,0.9472656,-0.2900391,-0.09619141,1,-3,-1,-4,3,2,-2,-7,-2,-2,-4,-2,0,-3,-4,-4,48,48,48,1.375,1.375,1.375,7.798599,6.77694,8.860623,1.954156,2.987196,5.995433,-0.1194497,-0.3968817,1.579843,0.387434,0.3319901,1.444721,0.1183622,0.474053,1.632029,-0.1691542,-0.4089732,1.593593,0.3731254,0.3696931,1.354556,0.1128351,0.0107325,1.645314,0.1075568,-0.3191151,1.621937,-0.07016616,0.2033573,1.637839,0.01852254,-0.3120894,1.590121,-0.1262954,-0.08023517,1.650175,0.5124956,0.03539136,1.510332,NA,NA,NotTracked,Unknown,
-0.8447266,0.434082,-0.1166992,0.953125,-0.2827148,-0.105957,-1,6,-1,1,5,6,4,4,1,-1,-4,-3,-2,-1,-2,-4,3.5625,3.5625,3.5625,0.75,0.75,0.75,7.912515,6.792701,8.962982,1.954976,2.987237,5.994598,-0.1191605,-0.3960527,1.578842,0.3805346,0.3297616,1.452375,0.1178681,0.4739855,1.6319,-0.1713178,-0.4149148,1.593533,0.4369395,0.2888469,1.423708,0.112372,0.01019028,1.645142,0.1074094,-0.3198996,1.621871,-0.0695472,0.2030476,1.635243,0.01847251,-0.3128537,1.590108,-0.1264312,-0.08058788,1.649769,0.5149387,0.03724682,1.512715,NA,NA,NotTracked,Unknown,
-0.9570313,0.2817383,-0.1298828,0.9487305,-0.2832031,-0.1040039,-1,-1,-3,0,-5,-2,-1,-11,-3,0,2,0,0,0,1,-1,-55.4375,-55.4375,-55.4375,0,0,0,7.848098,6.813248,9.000854,1.954863,2.987577,5.994763,-0.119047,-0.3969004,1.578086,0.3775192,0.3219793,1.462951,0.1175539,0.4743067,1.631607,-0.1703233,-0.4113805,1.591843,0.3491574,0.3485102,1.387421,0.1121291,0.01001613,1.644894,0.1074416,-0.3202327,1.621668,-0.0695941,0.2031185,1.634825,0.01868306,-0.3132152,1.589788,-0.1265282,-0.08063738,1.649417,0.5219805,0.03785794,1.519464,NA,NA,NotTracked,Closed,
-0.9453125,0.3212891,0.07714844,0.9545898,-0.2832031,-0.1025391,2,3,0,16,12,8,5,1,0,0,0,-1,-1,-1,0,-1,-5.5,-5.5,-5.5,-0.9375,-0.9375,-0.9375,7.787177,6.816427,8.964935,1.954043,2.987536,5.995599,-0.1184364,-0.3965092,1.577763,0.3760696,0.3208893,1.475957,0.117491,0.4743893,1.631482,-0.1680731,-0.4040644,1.58887,0.3074896,0.3315891,1.41235,0.1120244,0.009772305,1.644626,0.1075555,-0.3206594,1.621333,-0.06977746,0.203164,1.634553,0.01894662,-0.3136945,1.589244,-0.1267263,-0.0810867,1.649032,0.5268129,0.03618954,1.524131,NA,NA,NotTracked,Closed,
-0.9492188,0.3237305,-0.246582,0.9326172,-0.2880859,-0.09716797,-7,-2,-1,-4,-12,-4,-1,-12,-2,-2,-2,-1,-1,0,-4,-7,83.875,83.875,83.875,-5.8125,-5.8125,-5.8125,8.005986,6.950222,9.042065,1.948113,2.986904,5.99434,-0.1187473,-0.396977,1.578017,0.3842826,0.3265975,1.480618,0.1174351,0.4745656,1.631354,-0.1685149,-0.4082403,1.589918,0.3529732,0.3710698,1.389667,0.1120424,0.009719385,1.64458,0.1076133,-0.3209618,1.621234,-0.07009322,0.2031471,1.635119,0.01915165,-0.3139484,1.589027,-0.1267706,-0.08111049,1.648818,0.5283561,0.03646781,1.529768,NA,NA,NotTracked,Closed,
-0.9462891,0.3056641,-0.1567383,0.9389648,-0.3105469,-0.08154297,9,0,-6,0,-2,-5,1,9,-3,0,-1,0,1,0,1,-1,-53.5,-53.5,-53.5,-3.9375,-3.9375,-3.9375,7.887052,6.907621,8.904453,1.945513,2.988492,5.986181,-0.1187229,-0.3964215,1.576588,0.3873945,0.3274026,1.473181,0.1174918,0.4747075,1.631457,-0.169708,-0.4071299,1.58977,0.3836244,0.3554369,1.385857,0.1120286,0.00958949,1.644537,0.1077366,-0.3212853,1.62117,-0.06905617,0.2027082,1.633232,0.01930308,-0.3142383,1.588906,-0.1267327,-0.08134601,1.648284,0.526705,0.03896569,1.530299,NA,NA,NotTracked,Closed,
-0.8085938,0.3125,0.1855469,0.9702148,-0.2646484,-0.1069336,-13,2,-2,-7,-25,-5,-10,-37,-2,-1,-4,-1,-1,0,-1,-2,-17.125,-17.125,-17.125,1.0625,1.0625,1.0625,7.657846,6.812459,8.755616,1.960558,2.991559,5.973144,-0.1179651,-0.3969806,1.575174,0.3857934,0.325111,1.4705,0.1175064,0.4748726,1.631654,-0.1685249,-0.4110516,1.588713,0.3471396,0.3380466,1.399207,0.11208,0.009467624,1.644608,0.1077909,-0.3215833,1.62127,-0.06980804,0.2030982,1.634679,0.01948496,-0.3144813,1.588919,-0.1265315,-0.08169711,1.647809,0.5332907,0.03741387,1.5329,NA,NA,NotTracked,Closed,
-0.9912109,0.3544922,-0.2993164,0.9560547,-0.2773438,-0.1074219,4,33,11,15,6,7,0,-6,-1,0,-1,0,-1,-2,0,2,70.125,70.125,70.125,0.0625,0.0625,0.0625,7.750553,6.84034,8.79006,1.970759,2.993291,5.959442,-0.116843,-0.3966103,1.574838,0.3885192,0.323824,1.464076,0.1174921,0.4750297,1.631807,-0.168177,-0.4101748,1.590138,0.3587392,0.352962,1.382667,0.1122376,0.009418041,1.644576,0.1083568,-0.321796,1.621192,-0.07020707,0.2032903,1.635512,0.02029329,-0.3148037,1.588658,-0.1263272,-0.08194626,1.647296,0.5328441,0.03722855,1.533213,NA,NA,NotTracked,Closed,
-0.9101563,0.559082,0.05517578,0.9399414,-0.2915039,-0.09765625,-3,-3,6,29,-1,6,1,-5,-1,-1,-1,1,0,-2,-2,-2,-64.25,-64.25,-64.25,-0.5625,-0.5625,-0.5625,7.70167,6.767525,8.755173,1.957677,2.989333,5.972208,-0.116693,-0.3968221,1.575864,0.3859666,0.3187971,1.457518,0.1174836,0.4751635,1.631972,-0.1686643,-0.4117137,1.592202,0.3643715,0.3355918,1.379556,0.1122909,0.009326972,1.644586,0.1086944,-0.3220178,1.621176,-0.07040302,0.2032371,1.635945,0.02073445,-0.3150542,1.588617,-0.1260723,-0.08192946,1.646914,0.5321416,0.03699672,1.533622,NA,NA,NotTracked,Closed,
-0.875,0.5131836,-0.1303711,0.9785156,-0.2768555,-0.1142578,-9,-9,-10,-4,2,-3,-4,-5,-2,-1,9,-2,0,-1,-1,0,35.5,35.5,35.5,4.8125,4.8125,4.8125,7.699476,6.761925,8.755665,1.957715,2.987624,5.979437,-0.1159886,-0.3973582,1.575682,0.3855747,0.3153103,1.45249,0.1174229,0.4751672,1.632046,-0.1676504,-0.4123352,1.589546,0.3682734,0.3342213,1.380349,0.1123155,0.00926729,1.644598,0.1088343,-0.3221596,1.621191,-0.07076776,0.2031366,1.636676,0.02084354,-0.3151684,1.588615,-0.1258959,-0.08205314,1.646731,0.5319055,0.0365094,1.533813,NA,NA,NotTracked,Closed,
-0.9125977,0.3979492,-0.02001953,0.9423828,-0.2963867,-0.09960938,8,-1,-1,-2,-1,3,1,16,-2,-1,-2,-1,-1,-1,0,-1,-35.75,-35.75,-35.75,1.625,1.625,1.625,7.681292,6.736211,8.776175,1.959394,2.987366,5.980088,-0.1158671,-0.3967171,1.575963,0.3823633,0.312465,1.450111,0.117388,0.475166,1.632043,-0.1671813,-0.4116021,1.589634,0.3585621,0.3258731,1.37025,0.1123675,0.009188152,1.644578,0.1089427,-0.3222905,1.621233,-0.07089071,0.2031964,1.637051,0.02100708,-0.315313,1.588601,-0.1253769,-0.08502699,1.646152,0.5316139,0.03625342,1.533741,NA,NA,NotTracked,Closed,
-0.875,0.4521484,-0.06835938,0.9433594,-0.2788086,-0.1044922,1,3,2,5,2,0,3,-1,0,0,0,0,1,-2,0,0,3,3,3,8.3125,8.3125,8.3125,7.692889,6.733913,8.801217,1.960002,2.986477,5.992884,-0.1157328,-0.396237,1.578451,0.3809929,0.3109878,1.448102,0.1173712,0.4752083,1.632097,-0.1666684,-0.4141554,1.589496,0.3574616,0.3239395,1.369,0.1124901,0.009136968,1.644623,0.1090176,-0.3223625,1.621329,-0.07094158,0.2032928,1.637735,0.02109035,-0.3153614,1.588679,-0.1252908,-0.08484715,1.646326,0.5312108,0.03578538,1.533657,NA,NA,NotTracked,Closed,
-0.8549805,0.4370117,-0.05175781,0.9487305,-0.3071289,-0.09472656,0,2,0,2,1,-3,0,-1,0,-2,-2,0,-1,-2,-3,-2,-16.875,-16.875,-16.875,3.3125,3.3125,3.3125,7.672445,6.717012,8.798923,1.951914,2.98721,6.005608,-0.1156284,-0.3966676,1.578979,0.3779872,0.3084939,1.44355,0.1173705,0.4752184,1.632101,-0.1667828,-0.407508,1.591787,0.3530281,0.3175398,1.361313,0.1125933,0.009088945,1.644638,0.109177,-0.3224464,1.621349,-0.07093728,0.203286,1.638165,0.02123225,-0.3154403,1.58873,-0.1250488,-0.08454708,1.646673,0.5305201,0.03476879,1.533313,NA,NA,NotTracked,Closed,
-0.7661133,0.4458008,-0.003417969,0.9467773,-0.2856445,-0.1064453,0,0,-2,-1,-2,1,1,-2,0,0,-1,-2,-2,-4,0,-2,-8.0625,-8.0625,-8.0625,3.6875,3.6875,3.6875,7.624866,6.667135,8.764606,1.954371,2.987623,6.012962,-0.1157529,-0.3966111,1.578675,0.3747717,0.3041485,1.433371,0.1173487,0.4752302,1.632081,-0.1647303,-0.4001682,1.590584,0.3525487,0.3060326,1.347421,0.1127103,0.009033036,1.644622,0.1093025,-0.3224816,1.621336,-0.07085647,0.2033977,1.63865,0.02137415,-0.3154691,1.588742,-0.1249927,-0.0842013,1.647228,0.5299048,0.03405589,1.532863,NA,NA,NotTracked,Unknown,
-0.6713867,0.4453125,0.08300781,0.9287109,-0.2954102,-0.09033203,0,2,-1,-1,0,-1,-2,0,-2,-2,0,-2,-4,0,0,-1,-20.375,-20.375,-20.375,0.6875,0.6875,0.6875,7.535577,6.562037,8.695241,1.954232,2.988239,6.013742,-0.1154521,-0.3972737,1.57858,0.3670295,0.288097,1.409797,0.1173682,0.475177,1.632039,-0.1659639,-0.4067912,1.590773,0.3578947,0.2786012,1.326762,0.1127196,0.00900902,1.644625,0.1093093,-0.3224921,1.621356,-0.07099675,0.2032754,1.639429,0.02136971,-0.3154711,1.588801,-0.1249572,-0.08411487,1.647877,0.5293064,0.03349854,1.532655,NA,NA,NotTracked,Closed,
