ALX,ALY,ALZ,ARX,ARY,ARZ,EMG0L,EMG1L,EMG2L,EMG3L,EMG4L,EMG5L,EMG6L,EMG7L,EMG0R,EMG1R,EMG2R,EMG3R,EMG4R,EMG5R,EMG6R,EMG7R,GLX,GLY,GLZ,GRX,GRY,GRZ,ORL,OPL,OYL,ORR,OPR,OYR,LHNX,LHNY,LHNZ,RHNX,RHNY,RHNZ,HX,HY,HZ,LTX,LTY,LTZ,RTX,RTY,RTZ,SpineMidX,SpineMidY,SpineMidZ,SpineBaseX,SpineBaseY,SpineBaseZ,ShoulderLeftX,ShoulderLeftY,ShoulderLeftZ,ShoulderRightX,ShoulderRightY,ShoulderRightZ,ElbowLeftX,ElbowLeftY,ElbowLeftZ,ElbowRightX,ElbowRightY,ElbowRightZ,Myo_Pose_left,Myo_Pose_Right,Kinect_pose_left,Kinect_pose_right
0.9282227,0.2890625,0.046875,0.9487305,-0.2890625,-0.1064453,-1,0,-1,0,0,-3,0,-1,-2,-1,-1,-1,0,1,-2,-2,1.5,1.5,1.5,1.1875,1.1875,1.1875,7.253519,2.989948,9.207432,1.943426,3.011623,6.052532,-0.1095159,-0.4013012,1.566243,0.3144218,-0.4011742,1.511449,0.1223967,0.4762708,1.637992,-0.162339,-0.4119306,1.578568,0.2620627,-0.4115817,1.490465,0.1151823,0.006322802,1.646499,0.1151213,-0.3280148,1.621438,-0.07180325,0.2026036,1.640722,0.02802295,-0.3204344,1.589736,-0.1207147,-0.08796743,1.636852,0.3446611,-0.07741557,1.596754,NA,NA,NotTracked,NotTracked,
0.9301758,0.2861328,0.05371094,0.9418945,-0.2885742,-0.1025391,0,-2,0,-1,-1,-1,-1,-1,0,-1,-1,-1,-1,-2,-2,-1,2.3125,2.3125,2.3125,2.0625,2.0625,2.0625,7.252299,2.989153,9.212606,1.942693,3.010184,6.057497,-0.1091118,-0.4017023,1.566344,0.3147906,-0.4017811,1.510553,0.1223505,0.4762838,1.637962,-0.1619459,-0.4125029,1.577129,0.2628072,-0.3877584,1.490912,0.1151873,0.006322297,1.646491,0.1151351,-0.328035,1.621335,-0.07174975,0.2025093,1.640831,0.02803349,-0.3204555,1.589666,-0.1206257,-0.08860283,1.636664,0.3446638,-0.07757568,1.596532,NA,NA,NotTracked,NotTracked,
0.9296875,0.2885742,0.04931641,0.9389648,-0.2998047,-0.1025391,0,0,-1,-1,-2,-2,-2,-1,1,0,0,-1,-1,0,0,-2,0.875,0.875,0.875,3.1875,3.1875,3.1875,7.251128,2.988255,9.216404,1.945591,3.011554,6.059841,-0.1093594,-0.4021868,1.567039,0.3143436,-0.4020598,1.510782,0.1223416,0.4762878,1.637972,-0.1611385,-0.4005799,1.580143,0.2626786,-0.3922699,1.491534,0.1151857,0.006316963,1.646503,0.1151722,-0.3280718,1.621321,-0.0716496,0.2025205,1.640989,0.02806742,-0.3204929,1.589642,-0.1207029,-0.0887726,1.636747,0.3446606,-0.07772968,1.596477,NA,NA,NotTracked,NotTracked,
0.9291992,0.2856445,0.05126953,0.9501953,-0.2993164,-0.1064453,0,-2,-1,-1,1,-1,-1,-1,-1,-1,0,-2,-2,-2,1,-2,-1.6875,-1.6875,-1.6875,2.375,2.375,2.375,7.24612,2.988739,9.219494,1.948515,3.013395,6.061725,-0.1087694,-0.4013482,1.567068,0.3141033,-0.4017127,1.510496,0.1223073,0.4763851,1.638011,-0.1615867,-0.4091992,1.577554,0.262901,-0.4043444,1.4906,0.1151925,0.006325929,1.646505,0.1151505,-0.3280969,1.621258,-0.07156184,0.2025513,1.641237,0.02804659,-0.3205147,1.589566,-0.1205824,-0.08838534,1.636976,0.3446925,-0.07784992,1.596381,NA,NA,NotTracked,NotTracked,
0.9282227,0.2900391,0.05419922,0.9375,-0.2963867,-0.1108398,2,-1,-1,-2,0,-1,-2,0,-1,-2,-1,0,1,0,-1,0,-1.875,-1.875,-1.875,-0.1875,-0.1875,-0.1875,7.24066,2.99036,9.22139,1.947711,3.013604,6.063132,-0.1092101,-0.4018056,1.565864,0.3144821,-0.4019621,1.509809,0.122251,0.4763444,1.638016,-0.1622183,-0.4146793,1.578117,0.2626423,-0.4017981,1.489645,0.1151881,0.006326794,1.646502,0.1151259,-0.328102,1.62122,-0.07149607,0.2024843,1.641401,0.02802654,-0.3205129,1.589518,-0.1204853,-0.08904491,1.636915,0.3446712,-0.07791336,1.596273,NA,NA,NotTracked,NotTracked,
0.9321289,0.2851563,0.05371094,0.9467773,-0.2954102,-0.109375,0,-1,1,-1,1,-1,0,1,-2,-2,-2,-3,1,-1,-2,0,-1.1875,-1.1875,-1.1875,-2.125,-2.125,-2.125,7.236216,2.990731,9.223991,1.943847,3.014345,6.06502,-0.1097618,-0.4020179,1.566333,0.3142777,-0.4015574,1.509316,0.1222261,0.4763608,1.638023,-0.1620688,-0.4188747,1.578211,0.2629769,-0.3915834,1.490772,0.1151999,0.00636696,1.646529,0.1150918,-0.3280675,1.621175,-0.07136405,0.2025976,1.641564,0.02799519,-0.3204508,1.589474,-0.120496,-0.08907869,1.636896,0.3446937,-0.07834172,1.596099,NA,NA,NotTracked,NotTracked,
0.9316406,0.2875977,0.05126953,0.9443359,-0.2880859,-0.1049805,1,0,-2,0,-1,-2,0,0,-1,-1,0,0,-2,-4,-1,1,-1.0625,-1.0625,-1.0625,-0.5,-0.5,-0.5,7.231876,2.990768,9.225319,1.941999,3.01446,6.06616,-0.1098744,-0.402317,1.565808,0.3141111,-0.4011543,1.508905,0.1222186,0.4764035,1.638039,-0.1623709,-0.4126518,1.578737,0.2628774,-0.3899291,1.490698,0.1152114,0.006409428,1.646564,0.1150515,-0.3280736,1.621066,-0.0713414,0.202591,1.641634,0.02795561,-0.3204126,1.589344,-0.120359,-0.08798946,1.636822,0.3446369,-0.07816917,1.595984,NA,NA,NotTracked,NotTracked,
0.953125,0.3012695,0.04101563,0.9467773,-0.2880859,-0.105957,-1,2,-2,1,0,3,3,5,0,-1,-1,-1,-2,-2,0,-3,-1.625,-1.625,-1.625,-1,-1,-1,7.236497,2.991213,9.218297,1.942356,3.014326,6.065845,-0.1097487,-0.4045648,1.564887,0.3138709,-0.4018385,1.5094,0.1220921,0.4765962,1.638072,-0.162157,-0.4127089,1.578007,0.262841,-0.3841605,1.4908,0.1152692,0.006474027,1.646593,0.1150704,-0.328043,1.620929,-0.07135287,0.2025008,1.64182,0.02797794,-0.3203741,1.589114,-0.1203361,-0.08770637,1.636875,0.3446032,-0.07763918,1.595963,NA,NA,NotTracked,NotTracked,
1.00293,0.4169922,-0.0078125,0.9619141,-0.2988281,-0.1147461,13,3,-4,0,3,0,2,0,0,0,-2,-2,1,1,-1,-2,-55.25,-55.25,-55.25,1.25,1.25,1.25,7.260095,3.029876,9.145098,1.94491,3.014191,6.064677,-0.1099941,-0.4039967,1.564228,0.3131394,-0.3998116,1.50658,0.1219963,0.4766037,1.638027,-0.1623066,-0.4184101,1.576632,0.2626087,-0.3836968,1.490379,0.1152129,0.00651198,1.646537,0.114975,-0.3279745,1.620705,-0.07137489,0.2024498,1.641817,0.02789793,-0.3203253,1.588856,-0.1203931,-0.08782507,1.636775,0.3445451,-0.07779475,1.595908,NA,NA,NotTracked,NotTracked,
1.04834,0.7358398,0.005859375,0.9501953,-0.293457,-0.1318359,1,3,-5,-6,-1,-3,-6,-5,0,0,-1,-2,0,-1,-1,-2,-122.9375,-122.9375,-122.9375,4.1875,4.1875,4.1875,7.111634,3.225898,9.050963,1.9453,3.015067,6.067234,-0.1106916,-0.4037165,1.564559,0.3100326,-0.3904166,1.491826,0.1217543,0.4766987,1.638169,-0.163056,-0.4249029,1.576103,0.2605899,-0.3759508,1.488526,0.1150792,0.006609373,1.646618,0.1148038,-0.327921,1.620667,-0.07152575,0.2023791,1.641993,0.02773912,-0.3202791,1.588776,-0.1206439,-0.08841221,1.636644,0.3446944,-0.07739681,1.596643,NA,NA,NotTracked,NotTracked,
1.085938,0.8393555,0.2495117,0.9458008,-0.2885742,-0.1103516,-5,-21,-3,7,-8,1,0,1,-2,0,-1,-2,0,-1,-2,0,-155.875,-155.875,-155.875,3.5625,3.5625,3.5625,6.857926,3.529415,9.057016,1.944872,3.014767,6.073246,-0.1102864,-0.4039033,1.565898,0.3036227,-0.353214,1.443658,0.1215472,0.4767016,1.638211,-0.1628612,-0.417175,1.57827,0.2732547,-0.3553806,1.484,0.1148253,0.006682917,1.646665,0.1143599,-0.3278452,1.620627,-0.07169626,0.2024427,1.64215,0.02716983,-0.3201304,1.588587,-0.1211328,-0.087832,1.63698,0.3470154,-0.07527865,1.6013,NA,NA,NotTracked,Unknown,
0.9150391,0.7080078,0.5732422,0.9467773,-0.2988281,-0.09765625,1,1,-1,12,2,-9,-3,-3,-2,-3,-2,-1,0,0,-1,-1,-71.8125,-71.8125,-71.8125,-4.6875,-4.6875,-4.6875,6.674615,3.972238,9.044851,1.937199,3.009001,6.077615,-0.1109932,-0.4036405,1.565626,0.2850331,-0.2710966,1.377227,0.1211912,0.4766428,1.637796,-0.1635012,-0.413537,1.577953,0.2722959,-0.3264839,1.385616,0.1142766,0.006744165,1.646656,0.1122999,-0.3275644,1.620498,-0.07182924,0.2024457,1.642149,0.0248685,-0.3194214,1.588294,-0.121258,-0.08825944,1.63693,0.3558533,-0.05524995,1.614489,NA,NA,NotTracked,Unknown,
0.2514648,1.088867,0.5024414,0.9384766,-0.324707,-0.09863281,8,-4,-3,-16,-4,-2,-1,-6,-1,-1,-1,-3,-3,0,0,-3,-9.8125,-9.8125,-9.8125,-8.8125,-8.8125,-8.8125,6.642091,4.504072,9.053351,1.927103,3.00796,6.073918,-0.1108982,-0.4031866,1.566654,0.2761672,-0.133866,1.316273,0.1209326,0.476526,1.637204,-0.1623788,-0.4160243,1.576075,0.2517008,-0.1864111,1.319875,0.1137316,0.006850463,1.646843,0.1111157,-0.3272447,1.620983,-0.07190212,0.2025371,1.642101,0.02385742,-0.3190413,1.588622,-0.1215661,-0.08649668,1.637158,0.3656867,-0.04423624,1.621328,NA,NA,NotTracked,Unknown,
-0.1679688,0.6977539,0.4667969,0.9370117,-0.2983398,-0.109375,1,-9,-13,12,-5,0,-1,-1,1,0,-3,1,1,-1,0,-1,5.9375,5.9375,5.9375,-3.8125,-3.8125,-3.8125,6.601548,5.263788,9.127948,1.925468,3.012634,6.06502,-0.1111289,-0.4017629,1.565747,0.2714105,0.01902846,1.318637,0.1208571,0.4764695,1.636626,-0.1641959,-0.4083777,1.576816,0.3065041,-0.01357441,1.2978,0.1135559,0.006995201,1.647107,0.1109468,-0.3268825,1.621526,-0.0719463,0.2025873,1.642046,0.02374406,-0.3188042,1.589295,-0.121771,-0.08661509,1.636959,0.38717,-0.04739646,1.54968,NA,NA,NotTracked,Unknown,
-0.4111328,0.6621094,0.4912109,0.9443359,-0.2734375,-0.1157227,-33,-10,-6,-6,1,-3,-2,5,-2,-1,-1,-1,0,-2,0,-1,60.5,60.5,60.5,-2.8125,-2.8125,-2.8125,6.714305,5.790925,9.241189,1.924861,3.015327,6.061646,-0.111683,-0.4012603,1.565732,0.2702393,0.1587358,1.353166,0.1208933,0.4763747,1.63633,-0.1643494,-0.4110869,1.575247,0.2972335,0.1800906,1.358875,0.1134672,0.007083548,1.647454,0.1109475,-0.3265802,1.622176,-0.07195211,0.2026119,1.642049,0.0236408,-0.3189559,1.590037,-0.1220134,-0.08669165,1.636743,0.4299559,-0.06337316,1.556964,NA,NA,NotTracked,Lasso,
-0.4624023,0.5170898,0.3344727,0.9443359,-0.2792969,-0.1113281,12,4,-4,-1,-6,-1,4,21,-3,-1,-2,-2,0,-3,-2,0,46.6875,46.6875,46.6875,-2.4375,-2.4375,-2.4375,6.9116,6.210937,9.423587,1.923603,3.014546,6.058651,-0.1123931,-0.4013943,1.565255,0.2756009,0.2405977,1.401213,0.120641,0.4761401,1.636148,-0.1635447,-0.4107139,1.576183,0.2219356,0.230573,1.374333,0.1131871,0.0070977,1.64784,0.1106494,-0.3265256,1.622385,-0.07208122,0.2025176,1.642251,0.02278892,-0.3188733,1.590452,-0.1225724,-0.08639696,1.636825,0.4406916,-0.04219355,1.526265,NA,NA,NotTracked,Unknown,
-0.5810547,0.4213867,0.1992188,0.9384766,-0.2895508,-0.1005859,2,52,16,4,0,0,4,21,-2,-3,-2,0,0,-1,-1,-1,34.5625,34.5625,34.5625,2.6875,2.6875,2.6875,7.310475,6.56145,9.822349,1.924184,3.012947,6.06226,-0.1134721,-0.4011519,1.567912,0.2709187,0.2895565,1.443501,0.120492,0.4760153,1.636,-0.1640664,-0.4098706,1.576306,0.2051198,0.2899597,1.429286,0.1140149,0.009130601,1.646778,0.1100258,-0.3226417,1.622302,-0.07204259,0.2025204,1.642347,0.02138578,-0.3152332,1.590677,-0.122822,-0.08291299,1.637337,0.441358,-0.0005115024,1.486562,NA,NA,NotTracked,Unknown,
-0.2734375,0.3935547,0.1728516,0.940918,-0.2924805,-0.1010742,-38,-24,2,8,6,0,1,0,-3,1,0,-3,-1,-2,-1,-3,8.0625,8.0625,8.0625,7.6875,7.6875,7.6875,7.600234,6.644577,0.1349901,1.932891,3.01254,6.064811,-0.1136147,-0.4004155,1.567866,0.2657783,0.3057869,1.466731,0.1204308,0.4755203,1.635762,-0.1648063,-0.4058841,1.579864,0.1833128,0.3157749,1.458472,0.1156634,0.01191952,1.647466,0.1093887,-0.3189836,1.622697,-0.07157144,0.2026042,1.642598,0.01999172,-0.3114443,1.591628,-0.122961,-0.0803269,1.637986,0.4196379,0.06058691,1.460919,NA,NA,NotTracked,Lasso,
-0.5996094,0.4428711,-0.03466797,0.9594727,-0.3051758,-0.1118164,-13,-13,-5,-4,2,-4,-7,-13,-2,-2,-2,-1,1,-1,-2,-1,2.1875,2.1875,2.1875,6.5,6.5,6.5,7.813128,6.641675,0.3632791,1.941241,3.012464,6.067807,-0.1139361,-0.401032,1.56862,0.2495673,0.320625,1.481678,0.1202658,0.4750317,1.635602,-0.1643041,-0.4100546,1.579026,0.178017,0.3222186,1.463042,0.1170846,0.01402705,1.647703,0.1091995,-0.3172682,1.622699,-0.07111728,0.2024412,1.642968,0.01940523,-0.3096814,1.591889,-0.1230177,-0.07866471,1.638845,0.4201802,0.07309087,1.450105,NA,NA,NotTracked,Lasso,
-0.7695313,0.5166016,-0.05712891,0.9448242,-0.2983398,-0.1269531,-12,-14,-2,-1,4,-2,-2,1,-1,-1,0,-3,1,-2,0,-2,-10.25,-10.25,-10.25,7.4375,7.4375,7.4375,7.804495,6.618687,0.3620659,1.95838,3.014948,6.065553,-0.1139679,-0.4004146,1.570461,0.2455375,0.3218961,1.480075,0.1200846,0.4740697,1.635208,-0.1641399,-0.4110571,1.57928,0.1714244,0.3255859,1.466581,0.1177168,0.01480566,1.647744,0.1090224,-0.3162729,1.622515,-0.07080916,0.2025675,1.643323,0.01900869,-0.308852,1.592023,-0.1230926,-0.07761318,1.639652,0.4203495,0.0783404,1.445837,NA,NA,NotTracked,Lasso,
-0.8227539,0.5351563,-0.08544922,0.934082,-0.3105469,-0.1044922,-3,-7,-5,1,2,-3,-7,-23,-2,-2,-2,-2,-1,0,0,0,0,0,0,3.4375,3.4375,3.4375,7.76768,6.60418,0.3325571,1.960508,3.015671,6.07011,-0.114425,-0.4000613,1.570987,0.2431128,0.3220976,1.477855,0.1196514,0.4732548,1.634797,-0.1631327,-0.4013903,1.580913,0.1713111,0.323441,1.462787,0.1181,0.01514835,1.647805,0.1089626,-0.3159148,1.622486,-0.07040334,0.2023908,1.643747,0.01879944,-0.3085542,1.592103,-0.1231773,-0.07697389,1.640383,0.4197184,0.08096051,1.443327,NA,NA,NotTracked,Unknown,
-0.8789063,0.5517578,-0.07421875,0.949707,-0.3095703,-0.1020508,4,-4,0,0,-3,3,5,6,-1,-1,-1,0,-2,-1,-1,1,-8.25,-8.25,-8.25,2.5625,2.5625,2.5625,7.740436,6.586594,0.3107334,1.963118,3.017238,6.073639,-0.1146017,-0.4012972,1.569768,0.2349042,0.3244582,1.47937,0.1192306,0.4724725,1.634536,-0.1637567,-0.4088372,1.578826,0.2282963,0.2896124,1.508778,0.1182507,0.0153655,1.647825,0.1088431,-0.3154661,1.622387,-0.07027679,0.2021183,1.644226,0.01857402,-0.3081187,1.592142,-0.1233236,-0.07629991,1.641045,0.4194469,0.08132056,1.44238,NA,NA,NotTracked,Unknown,
-0.8554688,0.5488281,-0.06884766,0.9389648,-0.3041992,-0.1015625,32,0,-2,1,-5,0,3,4,0,-2,-3,-3,-2,1,-2,-2,5.625,5.625,5.625,0.5625,0.5625,0.5625,7.728414,6.585358,0.2952315,1.975487,3.01869,6.063992,-0.114462,-0.3996505,1.570392,0.2352689,0.3270653,1.479078,0.1189826,0.4722927,1.634404,-0.1635013,-0.4081295,1.578731,0.2170972,0.2998388,1.520357,0.1183856,0.0156466,1.647845,0.1087407,-0.3151499,1.622422,-0.07025006,0.2021494,1.644557,0.01835808,-0.3078693,1.59232,-0.123332,-0.07564383,1.641648,0.4193048,0.08147517,1.442031,NA,NA,NotTracked,Unknown,
-0.8647461,0.5483398,-0.09472656,0.949707,-0.3027344,-0.1240234,-4,-15,-1,2,3,-2,0,2,0,0,-2,0,0,-1,-1,-1,-1.75,-1.75,-1.75,-1.8125,-1.8125,-1.8125,7.726938,6.581333,0.2920734,1.972783,3.018674,6.065514,-0.1142697,-0.4004356,1.570792,0.2347408,0.3278421,1.481191,0.118806,0.4719626,1.634231,-0.1637114,-0.408868,1.579706,0.2214078,0.2953836,1.514185,0.1185104,0.01572519,1.647845,0.1087294,-0.314985,1.622419,-0.0701794,0.2020327,1.644937,0.01831181,-0.3077278,1.592376,-0.123329,-0.07551513,1.641805,0.4192683,0.08169975,1.441912,NA,NA,NotTracked,Unknown,
-0.8168945,0.5463867,-0.08837891,0.9443359,-0.3061523,-0.112793,-2,-21,-6,-1,-5,-2,-3,-6,-1,-1,-2,-3,2,-1,-1,-2,15.875,15.875,15.875,-3.9375,-3.9375,-3.9375,7.736943,6.576864,0.2860806,1.96485,3.018995,6.06607,-0.1144765,-0.4003128,1.570708,0.2346974,0.3276593,1.481762,0.1187132,0.4718142,1.634159,-0.1634044,-0.4097971,1.580022,0.2184471,0.2969926,1.52275,0.1187129,0.01592698,1.648007,0.108734,-0.3147419,1.62251,-0.0701213,0.2020063,1.645124,0.01827174,-0.3075259,1.592484,-0.1233673,-0.07488947,1.642156,0.4193118,0.08203452,1.44217,NA,NA,NotTracked,Unknown,
-0.7573242,0.6181641,-0.05859375,0.9472656,-0.2978516,-0.1054688,-7,-6,1,-3,-33,-6,-2,30,0,-1,-1,-1,-1,0,2,0,38.0625,38.0625,38.0625,-2.25,-2.25,-2.25,7.753811,6.564698,0.2309562,1.95712,3.019951,6.065789,-0.1146714,-0.4005024,1.570035,0.235033,0.3282693,1.475671,0.1186116,0.4714959,1.633926,-0.164059,-0.4165421,1.577085,0.2218161,0.2945583,1.515902,0.1188106,0.01614722,1.648097,0.1086461,-0.3145081,1.622534,-0.07000913,0.2019944,1.645262,0.0180821,-0.307181,1.592561,-0.1233942,-0.07462458,1.642184,0.4200298,0.08226892,1.442529,NA,NA,NotTracked,Unknown,
-0.8388672,0.5166016,-0.1967773,0.9501953,-0.2910156,-0.09619141,4,-5,-5,0,4,2,1,-7,0,-1,-2,-2,-1,-2,0,1,102.75,102.75,102.75,3.25,3.25,3.25,7.805962,6.582817,0.1276993,1.961117,3.021821,6.06441,-0.1148537,-0.4001728,1.568777,0.246982,0.3256604,1.45172,0.1176833,0.4722748,1.634175,-0.1654032,-0.4125178,1.581745,0.2492914,0.3020085,1.5055,0.1183896,0.01632088,1.648398,0.1087369,-0.3144053,1.622564,-0.0700262,0.2019461,1.645406,0.01821329,-0.3070747,1.592461,-0.1234005,-0.07449649,1.642201,0.4228203,0.08236007,1.444455,NA,NA,NotTracked,Closed,
-0.8852539,0.6074219,-0.2265625,0.956543,-0.2631836,-0.1274414,-1,5,5,3,0,1,0,7,-2,-3,-2,-2,-2,-4,-3,-3,127.75,127.75,127.75,5.8125,5.8125,5.8125,7.863849,6.600817,9.916524,1.96717,3.021902,6.068676,-0.1149731,-0.400509,1.570223,0.2825131,0.3177279,1.446246,0.1165429,0.4735736,1.635211,-0.1647993,-0.4094542,1.580906,0.2405604,0.3113167,1.513437,0.1165251,0.01582514,1.649163,0.1087785,-0.3143973,1.622674,-0.07042508,0.2019948,1.64574,0.01836051,-0.3071444,1.592517,-0.1235446,-0.07448032,1.642366,0.4336325,0.0772132,1.459429,NA,NA,NotTracked,Unknown,
-0.9033203,0.6650391,-0.1040039,0.9355469,-0.3125,-0.1083984,-2,0,1,-2,4,-3,0,-4,-1,-2,1,-2,-2,0,-1,0,81.5,81.5,81.5,4.5,4.5,4.5,7.814713,6.600539,9.607201,1.955897,3.017958,6.088423,-0.1153148,-0.4002579,1.570607,0.3071762,0.3195159,1.427682,0.1157818,0.4743328,1.636058,-0.1650513,-0.4093815,1.582079,0.2354256,0.3114589,1.452674,0.1153664,0.01543913,1.649663,0.1088248,-0.3144137,1.622767,-0.07077896,0.2022904,1.64598,0.01860509,-0.3072818,1.592607,-0.1237242,-0.07460642,1.642674,0.4718873,0.04143525,1.481327,NA,NA,NotTracked,Unknown,
-0.84375,0.5771484,0.01708984,0.9399414,-0.3066406,-0.105957,-3,-3,-2,-1,6,-3,-1,-2,-1,-1,0,-2,-1,0,0,0,37.0625,37.0625,37.0625,4.9375,4.9375,4.9375,7.705512,6.652227,9.388048,1.955087,3.016022,6.10071,-0.1161425,-0.3989058,1.57249,0.3376601,0.3269725,1.428956,0.1153348,0.4744936,1.636413,-0.1672426,-0.3992974,1.586407,0.2783569,0.331492,1.455061,0.1140041,0.01377342,1.650066,0.1087454,-0.3165063,1.623018,-0.07005005,0.2016774,1.642705,0.01902918,-0.3098339,1.592462,-0.1239076,-0.07576547,1.643168,0.4861604,0.03862548,1.489167,NA,NA,NotTracked,Unknown,
-0.9189453,0.3632813,0.02832031,0.9487305,-0.331543,-0.09082031,18,63,16,-2,48,2,4,18,-2,-2,2,-2,-2,-1,0,0,-71.9375,-71.9375,-71.9375,-1.5625,-1.5625,-1.5625,7.525696,6.756965,9.260611,1.951612,3.015373,6.104251,-0.1165522,-0.3984828,1.574798,0.3542389,0.3317361,1.441816,0.1144254,0.4751914,1.637419,-0.1671181,-0.4070326,1.586652,0.3378938,0.3216634,1.47132,0.1128145,0.01269605,1.650676,0.1083301,-0.318084,1.623785,-0.07167654,0.2022401,1.644753,0.01930538,-0.3114044,1.593012,-0.1243489,-0.0768085,1.643851,0.4896899,0.03828617,1.491598,NA,NA,NotTracked,Closed,
-0.8256836,0.1865234,0.4331055,0.9311523,-0.2998047,-0.109375,7,-12,-3,10,11,3,7,-3,0,-2,1,-1,0,-1,-1,-1,1.5,1.5,1.5,-2.6875,-2.6875,-2.6875,7.443885,6.794026,9.256071,1.948976,3.016533,6.105229,-0.1164874,-0.4003891,1.572391,0.3579828,0.3358906,1.459618,0.1139554,0.4757633,1.637932,-0.1677993,-0.4125409,1.588015,0.3787394,0.3697512,1.447389,0.1125274,0.01233393,1.650844,0.1085067,-0.3188586,1.623956,-0.07072897,0.2022009,1.64195,0.01989098,-0.3123358,1.593114,-0.1245284,-0.07790598,1.644111,0.5070324,0.04475421,1.497556,NA,NA,NotTracked,Unknown,
-0.9023438,0.2807617,-0.03125,0.9345703,-0.309082,-0.09570313,1,0,0,-19,-17,-1,0,19,0,-1,5,1,0,0,0,2,140.6875,140.6875,140.6875,-10,-10,-10,7.635742,6.925538,9.252146,1.943054,3.019654,6.095476,-0.1163808,-0.3996505,1.572036,0.36528,0.3362836,1.467956,0.1139213,0.4759435,1.638087,-0.1663953,-0.4043389,1.582657,0.364195,0.3214051,1.522,0.1123993,0.01202883,1.650922,0.1086094,-0.3195033,1.624079,-0.07028931,0.2024963,1.640456,0.02026359,-0.3130344,1.593131,-0.1245274,-0.07801304,1.644036,0.5077341,0.03991171,1.501724,NA,NA,NotTracked,Closed,
-0.8911133,0.4458008,-0.2617188,0.9453125,-0.2993164,-0.1020508,-2,-15,-5,1,1,-1,4,10,-1,-2,-1,-1,-1,1,-3,-5,-20.125,-20.125,-20.125,-7.5625,-7.5625,-7.5625,7.863065,6.9083,9.402018,1.937358,3.022113,6.088744,-0.1156726,-0.4003963,1.570343,0.3615767,0.335784,1.469199,0.1140388,0.4760596,1.63825,-0.1665933,-0.4072216,1.584356,0.3147744,0.3392174,1.5282,0.1123794,0.01184308,1.65102,0.1088127,-0.3198435,1.624203,-0.07043773,0.2029352,1.64148,0.02063504,-0.3133462,1.593045,-0.1243956,-0.07949765,1.643387,0.5073401,0.04509207,1.502084,NA,NA,NotTracked,Unknown,
-1.008789,0.3886719,0.1499023,0.9428711,-0.2871094,-0.121582,5,3,-4,-12,7,9,3,8,1,0,-4,1,-1,-2,-2,-2,-38.375,-38.375,-38.375,-5.8125,-5.8125,-5.8125,7.685849,6.814531,9.343194,1.942651,3.024935,6.067719,-0.1147198,-0.397481,1.568087,0.3539968,0.3287584,1.467085,0.1143192,0.4763829,1.638657,-0.1659786,-0.4092745,1.581241,0.355875,0.3069268,1.512786,0.1124549,0.01164595,1.651151,0.1090206,-0.3201462,1.624317,-0.07042208,0.2029513,1.641973,0.02089151,-0.3136473,1.593034,-0.1242653,-0.0806665,1.642236,0.5107148,0.04106049,1.506193,NA,NA,NotTracked,Closed,
-0.8920898,0.4555664,-0.2719727,0.9545898,-0.2666016,-0.1210938,1,4,5,3,-8,1,-2,-6,-1,-1,1,-1,-1,-1,0,-1,92.375,92.375,92.375,-2.625,-2.625,-2.625,7.781459,6.862636,9.376236,1.950558,3.026326,6.05277,-0.1137439,-0.3976837,1.567053,0.3530394,0.3278297,1.466662,0.1146291,0.4764911,1.638967,-0.1660324,-0.4089813,1.581337,0.3537626,0.2984653,1.517077,0.1125998,0.01145629,1.651247,0.1094611,-0.3204815,1.624337,-0.07045262,0.2029614,1.642101,0.02149097,-0.3140341,1.592731,-0.123914,-0.08211692,1.640812,0.5063915,0.04039963,1.507627,NA,NA,NotTracked,Closed,
-1.046387,0.4077148,-0.07080078,0.9238281,-0.2875977,-0.1079102,-1,0,1,-12,14,1,-4,-9,-3,-2,-3,-1,-2,-1,-2,-1,-82.8125,-82.8125,-82.8125,-1.625,-1.625,-1.625,7.715461,6.807534,9.368456,1.94574,3.02472,6.052428,-0.113121,-0.3976945,1.566764,0.3521858,0.3247709,1.46349,0.1149449,0.476912,1.639687,-0.1645776,-0.4074505,1.5758,0.3516283,0.3035145,1.510546,0.1126714,0.01139252,1.651312,0.110047,-0.3206822,1.624399,-0.07044224,0.2029859,1.642205,0.02221071,-0.3142462,1.592455,-0.1235501,-0.08310575,1.640009,0.5095624,0.03729512,1.508007,NA,NA,NotTracked,Closed,
-0.8984375,0.5004883,-0.09960938,0.9555664,-0.2680664,-0.112793,-1,-14,-4,4,17,6,3,4,0,-1,-2,-2,-2,-1,-1,-1,32.9375,32.9375,32.9375,2.625,2.625,2.625,7.700212,6.816462,9.305587,1.945071,3.021426,6.057663,-0.1131615,-0.3983442,1.566355,0.3541725,0.3244624,1.45936,0.115029,0.476982,1.639831,-0.1659185,-0.409494,1.581354,0.3536405,0.3014873,1.507266,0.1127359,0.01130312,1.651434,0.1104403,-0.3209541,1.624574,-0.07045513,0.2030218,1.642299,0.0226751,-0.3144896,1.592448,-0.123226,-0.08249488,1.639547,0.5084593,0.03654464,1.508216,NA,NA,NotTracked,Closed,
-0.9125977,0.3950195,-0.04492188,0.9428711,-0.3061523,-0.09521484,-2,-11,-3,-3,6,0,-1,-1,-1,-2,-2,-2,-2,-1,-1,-1,-26.8125,-26.8125,-26.8125,3.125,3.125,3.125,7.665513,6.782682,9.304332,1.944378,3.017431,6.058944,-0.1129313,-0.3983251,1.567783,0.3560881,0.3234681,1.455642,0.115029,0.4770883,1.639976,-0.1648525,-0.4099542,1.578999,0.3579652,0.3000673,1.498937,0.1128783,0.01121248,1.651483,0.1109886,-0.3211232,1.624735,-0.07052285,0.2031391,1.642415,0.02327202,-0.3146654,1.592474,-0.1230076,-0.08282606,1.639225,0.5106407,0.03615312,1.510085,NA,NA,NotTracked,Closed,
-0.8803711,0.4248047,-0.05419922,0.9453125,-0.2822266,-0.1079102,-3,2,-3,1,0,-2,-2,-4,-1,-1,-1,-2,-4,-3,-2,-1,7.375,7.375,7.375,5.75,5.75,5.75,7.672879,6.763486,9.308664,1.947912,3.013863,6.067947,-0.1126553,-0.3980094,1.569636,0.3565129,0.3219832,1.451611,0.1150383,0.4770693,1.63999,-0.1643206,-0.4120989,1.581019,0.3022573,0.331648,1.474,0.1130233,0.01110573,1.651538,0.1115596,-0.3212603,1.624807,-0.07056752,0.2031291,1.642539,0.0238571,-0.3148156,1.592466,-0.1227499,-0.08244374,1.639263,0.5120312,0.03797711,1.510155,NA,NA,NotTracked,Closed,
-0.8374023,0.4042969,-0.03466797,0.9472656,-0.3178711,-0.1083984,-2,-2,0,0,4,0,-1,-3,1,0,-4,-1,-1,0,1,-1,-3.5625,-3.5625,-3.5625,2.125,2.125,2.125,7.6607,6.739124,9.296513,1.946195,3.013075,6.072043,-0.1124932,-0.3973557,1.570602,0.3569296,0.3184421,1.445749,0.1150725,0.4770716,1.640005,-0.1648076,-0.4099435,1.58299,0.3574241,0.2974641,1.492466,0.1131938,0.01091079,1.651545,0.111969,-0.3215295,1.624843,-0.07054746,0.2029918,1.642694,0.02423416,-0.3151172,1.592516,-0.1224087,-0.08196317,1.639477,0.5123264,0.03642444,1.510113,NA,NA,NotTracked,Closed,
-0.7382813,0.3969727,-0.01416016,0.9335938,-0.2998047,-0.1176758,-2,0,1,1,5,3,-2,-3,-1,-2,0,-3,-1,-1,0,-2,-0.125,-0.125,-0.125,3,3,3,7.616462,6.688126,9.251395,1.949218,3.013961,6.08047,-0.1117076,-0.3986018,1.571415,0.3556528,0.3141464,1.434427,0.1151286,0.4770844,1.639984,-0.1631895,-0.4041502,1.585128,0.3603233,0.2904473,1.488657,0.1133433,0.0108266,1.651561,0.1125202,-0.3215818,1.624915,-0.07043439,0.2030125,1.642976,0.02482391,-0.3151773,1.592517,-0.122273,-0.08285207,1.639821,0.5133295,0.03426232,1.512072,NA,NA,NotTracked,Closed,
-0.5791016,0.3974609,0.08447266,0.9208984,-0.3027344,-0.1049805,0,-1,1,0,-1,2,-1,-1,0,0,0,-1,-1,-2,-2,0,-23.375,-23.375,-23.375,1.125,1.125,1.125,7.51164,6.554057,9.153309,1.947255,3.015132,6.083797,-0.1113122,-0.3985191,1.570817,0.3517277,0.2980409,1.408359,0.1153978,0.477044,1.639758,-0.1642109,-0.4083295,1.585034,0.2969637,0.3388293,1.48475,0.1137114,0.01075418,1.651559,0.1128818,-0.3215965,1.624927,-0.07028598,0.2029268,1.643139,0.0251729,-0.3152141,1.592608,-0.1220136,-0.08258822,1.640206,0.5128726,0.03370892,1.512683,NA,NA,NotTracked,Closed,
-0.4589844,0.5039063,0.121582,0.9150391,-0.2910156,-0.08886719,1,0,-1,4,3,0,2,-1,-2,-1,-1,-3,0,-2,0,-3,-90.4375,-90.4375,-90.4375,0.75,0.75,0.75,7.249967,6.146646,8.994782,1.949355,3.015507,6.085424,-0.1107548,-0.4020801,1.571043,0.3485103,0.2526995,1.363316,0.1155083,0.4770133,1.639692,-0.1633075,-0.4074528,1.583459,0.2920623,0.2867485,1.427333,0.1139277,0.01059748,1.65145,0.1131785,-0.3216987,1.62491,-0.07035847,0.2026939,1.643559,0.02545026,-0.3152896,1.592647,-0.1217344,-0.08262762,1.640432,0.507818,0.02359344,1.517731,NA,NA,NotTracked,Unknown,
-0.3974609,0.6376953,0.3344727,1.008789,-0.3178711,-0.09619141,-1,-1,1,0,-1,0,-1,-1,-1,-2,-2,-1,0,1,0,-2,-77.25,-77.25,-77.25,1.375,1.375,1.375,7.055724,5.695985,8.913643,1.955727,3.015016,6.080788,-0.1100781,-0.4021221,1.571154,0.3489186,0.165818,1.304787,0.1155898,0.4769497,1.639621,-0.1612966,-0.4101639,1.581843,0.3047526,0.182207,1.319,0.1140596,0.01031806,1.651423,0.1135674,-0.3222402,1.624859,-0.07046948,0.2022721,1.644156,0.02580091,-0.3157068,1.592741,-0.121485,-0.08254544,1.640611,0.4969621,-0.04033238,1.563898,NA,NA,NotTracked,Lasso,
