ALX,ALY,ALZ,ARX,ARY,ARZ,EMG0L,EMG1L,EMG2L,EMG3L,EMG4L,EMG5L,EMG6L,EMG7L,EMG0R,EMG1R,EMG2R,EMG3R,EMG4R,EMG5R,EMG6R,EMG7R,GLX,GLY,GLZ,GRX,GRY,GRZ,ORL,OPL,OYL,ORR,OPR,OYR,LHNX,LHNY,LHNZ,RHNX,RHNY,RHNZ,HX,HY,HZ,LTX,LTY,LTZ,RTX,RTY,RTZ,SpineMidX,SpineMidY,SpineMidZ,SpineBaseX,SpineBaseY,SpineBaseZ,ShoulderLeftX,ShoulderLeftY,ShoulderLeftZ,ShoulderRightX,ShoulderRightY,ShoulderRightZ,ElbowLeftX,ElbowLeftY,ElbowLeftZ,ElbowRightX,ElbowRightY,ElbowRightZ,Myo_Pose_left,Myo_Pose_Right,Kinect_pose_left,Kinect_pose_right
0.9326172,-0.2993164,0.1772461,0.8950195,0.3847656,0.1005859,-2,0,-2,-1,-1,1,-2,-1,-2,-2,0,-2,-1,-1,1,0,-0.5625,-0.5625,-0.5625,-0.75,-0.75,-0.75,3.296711,3.064543,6.274542,7.07452,3.169742,9.697583,-0.1069897,-0.3897011,1.602059,0.2435643,-0.3880748,1.601369,0.08668211,0.5335528,1.686399,-0.1578762,-0.4015293,1.59742,0.293245,-0.3841766,1.597627,0.06471017,0.061476,1.721591,0.06708328,-0.2667656,1.718995,-0.1022227,0.2479409,1.700979,-0.01389413,-0.2604563,1.678072,-0.1401531,-0.002463095,1.706568,0.2600416,-0.03483223,1.717031,NA,NA,NotTracked,Unknown,
0.9326172,-0.3017578,0.175293,0.8930664,0.3837891,0.09814453,0,-2,-2,-2,-2,-1,0,-1,-1,-1,0,-2,-2,-2,-1,-1,0.4375,0.4375,0.4375,-1.1875,-1.1875,-1.1875,3.29766,3.064622,6.273735,7.074481,3.169547,9.697027,-0.1069727,-0.3887666,1.6001,0.2435561,-0.3879971,1.60036,0.08671644,0.5335308,1.686355,-0.1574753,-0.3994158,1.594083,0.2927378,-0.3880845,1.596115,0.06472136,0.06146687,1.721585,0.06712212,-0.2667661,1.718983,-0.1023715,0.2477303,1.701011,-0.01384867,-0.2604671,1.678058,-0.1401464,-0.002550833,1.70654,0.2599145,-0.03597708,1.716926,NA,NA,NotTracked,Unknown,
0.9350586,-0.3046875,0.1777344,0.8916016,0.3837891,0.1015625,0,-2,-2,-2,0,0,0,-2,-1,-1,-2,0,-2,0,0,-1,-0.25,-0.25,-0.25,-1.3125,-1.3125,-1.3125,3.297608,3.064278,6.273737,7.074503,3.169574,9.696147,-0.1070137,-0.3895046,1.601023,0.2437398,-0.388207,1.601198,0.08673551,0.5335004,1.686349,-0.1574587,-0.3965982,1.598137,0.2924596,-0.4003009,1.593263,0.06475011,0.06146123,1.721582,0.06712478,-0.2667679,1.718983,-0.1024602,0.2476169,1.70109,-0.01384867,-0.2604711,1.678079,-0.1400586,-0.002608415,1.70651,0.2598877,-0.03671973,1.716973,NA,NA,NotTracked,Unknown,
0.9301758,-0.296875,0.1772461,0.8930664,0.3862305,0.09667969,-1,-3,-1,0,0,0,0,-2,0,-1,1,-3,-1,-2,-1,-3,-0.625,-0.625,-0.625,-1.8125,-1.8125,-1.8125,3.298776,3.064593,6.272624,7.073759,3.170608,9.694334,-0.1067105,-0.3893296,1.599909,0.2435318,-0.3877386,1.600209,0.08673499,0.5334999,1.686348,-0.1557682,-0.3949471,1.594892,0.2934864,-0.3845958,1.596633,0.06475738,0.06145891,1.721574,0.06713966,-0.2667757,1.718962,-0.1026258,0.247478,1.701112,-0.01384113,-0.2604762,1.678073,-0.14016,-0.002248474,1.706541,0.2600057,-0.03566706,1.716738,NA,NA,NotTracked,Unknown,
0.9355469,-0.2973633,0.1801758,0.8901367,0.387207,0.09326172,-6,-51,-6,0,-2,-1,0,-1,0,-3,0,1,1,-3,2,-1,-0.3125,-0.3125,-0.3125,-3.0625,-3.0625,-3.0625,3.299725,3.064672,6.271817,7.072948,3.173854,9.692463,-0.1069836,-0.3894442,1.60141,0.2439977,-0.3880224,1.601204,0.08676067,0.5334919,1.686342,-0.1561823,-0.3946974,1.597054,0.2928321,-0.3908126,1.595251,0.06478097,0.06145674,1.721568,0.0671537,-0.2667705,1.718956,-0.102644,0.2474673,1.701149,-0.01382758,-0.2604692,1.678076,-0.139979,-0.002552961,1.706488,0.2600006,-0.03602187,1.716705,NA,NA,NotTracked,Unknown,
0.9355469,-0.2973633,0.1801758,0.8901367,0.387207,0.09326172,-6,-51,-6,0,-2,-1,0,-1,0,-3,0,1,1,-3,2,-1,-0.3125,-0.3125,-0.3125,-3.0625,-3.0625,-3.0625,3.299725,3.064672,6.271817,7.072948,3.173854,9.692463,-0.1069163,-0.3893537,1.600045,0.2437853,-0.3886355,1.600815,0.08678991,0.5334687,1.686303,-0.156233,-0.384331,1.598967,0.292171,-0.3878303,1.594313,0.06479736,0.06145174,1.721561,0.06717875,-0.2667776,1.718946,-0.102696,0.2472854,1.701167,-0.01380781,-0.2604708,1.678068,-0.1399319,-0.002586799,1.706467,0.2600226,-0.03667386,1.716663,NA,NA,NotTracked,Unknown,
0.9379883,-0.2983398,0.1787109,0.90625,0.3842773,0.08642578,-1,-5,1,-1,-1,0,-2,-1,15,0,-3,2,-1,0,-3,-14,-1.125,-1.125,-1.125,-9.8125,-9.8125,-9.8125,3.300485,3.064176,6.270257,7.058405,3.187075,9.699694,-0.1066044,-0.3890991,1.599686,0.2438494,-0.3880412,1.600274,0.08682168,0.5334573,1.686298,-0.1556937,-0.378408,1.597676,0.2928491,-0.3890527,1.594992,0.06485126,0.06144544,1.721543,0.06723051,-0.2667921,1.718916,-0.1027339,0.2472212,1.701177,-0.0137677,-0.2604825,1.678041,-0.139887,-0.002887545,1.706343,0.260069,-0.0369124,1.716708,NA,NA,NotTracked,Unknown,
0.9467773,-0.3027344,0.1713867,0.9213867,0.3842773,0.1240234,-2,-4,-9,-14,-5,-1,-2,-25,1,-5,-2,0,-1,0,4,19,-0.6875,-0.6875,-0.6875,-30.375,-30.375,-30.375,3.303006,3.068005,6.267129,7.025795,3.219708,9.705436,-0.1070846,-0.3891437,1.600242,0.244559,-0.3874474,1.600348,0.08687234,0.533442,1.686324,-0.1578801,-0.3952136,1.597757,0.2934609,-0.383908,1.592932,0.06489144,0.06145411,1.721536,0.06724904,-0.2667958,1.71891,-0.1028157,0.2471733,1.701188,-0.01375298,-0.2604826,1.678043,-0.1398918,-0.002984265,1.706367,0.2600592,-0.03717677,1.716828,NA,NA,NotTracked,Unknown,
1.003418,-0.2392578,0.1137695,0.9614258,0.5019531,0.109375,-5,5,-5,-9,-10,-4,19,-10,-4,0,-1,2,4,2,6,27,4.6875,4.6875,4.6875,-31.8125,-31.8125,-31.8125,3.326015,3.092607,6.245801,6.9945,3.282811,9.704925,-0.1071195,-0.3885893,1.597405,0.2443482,-0.3865336,1.596605,0.08687443,0.5334535,1.686311,-0.1579059,-0.4011057,1.591577,0.2947358,-0.384754,1.593104,0.06493673,0.06143308,1.721461,0.06729281,-0.2668147,1.718859,-0.1029886,0.2469538,1.701133,-0.01370846,-0.2605159,1.67799,-0.1398822,-0.003043981,1.706385,0.2604283,-0.03458209,1.716938,NA,NA,NotTracked,Unknown,
1.003418,-0.2392578,0.1137695,1.013672,0.5751953,0.2827148,-3,0,-2,-4,2,14,10,2,0,-1,4,-8,-6,-3,-3,40,4.6875,4.6875,4.6875,-91.1875,-91.1875,-91.1875,3.326015,3.092607,6.245801,6.843859,3.384388,9.783659,-0.1071776,-0.3875892,1.593066,0.2450088,-0.3848249,1.591527,0.0868912,0.5334767,1.686317,-0.1567252,-0.412942,1.581615,0.294651,-0.4032476,1.576346,0.06500401,0.06145976,1.721386,0.06741211,-0.266794,1.718728,-0.1030878,0.2469208,1.701102,-0.01359804,-0.2605041,1.677862,-0.1399526,-0.003132853,1.706461,0.2606167,-0.03552449,1.717584,NA,NA,NotTracked,Unknown,
1.061035,-0.2661133,0.1962891,0.9492188,0.5571289,0.2905273,1,4,1,-9,0,3,10,5,-11,-10,9,0,-2,-3,-3,-1,75.8125,75.8125,75.8125,-39.5,-39.5,-39.5,3.508547,3.206828,6.125034,6.779243,3.494524,9.802811,-0.1071623,-0.3734612,1.571478,0.2468089,-0.3771144,1.571685,0.08690678,0.5335091,1.686295,-0.1141315,-0.3800748,1.511663,0.2990449,-0.4170299,1.556,0.06520531,0.06147139,1.721074,0.06777146,-0.2667287,1.718347,-0.1031873,0.2467449,1.701049,-0.01329602,-0.2605358,1.67745,-0.140067,-0.002324913,1.708517,0.2611407,-0.03284185,1.719451,NA,NA,NotTracked,Unknown,
1.079102,-0.2080078,0.265625,0.878418,0.703125,0.3422852,-1,-5,-4,-14,-4,7,28,-6,-3,-9,-3,-2,-2,2,-18,-9,61.375,61.375,61.375,-7,-7,-7,3.570241,3.246131,6.095815,6.739162,3.642179,9.830153,-0.1090862,-0.3567205,1.550971,0.2508793,-0.3653285,1.551393,0.08693621,0.5335368,1.686275,-0.1129666,-0.3639901,1.484,0.2575295,-0.3561914,1.4946,0.06534162,0.06147222,1.720969,0.06790244,-0.2667312,1.718242,-0.1031919,0.2467335,1.701039,-0.01320325,-0.2605883,1.677356,-0.1406576,-0.0006162497,1.711387,0.2614316,-0.03133903,1.721668,NA,NA,Unknown,Unknown,
1.079102,-0.2080078,0.265625,0.7070313,0.894043,0.4545898,60,9,6,-9,3,8,47,31,-2,-8,2,2,1,5,6,-33,61.375,61.375,61.375,31.5,31.5,31.5,3.570241,3.246131,6.095815,6.748744,3.832599,9.852448,-0.1132626,-0.3337004,1.51755,0.2595726,-0.337486,1.515653,0.08694437,0.5335767,1.686283,-0.1432433,-0.342425,1.479226,0.2973503,-0.345369,1.496235,0.0654573,0.06148198,1.720873,0.06806926,-0.2667619,1.718126,-0.1031277,0.2468617,1.701007,-0.01309443,-0.2606776,1.677212,-0.1416226,0.001104027,1.715211,0.2617114,-0.03072874,1.724289,NA,NA,Unknown,Closed,
0.7114258,-0.7011719,0.6303711,0.3950195,0.987793,0.4418945,-25,1,0,7,1,-8,-51,-39,18,15,1,-5,-6,17,30,-6,-10.75,-10.75,-10.75,24.6875,24.6875,24.6875,3.692065,3.656902,5.951514,6.775015,4.068339,9.870268,-0.1168107,-0.294911,1.489843,0.2612156,-0.3001809,1.488512,0.08696547,0.53359,1.686278,-0.1447304,-0.3049835,1.448857,0.2654896,-0.287534,1.445143,0.06580786,0.06145465,1.720636,0.06877079,-0.2669044,1.717802,-0.1031464,0.2469881,1.701027,-0.01259703,-0.2609752,1.676933,-0.1432034,0.003338775,1.718458,0.2623594,-0.02729709,1.727168,NA,NA,Unknown,Closed,
0.4257813,-0.7988281,0.612793,0.07568359,0.9458008,0.3959961,-94,-15,8,4,-1,-11,22,-6,-18,-13,-2,-8,0,-5,-21,-35,-39.4375,-39.4375,-39.4375,21.125,21.125,21.125,3.677268,3.893555,5.916782,6.787105,4.340964,9.891204,-0.1187543,-0.2489817,1.465378,0.2621885,-0.253928,1.460672,0.0869911,0.5336812,1.68629,-0.1436342,-0.2548764,1.415,0.2731678,-0.2429221,1.41913,0.06600665,0.06152866,1.720518,0.06906325,-0.2667834,1.717638,-0.101319,0.2489095,1.700266,-0.01245041,-0.2609491,1.676775,-0.1446792,0.005475772,1.720802,0.2630024,-0.02296935,1.72995,NA,NA,Unknown,Closed,
0.21875,-0.8969727,0.6738281,-0.05664063,0.96875,0.3608398,64,39,20,5,3,15,35,2,14,-12,-6,-3,-13,14,7,14,-46.1875,-46.1875,-46.1875,38.25,38.25,38.25,3.645109,4.153709,5.880257,6.822032,4.621218,9.906899,-0.1239315,-0.1475906,1.396972,0.2599768,-0.1527171,1.39214,0.08710711,0.5337315,1.686358,-0.1564341,-0.1533961,1.357929,0.3063901,-0.1543257,1.382286,0.06619589,0.06167379,1.720492,0.06922451,-0.2664766,1.717483,-0.1015525,0.2496592,1.701909,-0.01237328,-0.2606803,1.676645,-0.1488445,0.01859729,1.721403,0.2635481,-0.002422718,1.729965,NA,NA,Unknown,Unknown,
0.0390625,-0.84375,0.6923828,-0.07128906,1.048828,0.4072266,-61,-126,-22,-4,0,6,-18,-37,-3,-3,1,3,-12,1,-13,-37,-42.0625,-42.0625,-42.0625,28.6875,28.6875,28.6875,3.593943,4.560615,5.832213,6.855155,4.897375,9.921878,-0.1284005,-0.09640535,1.351843,0.2610929,-0.09870366,1.359855,0.08714332,0.5337203,1.68646,-0.1619361,-0.09647834,1.331833,0.2968386,-0.09252153,1.348875,0.06634668,0.06182716,1.720726,0.06922648,-0.2662162,1.717603,-0.1017677,0.2505799,1.703816,-0.01238289,-0.2603412,1.676872,-0.1558048,0.03175711,1.71734,0.2648562,0.006848497,1.725087,NA,NA,Unknown,Unknown,
0.05761719,-0.859375,0.7299805,-0.1206055,0.9594727,0.4223633,-24,116,-18,-4,-14,-48,-19,-42,-5,9,-2,-2,-15,-23,17,-37,-45.5625,-45.5625,-45.5625,25.625,25.625,25.625,3.550032,4.827644,5.802693,6.885043,5.161164,9.94602,-0.1285001,-0.03591852,1.341183,0.2644715,-0.03366598,1.354851,0.08713978,0.5337617,1.686789,-0.1681307,-0.03477433,1.323,0.2969345,-0.03103662,1.338273,0.06634477,0.06188515,1.720966,0.06908625,-0.2660662,1.717661,-0.1018967,0.2513017,1.705348,-0.01259761,-0.2600563,1.677015,-0.1728343,0.03523833,1.695845,0.2668528,0.01521189,1.719022,NA,NA,Unknown,Unknown,
0.02490234,-0.8447266,0.7724609,-0.1420898,0.9370117,0.4433594,18,-19,-11,7,6,9,10,13,1,-1,2,4,11,1,11,12,-45.875,-45.875,-45.875,40.875,40.875,40.875,3.50259,5.087393,5.77561,6.927276,5.402069,9.974183,-0.1306872,0.01458827,1.342787,0.2665346,0.01615064,1.348766,0.08731765,0.5337205,1.687454,-0.1663464,0.01626941,1.3069,0.2634052,0.04491378,1.336572,0.06637883,0.06198288,1.721926,0.06891786,-0.2659064,1.717953,-0.1017837,0.2519819,1.707732,-0.0128007,-0.2598261,1.677434,-0.1763296,-0.03140141,1.599353,0.2689551,0.01488513,1.7076,NA,NA,Unknown,Unknown,
-0.04443359,-0.7617188,0.6611328,-0.1811523,0.9248047,0.4150391,0,-18,-25,-3,-6,-14,-4,5,-2,-8,-5,1,33,26,19,-16,-41.5625,-41.5625,-41.5625,39.75,39.75,39.75,3.454624,5.326068,5.730872,6.952772,5.515204,9.988442,-0.1354194,0.1109784,1.344939,0.2663099,0.09953636,1.35909,0.08723295,0.5332922,1.690803,-0.1660807,0.1188287,1.31325,0.2928618,0.1163753,1.318909,0.06634238,0.06256498,1.724853,0.06847411,-0.2652142,1.719007,-0.1003595,0.2567494,1.712734,-0.01332371,-0.2588146,1.678905,-0.1765208,-0.002225897,1.60769,0.2766192,-0.003015724,1.66358,NA,NA,Closed,Unknown,
-0.05371094,-0.7597656,0.6240234,-0.175293,0.7451172,0.3535156,5,72,31,1,3,-5,3,26,-1,-3,-4,-4,-15,-4,15,13,-47.3125,-47.3125,-47.3125,25.6875,25.6875,25.6875,3.390114,5.537854,5.680201,7.01968,5.80697,0.03072385,-0.1347651,0.1478792,1.349742,0.2650285,0.1348839,1.360969,0.08698035,0.5333333,1.692121,-0.1633699,0.1682051,1.320714,0.2924214,0.1483463,1.322231,0.06631803,0.06246109,1.726006,0.06834339,-0.2652614,1.719262,-0.09591732,0.2604057,1.714882,-0.01343227,-0.2587968,1.679223,-0.1804348,0.000988397,1.601143,0.2787507,0.007840417,1.651994,NA,NA,Closed,Closed,
-0.08349609,-0.6865234,0.5800781,-0.1713867,0.7036133,0.3227539,-15,-11,-54,-8,-4,-4,10,-26,8,7,2,0,-2,3,5,6,-35.125,-35.125,-35.125,22.4375,22.4375,22.4375,3.362575,5.634084,5.654356,7.053102,5.949958,0.04594603,-0.1326953,0.1801782,1.355062,0.2655475,0.1612703,1.368814,0.08661835,0.5332292,1.694216,-0.1606514,0.2050283,1.326077,0.2664812,0.2129359,1.357,0.06641773,0.06238199,1.727337,0.06823672,-0.2654263,1.719568,-0.08979835,0.2597409,1.716325,-0.0135312,-0.2589515,1.67979,-0.187466,0.02161822,1.58649,0.2813249,0.01117933,1.642615,NA,NA,Closed,Closed,
-0.105957,-0.5410156,0.4663086,-0.1704102,0.659668,0.3183594,-39,-12,-2,-2,-1,-2,15,13,4,1,-1,1,12,1,28,41,-26.625,-26.625,-26.625,7.5,7.5,7.5,3.303135,5.832123,5.591879,7.059029,6.021333,0.04658308,-0.1302436,0.2009204,1.359952,0.2638396,0.181096,1.371506,0.0863497,0.5332707,1.695876,-0.1585769,0.2209865,1.327,0.2934601,0.1948928,1.333167,0.06656117,0.0622156,1.728352,0.06817653,-0.2657174,1.719929,-0.08316487,0.2574298,1.716605,-0.01353766,-0.2593575,1.680358,-0.1696061,0.07025536,1.603731,0.2847965,0.01274081,1.632239,NA,NA,Closed,Closed,
-0.1152344,-0.5117188,0.4272461,-0.1508789,0.5581055,0.2895508,14,17,20,-3,-7,-15,4,-34,4,-2,0,3,-2,-3,-9,43,-10.6875,-10.6875,-10.6875,-8.625,-8.625,-8.625,3.284985,5.889466,5.570864,7.025398,6.020428,0.02331269,-0.1276908,0.2145124,1.362799,0.2633952,0.1937787,1.37478,0.0860349,0.5334786,1.697323,-0.1570264,0.2389867,1.328083,0.2887281,0.2091156,1.331625,0.06670546,0.06196765,1.729251,0.06815496,-0.2661462,1.72017,-0.08028059,0.2553646,1.716221,-0.01355948,-0.2597944,1.680699,-0.1698691,0.07039487,1.603296,0.287275,0.01551819,1.621557,NA,NA,Closed,Closed,
-0.07958984,-0.4418945,0.402832,-0.1464844,0.543457,0.3149414,6,11,-1,0,2,5,2,8,4,1,1,8,7,2,2,26,7,7,7,-14.25,-14.25,-14.25,3.301156,5.884865,5.580122,7.004524,5.988013,0.008569282,-0.1241655,0.2134543,1.362129,0.2617562,0.1945534,1.371531,0.08556946,0.5335511,1.699778,-0.1533655,0.2328674,1.327325,0.2911566,0.208669,1.3382,0.06705368,0.06159645,1.730337,0.06818785,-0.2669263,1.720503,-0.07671178,0.2520013,1.71581,-0.01354265,-0.2606372,1.681304,-0.1721274,0.06914074,1.590261,0.2892434,0.007640287,1.613419,NA,NA,Closed,Closed,
-0.1157227,-0.4677734,0.4526367,-0.203125,0.5654297,0.2758789,-14,24,18,4,-4,2,-4,1,-5,-4,-2,-3,-2,14,31,29,23.5,23.5,23.5,-25.25,-25.25,-25.25,3.350392,5.807076,5.613957,6.935865,5.78616,9.965624,-0.1233503,0.1970067,1.355401,0.2611986,0.178429,1.367042,0.08539099,0.5336701,1.700406,-0.1500134,0.2170243,1.315941,0.2907431,0.1885805,1.33425,0.06709003,0.06151679,1.730534,0.06822383,-0.2673288,1.720566,-0.07422798,0.2512283,1.715442,-0.01348987,-0.2609825,1.681448,-0.1827761,0.04160134,1.563686,0.2871332,0.008332951,1.615366,NA,NA,Closed,Closed,
-0.2158203,-0.4770508,0.4858398,-0.2475586,0.5927734,0.2524414,34,78,1,2,0,3,7,-30,-3,2,2,-8,-7,-19,-79,15,47.1875,47.1875,47.1875,-24.6875,-24.6875,-24.6875,3.425016,5.646502,5.668482,6.916629,5.680423,9.953993,-0.1219945,0.1646419,1.34815,0.2606596,0.1517586,1.357569,0.08523036,0.5339631,1.701377,-0.152207,0.1818747,1.311,0.2919255,0.1720812,1.3214,0.06714022,0.0615276,1.730668,0.06821501,-0.2673277,1.720567,-0.07552623,0.2557418,1.716217,-0.01348522,-0.2609661,1.681451,-0.1661101,0.03722472,1.601409,0.2820912,0.009839333,1.620252,NA,NA,Closed,Closed,
-0.3798828,-0.5200195,0.3344727,-0.5771484,0.8544922,0.1376953,-46,-70,-15,2,2,-16,-88,24,52,20,3,14,10,8,-16,-86,43.8125,43.8125,43.8125,-5.625,-5.625,-5.625,3.498922,5.378834,5.730628,6.900748,5.220174,9.957287,-0.1226847,0.1171201,1.336442,0.2573552,0.1159132,1.338712,0.08517896,0.5341809,1.702461,-0.151786,0.1305567,1.299429,0.2897196,0.121219,1.320875,0.06718073,0.06164912,1.730757,0.06817136,-0.2671665,1.720545,-0.08310015,0.2624628,1.717421,-0.01347628,-0.2606978,1.681417,-0.1787994,0.009527472,1.557202,0.2733706,0.004791357,1.63168,NA,NA,Closed,Closed,
-0.4116211,-0.9306641,0.3178711,-0.3823242,1.580078,0.3720703,46,16,-25,-9,-11,9,1,-12,-52,-5,-7,-12,1,-2,7,-21,4.4375,4.4375,4.4375,-114.5625,-114.5625,-114.5625,3.522554,5.011421,5.77849,6.837426,4.80588,9.995625,-0.1299659,-0.01771598,1.294956,0.2539687,-0.007180096,1.304942,0.08544365,0.5348478,1.7048,-0.1653704,-0.01647559,1.270636,0.2881984,-0.01360485,1.290111,0.06726103,0.06178344,1.7308,0.06816725,-0.2669875,1.720336,-0.09428975,0.2567991,1.717886,-0.01349401,-0.2604529,1.681126,-0.1880472,0.05093067,1.677131,0.2609285,0.01855884,1.688879,NA,NA,Closed,Unknown,
0.078125,-0.8046875,0.4541016,0.8896484,0.7905273,0.4501953,1,-53,-4,8,-1,0,-32,-62,-7,-21,-5,0,6,11,7,-27,102.625,102.625,102.625,-67.3125,-67.3125,-67.3125,3.581895,4.612003,5.835769,6.74763,4.486698,9.987154,-0.1360235,-0.100388,1.295012,0.2513765,-0.09773868,1.305318,0.08565488,0.5350936,1.705647,-0.167659,-0.08668336,1.2687,0.2869285,-0.09521288,1.289083,0.06730475,0.06182468,1.730799,0.06827507,-0.2668935,1.720093,-0.09522337,0.2556139,1.717573,-0.01337133,-0.2603226,1.680692,-0.1701867,0.04224391,1.67491,0.2666072,-0.03353823,1.664483,NA,NA,Unknown,Unknown,
1.008301,-0.7192383,0.8583984,0.9243164,1.520508,0.6040039,8,10,18,2,3,10,52,6,9,-5,5,1,-6,1,-14,-24,-35.6875,-35.6875,-35.6875,62.625,62.625,62.625,3.557758,4.282279,5.895099,6.798511,4.277187,9.996737,-0.1424701,-0.1613629,1.328539,0.2554672,-0.1593703,1.333729,0.0857766,0.5352208,1.706622,-0.1740637,-0.1497121,1.292929,0.2916258,-0.1613093,1.306556,0.06736392,0.06187859,1.730778,0.06839866,-0.2668082,1.71975,-0.09583338,0.2547568,1.71705,-0.01326428,-0.2602799,1.680351,-0.171749,-0.01683888,1.658878,0.2696896,-0.03344859,1.667015,NA,NA,Unknown,Closed,
0.8852539,-1.155762,0.8876953,0.4023438,1.236816,0.4760742,-21,-101,-18,-7,9,-8,-53,-20,3,-10,-5,-1,-5,-2,-13,-30,-15.8125,-15.8125,-15.8125,-27,-27,-27,3.51528,4.08132,5.91744,6.803642,4.227232,0.01377903,-0.1478529,-0.1976222,1.355932,0.2563695,-0.1925681,1.363177,0.08574789,0.5354147,1.707245,-0.1812559,-0.1842073,1.314154,0.2872698,-0.1801905,1.312,0.06737476,0.06192883,1.730595,0.06839132,-0.2668689,1.719308,-0.09662056,0.2534696,1.716146,-0.01327762,-0.2603756,1.679806,-0.1722793,-0.017085,1.658795,0.2716409,-0.03435965,1.670612,NA,NA,Unknown,Closed,
0.3632813,-0.9580078,0.5908203,0.1416016,0.9614258,0.3994141,6,42,23,-6,-7,-7,-18,-58,1,-3,-2,0,34,12,25,-32,-7.4375,-7.4375,-7.4375,26.8125,26.8125,26.8125,3.514751,3.993272,5.921085,6.804316,4.237301,0.03829949,-0.147601,-0.2221816,1.385292,0.253388,-0.2177157,1.360399,0.08578615,0.5357082,1.707644,-0.1804714,-0.2175011,1.345765,0.2870337,-0.2026652,1.3358,0.06769881,0.0621073,1.729576,0.06859807,-0.2668241,1.71877,-0.09804715,0.2517725,1.714186,-0.01310626,-0.2603963,1.679299,-0.1636689,0.0158031,1.675848,0.2676834,-0.01420838,1.683894,NA,NA,Unknown,Unknown,
0.315918,-0.9941406,0.5922852,0.1923828,0.9990234,0.3642578,-5,14,-20,10,1,13,20,1,-5,-4,-1,-4,-1,-18,-16,6,-4.625,-4.625,-4.625,23,23,23,3.506837,3.998736,5.924265,6.840976,4.271193,0.04324421,-0.1474706,-0.2244915,1.389355,0.2522877,-0.2169284,1.364398,0.08581883,0.5358387,1.707643,-0.1787335,-0.2210668,1.350091,0.2864198,-0.2058218,1.337467,0.06780571,0.06221107,1.729022,0.06862959,-0.26677,1.718614,-0.09852681,0.2515215,1.713354,-0.01307768,-0.2603761,1.679157,-0.1632392,0.01672928,1.677533,0.267305,-0.01239036,1.685707,NA,NA,Unknown,Closed,
0.3710938,-0.8295898,0.5766602,0.3466797,0.8579102,0.3642578,13,12,-2,0,-2,-11,17,-10,-5,-6,-1,-1,-2,-1,-2,-60,-3.75,-3.75,-3.75,7.375,7.375,7.375,3.501639,4.021377,5.926102,6.853206,4.29548,0.04089848,-0.1469812,-0.2244616,1.387971,0.2534166,-0.2073826,1.378655,0.08581363,0.535981,1.707616,-0.1797788,-0.2198993,1.349158,0.2820739,-0.1910603,1.337308,0.06784654,0.06229456,1.728773,0.06865215,-0.2667497,1.71858,-0.09875187,0.2514707,1.712963,-0.01306172,-0.2603637,1.679127,-0.1632211,0.01722822,1.678565,0.2672338,-0.0100582,1.687419,NA,NA,Unknown,Closed,
0.4091797,-0.8071289,0.559082,0.4858398,0.7988281,0.3569336,0,21,14,6,5,12,-19,-8,5,-1,-2,-2,-4,-4,-4,19,-8.4375,-8.4375,-8.4375,5.3125,5.3125,5.3125,3.495295,4.034029,5.927769,6.86089,4.30271,0.03853554,-0.1477534,-0.2220418,1.384439,0.254672,-0.2036276,1.375272,0.08570287,0.5362669,1.7075,-0.1790773,-0.2154729,1.34405,0.2822534,-0.1881209,1.336582,0.06789733,0.06235131,1.728487,0.06869756,-0.2667312,1.718538,-0.09911902,0.2511152,1.712381,-0.01302482,-0.2603607,1.679108,-0.1633038,0.01770679,1.678869,0.2671539,-0.008712305,1.688015,NA,NA,Unknown,Closed,
0.5219727,-0.7080078,0.5488281,0.503418,0.7329102,0.355957,12,2,10,-6,-2,8,-26,-17,8,4,0,-1,2,-1,5,5,-0.75,-0.75,-0.75,10.125,10.125,10.125,3.491426,4.058112,5.931535,6.868072,4.304647,0.03822813,-0.1487005,-0.2181805,1.379411,0.2549449,-0.2024028,1.37147,0.08553798,0.5365013,1.707398,-0.1802209,-0.2145753,1.343157,0.2850652,-0.1913313,1.332928,0.06796215,0.0624281,1.728295,0.06875241,-0.266716,1.718533,-0.09922212,0.2509317,1.712128,-0.01297299,-0.2603637,1.679135,-0.1634471,0.01789996,1.678911,0.2672997,-0.008448905,1.687935,NA,NA,Unknown,Closed,
0.5219727,-0.7080078,0.5488281,0.503418,0.7329102,0.355957,16,24,6,-2,-4,-10,-4,4,8,4,0,-1,2,-1,5,5,-0.75,-0.75,-0.75,10.125,10.125,10.125,3.491426,4.058112,5.931535,6.868072,4.304647,0.03822813,-0.1494146,-0.2137592,1.372257,0.2549818,-0.1999871,1.367218,0.08543321,0.5365809,1.707265,-0.1777017,-0.2119379,1.330631,0.2842515,-0.190567,1.329951,0.06799331,0.06244767,1.728163,0.06878245,-0.266722,1.718515,-0.09941657,0.2507631,1.711982,-0.01295348,-0.2603783,1.67914,-0.1638865,0.01949275,1.67919,0.2674584,-0.007093939,1.687944,NA,NA,Unknown,Unknown,
0.6025391,-0.6533203,0.5009766,0.4990234,0.7524414,0.3540039,-7,-9,-13,1,0,-5,9,5,1,2,-1,-4,0,-4,-1,14,0.3125,0.3125,0.3125,0.6875,0.6875,0.6875,3.48607,4.08893,5.941287,6.8721,4.301652,0.03493632,-0.1505758,-0.2096462,1.369422,0.2536879,-0.200437,1.362604,0.08531239,0.5366607,1.706988,-0.1843433,-0.2097306,1.332445,0.2862584,-0.1855063,1.326455,0.06798905,0.06244891,1.728077,0.06879541,-0.2667243,1.718492,-0.09947338,0.2507207,1.7119,-0.01294903,-0.2603884,1.679139,-0.1642162,0.02155863,1.679647,0.2676002,-0.006559489,1.687738,NA,NA,Unknown,Unknown,
0.5869141,-0.6132813,0.4628906,0.4926758,0.7329102,0.3134766,-5,-7,1,-1,0,5,10,-1,-16,-2,-3,-2,-9,0,-1,0,3.4375,3.4375,3.4375,-2.625,-2.625,-2.625,3.488804,4.104047,5.945485,6.8699,4.291462,0.0296069,-0.1499121,-0.2088529,1.365458,0.2563146,-0.1983495,1.361495,0.08510034,0.5369055,1.706838,-0.1846914,-0.2063363,1.330409,0.2899852,-0.1843165,1.330159,0.06800816,0.06246833,1.727971,0.06884763,-0.2667287,1.71843,-0.09963479,0.2506375,1.711857,-0.01291775,-0.2604101,1.679134,-0.1643769,0.02364706,1.680215,0.267803,-0.00603265,1.68766,NA,NA,Unknown,Closed,
0.5556641,-0.6401367,0.4584961,0.4731445,0.7675781,0.315918,2,1,8,1,1,-3,0,9,4,0,-1,-2,-7,0,1,1,-0.375,-0.375,-0.375,-8.125,-8.125,-8.125,3.486189,4.105817,5.952876,6.867402,4.274424,0.02169947,-0.1483971,-0.2068451,1.364381,0.2552633,-0.2000806,1.364694,0.08494461,0.5369527,1.706659,-0.1826781,-0.2000958,1.329421,0.2873899,-0.1893876,1.329932,0.0680168,0.06248964,1.727796,0.06897029,-0.2667063,1.718216,-0.09844142,0.2516949,1.709579,-0.01285713,-0.2604178,1.679052,-0.1643416,0.02409568,1.680238,0.2677511,-0.005545525,1.687692,NA,NA,Unknown,Closed,
0.5625,-0.6606445,0.4765625,0.4711914,0.7749023,0.2807617,-6,6,-11,-2,-3,-7,19,-6,3,1,-1,-3,-3,0,-2,-7,6.9375,6.9375,6.9375,-17.9375,-17.9375,-17.9375,3.488397,4.098932,5.956613,6.858092,4.247493,0.01226714,-0.148555,-0.2085293,1.369859,0.2547112,-0.2025971,1.370001,0.08457024,0.5369427,1.706097,-0.1867982,-0.2152499,1.330446,0.2878377,-0.1912071,1.330619,0.06802073,0.06251636,1.727654,0.06909045,-0.2666833,1.718052,-0.09866627,0.2515216,1.709704,-0.01276924,-0.2604574,1.678988,-0.164267,0.02414824,1.680452,0.2677312,-0.005479218,1.687745,NA,NA,Unknown,Unknown,
0.5595703,-0.5307617,0.4545898,0.4501953,0.7910156,0.2988281,3,-7,-19,-3,-2,1,-3,1,0,2,0,-1,-2,-1,-2,-4,18.4375,18.4375,18.4375,-24.0625,-24.0625,-24.0625,3.520222,4.049297,5.965732,6.842143,4.20393,0.0005727279,-0.1441511,-0.2261501,1.383219,0.2545641,-0.2170354,1.388661,0.08406267,0.5371884,1.705527,-0.1862837,-0.2198571,1.338929,0.2912647,-0.2035626,1.342929,0.0681221,0.06254984,1.727412,0.06944678,-0.2666855,1.717685,-0.09943782,0.2508205,1.709992,-0.01247764,-0.2606022,1.678743,-0.1638073,0.02340218,1.681311,0.2676341,-0.004214479,1.689946,NA,NA,Unknown,Unknown,
0.5742188,-0.6308594,0.4487305,0.440918,0.7797852,0.2788086,-3,-2,4,-1,-2,-1,-8,-5,-2,-2,-2,-2,0,-1,1,-2,4.75,4.75,4.75,-44.5625,-44.5625,-44.5625,3.51855,3.991132,5.980696,6.81228,4.143006,9.981091,-0.1420435,-0.240015,1.391562,0.2525665,-0.2306472,1.395561,0.08389264,0.5371627,1.705274,-0.1830924,-0.2475962,1.348235,0.2928872,-0.2186446,1.341833,0.068179,0.06248529,1.727134,0.06957638,-0.2667337,1.717485,-0.09987386,0.2503623,1.709908,-0.01233865,-0.2607485,1.67858,-0.1626639,0.02124302,1.682224,0.2676075,-0.004517037,1.691517,NA,NA,Unknown,Unknown,
0.5708008,-0.6645508,0.4550781,0.5014648,0.7246094,0.3422852,0,-2,1,-1,-2,1,0,-5,-1,-1,-3,-1,-1,-2,-1,1,24.5,24.5,24.5,-40.1875,-40.1875,-40.1875,3.524045,3.923717,6.003429,6.777181,4.058746,9.962879,-0.1388434,-0.257037,1.403357,0.2498265,-0.2467332,1.408286,0.08367254,0.5372649,1.705026,-0.1777231,-0.2706746,1.360231,0.2797402,-0.2377973,1.356867,0.06819373,0.06245297,1.726955,0.06971385,-0.2668394,1.717277,-0.1000516,0.2501066,1.709933,-0.01222124,-0.2609555,1.678362,-0.1622141,0.01765146,1.683066,0.268023,-0.0048893,1.692953,NA,NA,Unknown,Unknown,
0.6259766,-0.5200195,0.4814453,0.5825195,0.6533203,0.3842773,-2,-1,-2,-1,-2,-2,-2,-6,4,-2,-2,-3,-1,1,-1,0,19.125,19.125,19.125,-38.125,-38.125,-38.125,3.543537,3.834659,6.014061,6.739474,3.957699,9.952027,-0.1365862,-0.2751746,1.418852,0.249819,-0.2583464,1.424718,0.0832077,0.5372926,1.704047,-0.1730466,-0.2788109,1.374933,0.274717,-0.2579019,1.374091,0.06823041,0.06234003,1.726586,0.07000003,-0.2670513,1.71693,-0.1003689,0.2497423,1.709767,-0.01192912,-0.2613079,1.67799,-0.161742,0.01472844,1.68291,0.268391,-0.006270494,1.69484,NA,NA,Unknown,Unknown,
0.6582031,-0.5390625,0.4604492,0.7133789,0.5722656,0.4262695,-2,2,3,0,-1,-1,-2,1,-7,3,2,2,2,4,3,3,13,13,13,-2.1875,-2.1875,-2.1875,3.547079,3.783573,6.020848,6.71135,3.853428,9.961359,-0.1292208,-0.3148693,1.454234,0.2472115,-0.2959206,1.459333,0.08278955,0.537286,1.703144,-0.1620497,-0.3386454,1.428538,0.2794473,-0.2913106,1.4454,0.06819441,0.06224354,1.726146,0.07005456,-0.2671771,1.716766,-0.1010473,0.2488138,1.70919,-0.01184602,-0.2615449,1.677815,-0.1600761,0.009546225,1.684822,0.2699536,-0.01204289,1.699292,NA,NA,Closed,Unknown,
0.6665039,-0.5473633,0.4448242,0.7119141,0.6484375,0.3583984,0,-2,0,-1,-2,0,0,2,-15,1,0,0,-1,2,1,5,4.125,4.125,4.125,49.3125,49.3125,49.3125,3.538618,3.679292,6.040729,6.743441,3.715277,0.009811731,-0.1296755,-0.3273079,1.472091,0.2445571,-0.31371,1.476765,0.08256207,0.5370441,1.70205,-0.1256994,-0.3379584,1.417389,0.2728883,-0.3395901,1.448273,0.0680903,0.06217262,1.725873,0.07001318,-0.2672268,1.716711,-0.1013925,0.2483266,1.708719,-0.01188107,-0.2616443,1.677734,-0.1583329,0.005862543,1.68641,0.2708406,-0.01373721,1.700901,NA,NA,Closed,Closed,
0.8276367,-0.4335938,0.4086914,0.6708984,0.6713867,0.3427734,-1,-2,-1,-1,-1,4,17,0,-9,-2,-2,-3,-1,-3,-1,0,-7,-7,-7,29.75,29.75,29.75,3.512715,3.501267,6.081987,6.761621,3.634272,0.03495739,-0.1278062,-0.3420788,1.492132,0.2428799,-0.3301606,1.494332,0.08234769,0.5369625,1.701009,-0.1574457,-0.347001,1.474444,0.2746133,-0.3494268,1.472778,0.06789833,0.06211558,1.725338,0.0699918,-0.2672616,1.716632,-0.1018218,0.2477964,1.708142,-0.01188258,-0.2617075,1.677622,-0.1562797,0.002184406,1.687832,0.2714446,-0.01551346,1.702895,NA,NA,Unknown,Closed,
0.890625,-0.4111328,0.3266602,0.7050781,0.6621094,0.3027344,-2,-2,-1,-3,-3,-1,5,-2,-10,0,1,0,-1,0,0,-3,-46.1875,-46.1875,-46.1875,19.625,19.625,19.625,3.449377,3.383147,6.109535,6.771566,3.591594,0.03695661,-0.1271545,-0.3566035,1.511982,0.2425069,-0.3447219,1.511255,0.08218484,0.536605,1.699158,-0.153136,-0.3740914,1.49125,0.2743503,-0.3441382,1.49275,0.06762961,0.06203561,1.724777,0.06986575,-0.2672749,1.716522,-0.1020356,0.247552,1.707614,-0.01200116,-0.2617121,1.677441,-0.1555119,0.0007493344,1.68809,0.2716001,-0.01685138,1.704696,NA,NA,Unknown,Unknown,
0.934082,-0.4462891,0.2822266,0.7353516,0.5629883,0.2651367,-3,-4,-3,-4,-3,-5,21,-3,-5,-3,-1,0,-2,-1,1,-3,-47.125,-47.125,-47.125,8.625,8.625,8.625,3.370895,3.287052,6.139069,6.790913,3.459135,0.0292556,-0.1272047,-0.3686197,1.532768,0.2419569,-0.3571333,1.530761,0.08205819,0.5366369,1.697973,-0.1635475,-0.3688421,1.532,0.2741761,-0.3608027,1.507952,0.06733717,0.06200616,1.724318,0.06967099,-0.2672599,1.716476,-0.1021709,0.2471356,1.706966,-0.01213468,-0.2617146,1.67736,-0.1543555,-0.00118949,1.688764,0.2715101,-0.01775551,1.70673,NA,NA,Unknown,Unknown,
0.9702148,-0.4077148,0.2114258,0.7905273,0.5610352,0.2587891,-1,0,-1,-2,-1,-1,-8,0,5,-1,-1,0,-1,-1,-2,1,-46.0625,-46.0625,-46.0625,6.1875,6.1875,6.1875,3.292566,3.204653,6.170365,6.80954,3.417398,0.01108979,-0.1203469,-0.3821924,1.575785,0.240027,-0.3659338,1.572141,0.08178852,0.5362731,1.695845,-0.1664629,-0.388002,1.57,0.285525,-0.3744044,1.555913,0.06682053,0.06184496,1.723499,0.06930454,-0.2673617,1.716285,-0.1032984,0.245869,1.705437,-0.01241875,-0.2618645,1.677039,-0.1510448,-0.005985929,1.690231,0.2705952,-0.01982336,1.709811,NA,NA,Unknown,Closed,
0.9575195,-0.4194336,0.1469727,0.8930664,0.5092773,0.2026367,-2,-1,-3,-1,-1,-2,-7,-2,3,0,-1,0,0,-1,-1,2,-46.0625,-46.0625,-46.0625,-28.8125,-28.8125,-28.8125,3.209223,3.136431,6.204102,6.852789,3.31035,9.928498,-0.1167537,-0.38728,1.588063,0.2404401,-0.3727705,1.58368,0.08152366,0.5358154,1.694235,-0.1643405,-0.3929823,1.574351,0.2856933,-0.3760059,1.563084,0.06654389,0.06173809,1.722869,0.06923814,-0.2673761,1.716188,-0.1037173,0.2454521,1.704582,-0.01244955,-0.2619017,1.676939,-0.1505733,-0.006292518,1.690705,0.270144,-0.02002032,1.710542,NA,NA,Unknown,Unknown,
0.9794922,-0.3833008,0.1245117,0.9067383,0.418457,0.1044922,-1,-2,-1,-1,0,0,-4,-1,-1,-1,-2,-3,0,-1,-2,0,-29.8125,-29.8125,-29.8125,-44.9375,-44.9375,-44.9375,3.145308,3.086018,6.230798,6.906988,3.250157,9.818244,-0.1160093,-0.3876469,1.598155,0.2438885,-0.379731,1.595177,0.08150088,0.5354962,1.69303,-0.1666045,-0.3917718,1.592333,0.2956537,-0.3736203,1.591632,0.0663556,0.06162222,1.72251,0.06915816,-0.2674483,1.716123,-0.104108,0.2450793,1.703919,-0.01250729,-0.2619941,1.676801,-0.1492722,-0.006950707,1.691948,0.2689368,-0.02222626,1.712185,NA,NA,Unknown,Unknown,
0.9672852,-0.3608398,0.1503906,0.9428711,0.480957,0.08935547,-1,-1,-1,-2,-2,1,-3,0,-1,-2,-1,-1,-2,-4,-1,-1,-6.125,-6.125,-6.125,-71.375,-71.375,-71.375,3.121938,3.052628,6.239887,6.952833,3.202697,9.691405,-0.1161088,-0.3873886,1.60655,0.2478635,-0.384033,1.60564,0.0812166,0.5352998,1.691584,-0.1669993,-0.3931403,1.605286,0.2981012,-0.3952119,1.600412,0.06622192,0.06154583,1.722145,0.06912829,-0.2674621,1.716113,-0.1043065,0.2450175,1.703627,-0.01251629,-0.2620012,1.676783,-0.148196,-0.007118242,1.693522,0.2668454,-0.02901866,1.71413,NA,NA,Unknown,Unknown,
0.9282227,-0.4492188,0.1606445,0.9160156,0.3979492,0.1083984,-2,-3,-1,-2,0,0,-3,-1,-1,-1,0,-2,-1,2,1,0,40.5625,40.5625,40.5625,-74.375,-74.375,-74.375,3.10681,3.03819,6.287459,6.938766,3.18956,9.613336,-0.1149517,-0.3887353,1.609417,0.2521727,-0.3929963,1.611921,0.08106831,0.5349585,1.689941,-0.161548,-0.404692,1.597438,0.3032613,-0.4061479,1.614091,0.06600265,0.06144677,1.721566,0.06896953,-0.267498,1.716105,-0.1047077,0.2451496,1.70275,-0.01261674,-0.2619738,1.676708,-0.1470843,-0.007922365,1.696772,0.2643889,-0.03535403,1.715538,NA,NA,NotTracked,NotTracked,
0.9145508,-0.4228516,0.190918,0.9086914,0.362793,0.1826172,0,-2,-2,-2,-2,-3,0,-1,0,0,-2,1,0,-1,-2,-1,90.875,90.875,90.875,-21.9375,-21.9375,-21.9375,3.155521,3.045736,6.330717,6.90838,3.186712,9.59889,-0.1143118,-0.3887616,1.60881,0.2529982,-0.3935548,1.612448,0.08085713,0.5348054,1.688993,-0.1628097,-0.3896792,1.60688,0.30542,-0.4069516,1.615,0.0658631,0.06140987,1.721234,0.06886937,-0.2675204,1.71611,-0.1049004,0.2452503,1.702478,-0.01267585,-0.2619676,1.676676,-0.1460679,-0.007347248,1.699437,0.2638947,-0.03653269,1.71616,NA,NA,NotTracked,NotTracked,
0.8925781,-0.3007813,0.1914063,0.8686523,0.4418945,0.1767578,0,-2,0,-2,-1,-2,-2,-2,0,-1,-1,1,-2,0,0,-1,56.4375,56.4375,56.4375,20.4375,20.4375,20.4375,3.228912,3.05447,6.387124,6.906397,3.19218,9.617422,-0.1143433,-0.3880726,1.608378,0.2534267,-0.3934578,1.611967,0.08064616,0.5347667,1.687909,-0.1636866,-0.3985662,1.604634,0.3069123,-0.4116021,1.6115,0.06569333,0.06137756,1.721044,0.06876935,-0.267574,1.716154,-0.1051546,0.2451702,1.70232,-0.01272657,-0.2619853,1.676675,-0.1456112,-0.008241153,1.701082,0.263258,-0.03424146,1.716199,NA,NA,NotTracked,NotTracked,
0.9047852,-0.3037109,0.1914063,0.8574219,0.4287109,0.1816406,-3,-2,0,-1,-2,-1,0,-1,-1,0,-1,-1,-2,-3,-2,0,34,34,34,26.4375,26.4375,26.4375,3.236622,3.055251,6.399624,6.908947,3.200788,9.645081,-0.1138864,-0.3909868,1.60836,0.2529234,-0.3958981,1.611802,0.08062924,0.5346068,1.687122,-0.1643449,-0.407659,1.599407,0.3034821,-0.4091241,1.601496,0.06558652,0.0613272,1.720917,0.06872454,-0.2675985,1.716211,-0.1052276,0.2451423,1.702229,-0.0127426,-0.2619987,1.676704,-0.1450837,-0.008147046,1.70268,0.2628461,-0.03319158,1.716846,NA,NA,NotTracked,NotTracked,
0.9135742,-0.3188477,0.1943359,0.8813477,0.3862305,0.159668,-1,-2,0,-1,-1,-1,1,0,-2,0,-1,-2,0,-1,0,-1,17.5625,17.5625,17.5625,43.375,43.375,43.375,3.240342,3.056591,6.406388,6.930468,3.198991,9.667729,-0.114091,-0.3904563,1.607846,0.2528764,-0.3963002,1.611241,0.08054555,0.5345121,1.686163,-0.1642983,-0.4014754,1.603984,0.3032045,-0.4068808,1.606442,0.06548205,0.0612761,1.720781,0.0685744,-0.2676384,1.716264,-0.1053115,0.2451088,1.702141,-0.01284196,-0.2620293,1.676711,-0.1445813,-0.008751797,1.703882,0.2625234,-0.03240101,1.717171,NA,NA,NotTracked,NotTracked,
0.9257813,-0.3261719,0.1972656,0.8862305,0.3847656,0.1064453,-3,-1,-3,-1,-1,-1,-1,0,-1,-2,-1,-1,-1,-1,-1,-1,6.1875,6.1875,6.1875,50.8125,50.8125,50.8125,3.24415,3.058301,6.406471,6.986024,3.190117,9.669524,-0.1136938,-0.3912736,1.608416,0.251004,-0.3945559,1.608625,0.08024659,0.5341596,1.685397,-0.1630186,-0.3891992,1.611389,0.2991749,-0.4082192,1.599697,0.06520388,0.0610597,1.720604,0.06818473,-0.2678393,1.716503,-0.1055784,0.2450162,1.701876,-0.01314413,-0.2621529,1.676859,-0.143967,-0.008677646,1.705089,0.2619059,-0.03538402,1.717818,NA,NA,NotTracked,NotTracked,
0.9394531,-0.3139648,0.1591797,0.8974609,0.3779297,0.08886719,-1,-2,-2,-2,-2,-1,0,-1,-1,-2,-1,-1,-1,0,0,0,-10.5,-10.5,-10.5,38.4375,38.4375,38.4375,3.244785,3.060466,6.398228,7.039355,3.182322,9.663146,-0.1133025,-0.3909931,1.607564,0.2499867,-0.3940557,1.606708,0.08005872,0.5341594,1.685083,-0.1636192,-0.3982311,1.607954,0.2978531,-0.4176748,1.59425,0.06507433,0.06101967,1.720547,0.06798254,-0.2678911,1.7166,-0.1056848,0.2449846,1.701855,-0.01332911,-0.2621721,1.676904,-0.1439274,-0.008542843,1.705395,0.261813,-0.03492587,1.717863,NA,NA,NotTracked,NotTracked,
0.9448242,-0.2988281,0.1523438,0.9057617,0.3818359,0.07666016,-2,-2,-1,-1,-2,-1,-1,-2,0,0,-1,-1,0,0,0,-4,-4.875,-4.875,-4.875,25.8125,25.8125,25.8125,3.233385,3.063446,6.386233,7.080328,3.178835,9.6543,-0.1134101,-0.3908868,1.606868,0.2489081,-0.3928883,1.604634,0.07993518,0.5340859,1.684882,-0.163037,-0.3979434,1.604222,0.295031,-0.3966079,1.59556,0.06494519,0.06095957,1.720479,0.0678566,-0.2679144,1.716649,-0.1058598,0.2449115,1.701766,-0.01343333,-0.2621927,1.676941,-0.1438526,-0.008536455,1.70546,0.261452,-0.03605132,1.71778,NA,NA,NotTracked,NotTracked,
0.9365234,-0.293457,0.1704102,0.8925781,0.3696289,0.07617188,-3,0,-1,0,1,-3,0,-2,-2,-1,0,0,-2,-1,-1,-1,0.3125,0.3125,0.3125,17,17,17,3.24252,3.069656,6.375535,7.104963,3.181468,9.650988,-0.1132906,-0.3902159,1.605897,0.2483274,-0.3921545,1.602312,0.07982481,0.5340542,1.684657,-0.1613445,-0.381173,1.603257,0.2960035,-0.3977411,1.597631,0.06474318,0.06089171,1.720416,0.06764959,-0.2679439,1.716736,-0.1059631,0.2449084,1.701701,-0.01362241,-0.2622118,1.676982,-0.1437767,-0.008805903,1.705568,0.2612846,-0.03665117,1.717836,NA,NA,NotTracked,NotTracked,
0.9423828,-0.2871094,0.1704102,0.890625,0.3813477,0.08056641,-2,-1,-2,-2,-1,-2,0,0,-1,1,0,-2,-1,0,0,0,2.9375,2.9375,2.9375,10.375,10.375,10.375,3.25042,3.072866,6.369273,7.11808,3.186277,9.651879,-0.1117168,-0.3905123,1.603529,0.2454914,-0.3874277,1.599455,0.07951254,0.5339969,1.68452,-0.1588684,-0.3931237,1.599182,0.2934002,-0.4063492,1.590509,0.06453799,0.06078703,1.720371,0.06745343,-0.2680342,1.716878,-0.1062924,0.244711,1.701741,-0.01381375,-0.2622985,1.677109,-0.1437608,-0.009009382,1.705817,0.2609903,-0.03395446,1.717099,NA,NA,NotTracked,NotTracked,
0.9379883,-0.2856445,0.1635742,0.8876953,0.387207,0.09375,-2,-1,0,0,1,-1,-2,-2,-2,-1,-1,-1,0,-1,0,-2,0.4375,0.4375,0.4375,8.125,8.125,8.125,3.264027,3.077237,6.356713,7.127101,3.187284,9.652184,-0.1112835,-0.3893098,1.603185,0.2446725,-0.3883726,1.598801,0.07929954,0.5339625,1.684431,-0.1590019,-0.3927928,1.600947,0.2925586,-0.4179264,1.5905,0.06447431,0.06075132,1.720356,0.06738214,-0.2680431,1.716918,-0.1064783,0.2445752,1.701786,-0.01389383,-0.2623204,1.677148,-0.1437433,-0.009040534,1.705905,0.2608159,-0.03486026,1.717127,NA,NA,NotTracked,NotTracked,
0.9384766,-0.2998047,0.1704102,0.8920898,0.3813477,0.08789063,-2,1,-2,-2,-1,0,-2,-2,0,0,-2,1,-2,0,-1,-2,-4.875,-4.875,-4.875,10.8125,10.8125,10.8125,3.27488,3.083076,6.340958,7.139457,3.182301,9.650656,-0.1104714,-0.3895586,1.60282,0.2440173,-0.3881485,1.598163,0.07903624,0.5338982,1.684448,-0.1575571,-0.3983449,1.598031,0.2891375,-0.4013443,1.58565,0.06438995,0.06074622,1.720369,0.06732143,-0.2680295,1.716976,-0.106602,0.2445187,1.701876,-0.01399517,-0.2623231,1.677282,-0.1436519,-0.008987238,1.706098,0.2605533,-0.03356497,1.717317,NA,NA,NotTracked,NotTracked,
0.9326172,-0.3085938,0.1708984,0.8901367,0.3930664,0.0703125,-2,-1,0,1,-1,0,-1,-1,0,-2,-3,-1,0,-1,-1,1,-8.875,-8.875,-8.875,9.5,9.5,9.5,3.268845,3.084002,6.337501,7.158567,3.174359,9.642973,-0.1107042,-0.3887095,1.601501,0.2437723,-0.3882217,1.597961,0.07881013,0.5338335,1.684362,-0.1593308,-0.3965781,1.600838,0.2897971,-0.3893823,1.589767,0.06419672,0.0607295,1.720344,0.06714837,-0.2679984,1.717031,-0.1066962,0.2445035,1.701949,-0.01417093,-0.2623011,1.677325,-0.1436312,-0.008965374,1.706165,0.2605267,-0.03048885,1.717077,NA,NA,NotTracked,NotTracked,
0.9267578,-0.3139648,0.1708984,0.8901367,0.3828125,0.05419922,-1,-1,-2,0,0,-1,-1,-1,-1,-1,-1,-1,0,1,-2,1,-9.0625,-9.0625,-9.0625,2.625,2.625,2.625,3.265201,3.084905,6.33608,7.173038,3.166829,9.633123,-0.1083086,-0.3894179,1.601105,0.2426819,-0.3869074,1.600361,0.07822596,0.5337908,1.684446,-0.1557075,-0.3729059,1.598222,0.2914656,-0.3993895,1.595182,0.06402241,0.06070288,1.720333,0.06703276,-0.2679735,1.717095,-0.106941,0.2444784,1.702097,-0.01430289,-0.2622936,1.677423,-0.1431387,-0.008296342,1.706812,0.2597269,-0.03345197,1.717154,NA,NA,NotTracked,NotTracked,
0.9267578,-0.3120117,0.1635742,0.894043,0.3793945,0.06396484,-3,-1,-2,-3,-1,0,0,-1,-1,-2,-1,0,-1,0,-1,-1,-6.3125,-6.3125,-6.3125,-5.9375,-5.9375,-5.9375,3.260843,3.083903,6.332593,7.171888,3.162183,9.630301,-0.107942,-0.3891419,1.601943,0.2431282,-0.3865712,1.601834,0.07805562,0.5337862,1.684458,-0.1584926,-0.3989969,1.600579,0.2908132,-0.3850364,1.59671,0.06396098,0.06069771,1.720331,0.06695725,-0.2679684,1.717155,-0.1071531,0.2444857,1.702261,-0.0143848,-0.2622806,1.677533,-0.1431438,-0.008202409,1.706918,0.2595709,-0.03271022,1.717175,NA,NA,NotTracked,NotTracked,
0.9335938,-0.3076172,0.168457,0.9003906,0.3774414,0.07617188,-1,0,-2,0,-1,0,2,-2,-1,-2,-1,-2,0,-3,0,-1,-1.375,-1.375,-1.375,-9.125,-9.125,-9.125,3.262706,3.078642,6.325053,7.160827,3.160335,9.631903,-0.1080026,-0.3895445,1.602778,0.2426677,-0.3871467,1.602724,0.07789174,0.5337731,1.684526,-0.1634743,-0.4170691,1.614,0.2916237,-0.3707685,1.599218,0.06386662,0.06068204,1.720408,0.06687827,-0.2679656,1.717317,-0.1071928,0.2444594,1.702455,-0.01448366,-0.262276,1.677782,-0.1430882,-0.008071229,1.707242,0.2593964,-0.03470408,1.717397,NA,NA,NotTracked,NotTracked,
0.9350586,-0.3061523,0.1787109,0.8989258,0.3793945,0.08300781,0,1,-1,-2,-2,-1,1,0,-3,-1,-2,-1,0,0,-2,-1,0.75,0.75,0.75,-4.5,-4.5,-4.5,3.265645,3.075109,6.322627,7.153018,3.160537,9.633142,-0.1080893,-0.390073,1.602933,0.2431842,-0.3870323,1.60306,0.07768123,0.53372,1.684675,-0.1569624,-0.4046492,1.596737,0.2915095,-0.3826348,1.598441,0.06372406,0.06063783,1.720499,0.066802,-0.2679828,1.717394,-0.1073218,0.2444444,1.702565,-0.01455503,-0.2622958,1.677901,-0.1430456,-0.008060378,1.707303,0.2594882,-0.03329304,1.717221,NA,NA,NotTracked,NotTracked,
0.9296875,-0.3056641,0.1669922,0.8930664,0.3818359,0.07861328,0,-2,-1,-3,0,-2,-2,0,0,-2,0,-1,-1,-1,-2,-1,2.75,2.75,2.75,4.0625,4.0625,4.0625,3.267385,3.07314,6.32392,7.149991,3.159416,9.639585,-0.1082275,-0.3894112,1.602787,0.2437266,-0.3867444,1.603139,0.0775767,0.5336344,1.684676,-0.1601195,-0.3911342,1.611143,0.2917694,-0.3821363,1.598169,0.06369732,0.06061359,1.72051,0.0667958,-0.267989,1.717439,-0.10739,0.2443184,1.702672,-0.0145585,-0.2622986,1.677925,-0.1429988,-0.008101829,1.707323,0.2594827,-0.03240001,1.717104,NA,NA,NotTracked,NotTracked,
0.9360352,-0.3076172,0.1772461,0.8916016,0.3823242,0.08398438,-3,0,0,-1,0,0,-2,0,-1,-2,-1,-2,-1,-2,-1,-1,1.4375,1.4375,1.4375,3.5625,3.5625,3.5625,3.269977,3.071408,6.323559,7.150263,3.15875,9.641938,-0.1084348,-0.3894677,1.603716,0.2435353,-0.3892142,1.602751,0.07740019,0.5335982,1.684783,-0.1592982,-0.3951884,1.606621,0.2907836,-0.3862504,1.594593,0.06363015,0.06059066,1.720585,0.06677425,-0.2680022,1.717527,-0.1075582,0.2442753,1.702914,-0.01457578,-0.2623185,1.678037,-0.1429005,-0.008004237,1.707357,0.2595747,-0.03166238,1.71682,NA,NA,NotTracked,NotTracked,
0.9350586,-0.300293,0.1821289,0.8999023,0.3754883,0.08251953,-1,-2,0,0,0,-1,0,-1,-1,-1,-2,-2,-1,0,-1,-1,-2.75,-2.75,-2.75,3.875,3.875,3.875,3.270596,3.07112,6.322006,7.151512,3.157648,9.645534,-0.1082609,-0.3899966,1.603351,0.2439255,-0.3890217,1.60259,0.07729136,0.5334731,1.684865,-0.1556256,-0.387655,1.597868,0.2926395,-0.3837882,1.59899,0.06361475,0.06059152,1.720605,0.06674917,-0.2679824,1.717577,-0.1075787,0.2442984,1.702963,-0.01460026,-0.2623017,1.678123,-0.1427568,-0.00818546,1.707461,0.2596065,-0.03129173,1.716779,NA,NA,NotTracked,NotTracked,
0.9321289,-0.3007813,0.1728516,0.8964844,0.3774414,0.06982422,0,-1,0,-1,0,0,0,-1,-1,0,0,-1,-1,1,-1,0,-5.875,-5.875,-5.875,5.25,5.25,5.25,3.264274,3.070482,6.322985,7.161335,3.154062,9.644584,-0.1083632,-0.3897178,1.604571,0.2434117,-0.3884455,1.602811,0.07719226,0.5334005,1.685043,-0.1580905,-0.405466,1.595636,0.2918386,-0.3874139,1.596694,0.06358507,0.06055282,1.720703,0.06671292,-0.2679995,1.717657,-0.1076359,0.2442731,1.703088,-0.01462561,-0.2623112,1.6782,-0.1427128,-0.008270145,1.707594,0.2596751,-0.03344592,1.717091,NA,NA,NotTracked,NotTracked,
