ALX,ALY,ALZ,ARX,ARY,ARZ,EMG0L,EMG1L,EMG2L,EMG3L,EMG4L,EMG5L,EMG6L,EMG7L,EMG0R,EMG1R,EMG2R,EMG3R,EMG4R,EMG5R,EMG6R,EMG7R,GLX,GLY,GLZ,GRX,GRY,GRZ,ORL,OPL,OYL,ORR,OPR,OYR,LHNX,LHNY,LHNZ,RHNX,RHNY,RHNZ,HX,HY,HZ,LTX,LTY,LTZ,RTX,RTY,RTZ,SpineMidX,SpineMidY,SpineMidZ,SpineBaseX,SpineBaseY,SpineBaseZ,ShoulderLeftX,ShoulderLeftY,ShoulderLeftZ,ShoulderRightX,ShoulderRightY,ShoulderRightZ,ElbowLeftX,ElbowLeftY,ElbowLeftZ,ElbowRightX,ElbowRightY,ElbowRightZ,Myo_Pose_left,Myo_Pose_Right,Kinect_pose_left,Kinect_pose_right
0.9160156,-0.3935547,0.1254883,0.9023438,0.3486328,0.1586914,2,0,-1,0,-1,-2,-1,-1,-2,-1,-1,2,1,-1,-2,-2,-0.875,-0.875,-0.875,-2.3125,-2.3125,-2.3125,2.94891,3.177161,6.668287,6.863569,3.128359,1.810957,-0.1108993,-0.3468255,1.656471,0.2497761,-0.4292725,1.658837,0.1130704,0.4958545,1.76623,-0.06403914,-0.3439791,1.623302,0.1989367,-0.4051391,1.638516,0.08541153,0.03083307,1.788943,0.08683,-0.2929604,1.772253,-0.08845225,0.2132472,1.773427,0.005082807,-0.285915,1.730301,-0.125777,-0.04300696,1.767054,0.2752579,-0.06718629,1.789791,NA,NA,NotTracked,NotTracked,
0.9145508,-0.3881836,0.1157227,0.8969727,0.3530273,0.1582031,-1,-2,-2,-2,-1,-1,1,1,0,-2,-1,-2,0,1,-1,0,0.1875,0.1875,0.1875,-1.3125,-1.3125,-1.3125,2.949781,3.177486,6.667576,6.859259,3.129412,1.813647,-0.1107378,-0.347595,1.658117,0.2511349,-0.429376,1.660047,0.1132499,0.4959643,1.766227,-0.06365418,-0.3420489,1.625223,0.2005078,-0.4176209,1.638134,0.08544532,0.03085124,1.788925,0.08682655,-0.2929528,1.772236,-0.08827761,0.2131477,1.773396,0.005079717,-0.2858962,1.730271,-0.1256019,-0.04368354,1.766868,0.2752858,-0.06709755,1.789781,NA,NA,NotTracked,NotTracked,
0.9101563,-0.3920898,0.1176758,0.9038086,0.3520508,0.1616211,-2,-3,-2,-2,-1,-2,0,-1,-3,1,-1,-1,-2,0,-1,-3,-0.3125,-0.3125,-0.3125,1.25,1.25,1.25,2.949863,3.177383,6.667357,6.856264,3.130284,1.816588,-0.1106389,-0.3476892,1.657191,0.2507745,-0.4290626,1.659766,0.1133097,0.4959927,1.766188,-0.06395811,-0.3438835,1.624268,0.1992626,-0.4383447,1.640263,0.08547901,0.03085704,1.788909,0.08684574,-0.2929447,1.772217,-0.08813366,0.2131934,1.773311,0.005108926,-0.2858798,1.730237,-0.1256714,-0.04310133,1.766717,0.2752757,-0.06675329,1.78968,NA,NA,NotTracked,NotTracked,
0.9135742,-0.3989258,0.1171875,0.9033203,0.3476563,0.1503906,-1,0,-2,-3,-1,-1,-2,-1,-2,0,-1,-2,-2,1,1,-1,1.25,1.25,1.25,1.625,1.625,1.625,2.94947,3.177499,6.668723,6.855918,3.130029,1.818624,-0.1109452,-0.3482487,1.658145,0.2504763,-0.4294312,1.660252,0.1135188,0.4959625,1.766221,-0.06384216,-0.3422644,1.625098,0.1986155,-0.4197866,1.64042,0.08549311,0.03086341,1.788912,0.08684936,-0.2929458,1.772213,-0.08806241,0.2131879,1.773297,0.005119385,-0.2858744,1.730211,-0.1255262,-0.04331154,1.7667,0.2752724,-0.06671168,1.789676,NA,NA,NotTracked,NotTracked,
0.909668,-0.3847656,0.1176758,0.9067383,0.3457031,0.1542969,0,0,-1,0,-1,-1,1,-2,-1,-1,-1,-1,1,-1,-2,-1,1.6875,1.6875,1.6875,2.75,2.75,2.75,2.951585,3.177951,6.670986,6.856947,3.129455,1.819346,-0.1109165,-0.3475929,1.657068,0.2505894,-0.4282778,1.659578,0.1136941,0.4958329,1.766158,-0.06376456,-0.3403951,1.625983,0.2009769,-0.3986702,1.638903,0.08549713,0.03086862,1.788902,0.0868561,-0.2929384,1.772194,-0.08793914,0.2132075,1.773225,0.005126876,-0.2858611,1.730179,-0.1256782,-0.0428674,1.766677,0.2753197,-0.06676959,1.78963,NA,NA,NotTracked,NotTracked,
0.909668,-0.3847656,0.1176758,0.9067383,0.3457031,0.1542969,0,0,-1,0,-1,-1,1,-2,-1,-1,-1,-1,1,-1,-2,-1,1.6875,1.6875,1.6875,2.75,2.75,2.75,2.951585,3.177951,6.670986,6.856947,3.129455,1.819346,-0.1106923,-0.3472385,1.656798,0.2501402,-0.4278788,1.659076,0.113764,0.4957477,1.766139,-0.06390771,-0.3428641,1.624627,0.2002905,-0.4005338,1.637317,0.08555511,0.03086766,1.788852,0.08687837,-0.2929265,1.772156,-0.0877606,0.2132057,1.773147,0.005157369,-0.2858413,1.730125,-0.1256613,-0.04196308,1.766779,0.2753387,-0.06691217,1.789571,NA,NA,NotTracked,NotTracked,
0.9072266,-0.3896484,0.1142578,0.8994141,0.3432617,0.1538086,0,0,0,-1,-2,0,-2,-1,-1,-2,1,-1,-1,-1,-2,0,0.875,0.875,0.875,2.5,2.5,2.5,2.951585,3.177951,6.670986,6.860273,3.127976,1.820585,-0.1110645,-0.3481107,1.657154,0.2501438,-0.4318967,1.659006,0.1138811,0.4956773,1.766118,-0.06387872,-0.3430646,1.62436,0.1993301,-0.4413717,1.64125,0.0855797,0.03087728,1.788841,0.08688851,-0.2929225,1.772144,-0.08774474,0.2131861,1.773165,0.005175801,-0.2858353,1.730105,-0.1257165,-0.04182002,1.766705,0.2753511,-0.06698696,1.78957,NA,NA,NotTracked,NotTracked,
0.9042969,-0.3935547,0.1210938,0.9067383,0.3393555,0.1533203,-1,-1,-1,-1,1,-2,-1,-4,-1,-1,-1,0,-2,0,0,-2,1.75,1.75,1.75,2.4375,2.4375,2.4375,2.952024,3.178352,6.67365,6.862159,3.127035,1.821074,-0.1110668,-0.3467326,1.658121,0.2496514,-0.4306936,1.65863,0.1139958,0.4956453,1.766075,-0.06456474,-0.347266,1.621574,0.1990645,-0.4001772,1.637629,0.08558366,0.03087866,1.78884,0.08686279,-0.2929038,1.772142,-0.09026714,0.2137174,1.771412,0.005164012,-0.2858159,1.730097,-0.1256516,-0.04177617,1.766735,0.2753765,-0.06695752,1.789539,NA,NA,NotTracked,NotTracked,
0.9038086,-0.3964844,0.1186523,0.9003906,0.34375,0.1494141,-2,-2,-2,-1,0,-1,0,2,-1,1,-1,-2,-1,-1,-1,0,1.4375,1.4375,1.4375,1.75,1.75,1.75,2.952182,3.178792,6.67546,6.862963,3.126989,1.821336,-0.1110062,-0.3475935,1.657721,0.2499898,-0.4297757,1.658997,0.1140244,0.4956295,1.766079,-0.06411836,-0.3443051,1.623528,0.1981667,-0.4189678,1.639276,0.08566502,0.03088414,1.78882,0.08687279,-0.2929003,1.772129,-0.08990934,0.2137465,1.771542,0.005178599,-0.2858036,1.730074,-0.1256241,-0.04101509,1.766822,0.2753939,-0.06691793,1.789508,NA,NA,NotTracked,NotTracked,
0.9067383,-0.390625,0.1235352,0.8984375,0.347168,0.1499023,-2,-2,-2,-1,-1,-1,-1,-2,-2,0,-1,0,-1,0,-1,-1,1.5,1.5,1.5,1.0625,1.0625,1.0625,2.952653,3.179224,6.676122,6.864177,3.126841,1.820622,-0.1107938,-0.3476815,1.656669,0.2500896,-0.4289992,1.658523,0.1141873,0.4955795,1.766087,-0.06402092,-0.3437807,1.623855,0.2006695,-0.3858049,1.633759,0.08567636,0.0309099,1.788771,0.0868661,-0.2928852,1.772068,-0.08939233,0.2138192,1.771793,0.005175455,-0.2857647,1.72999,-0.1256599,-0.04093652,1.766807,0.2754044,-0.06691571,1.789434,NA,NA,NotTracked,NotTracked,
0.9155273,-0.394043,0.1245117,0.9008789,0.3452148,0.1494141,-1,0,-2,1,0,-1,-1,1,-1,-1,-3,-1,-3,-2,1,-1,0.25,0.25,0.25,-1.9375,-1.9375,-1.9375,2.953575,3.17915,6.675206,6.86117,3.127064,1.822501,-0.1114825,-0.3523699,1.655432,0.250692,-0.430005,1.658614,0.1143084,0.495602,1.766002,-0.0641635,-0.3450959,1.623494,0.2007214,-0.3947203,1.636688,0.08575018,0.03093215,1.788734,0.086879,-0.2928783,1.772049,-0.08876379,0.2136181,1.772056,0.005201197,-0.2857484,1.729946,-0.1257391,-0.03974779,1.766937,0.275447,-0.06691641,1.789339,NA,NA,NotTracked,NotTracked,
0.9125977,-0.3920898,0.1274414,0.9101563,0.3408203,0.1577148,1,-3,-1,-1,0,-2,0,-2,-1,-1,-1,2,-1,0,-1,-2,0.8125,0.8125,0.8125,-0.25,-0.25,-0.25,2.953841,3.178828,6.675074,6.860252,3.126759,1.822224,-0.1106496,-0.3485506,1.656335,0.2501637,-0.4292934,1.658072,0.1143619,0.4955696,1.765954,-0.06379122,-0.3442246,1.623772,0.1987595,-0.4258545,1.639111,0.08583637,0.03092516,1.788638,0.08691845,-0.2928695,1.771982,-0.08842141,0.2134739,1.772048,0.005242754,-0.2857102,1.729863,-0.1252854,-0.04100228,1.766861,0.2754904,-0.06684924,1.789175,NA,NA,NotTracked,NotTracked,
0.9038086,-0.3920898,0.1166992,0.9038086,0.3481445,0.1503906,0,0,-2,-1,-1,-1,0,-2,-1,-2,1,-1,-1,0,0,-1,0.5,0.5,0.5,-0.875,-0.875,-0.875,2.953841,3.178828,6.675074,6.862363,3.126764,1.820113,-0.1111188,-0.3486051,1.657348,0.2503216,-0.4292275,1.659087,0.1144634,0.4956217,1.765965,-0.06443509,-0.3584799,1.618563,0.1987855,-0.43088,1.641261,0.08587003,0.0309554,1.788612,0.08695205,-0.2928673,1.771965,-0.08811366,0.2134003,1.772118,0.00528499,-0.2857059,1.72982,-0.1254165,-0.0401641,1.76681,0.2755219,-0.06685959,1.789159,NA,NA,NotTracked,NotTracked,
0.9140625,-0.394043,0.1230469,0.9042969,0.3476563,0.1508789,-1,0,-2,-2,-1,1,-2,-1,0,1,0,0,1,-1,0,-1,-1.5,-1.5,-1.5,-1.8125,-1.8125,-1.8125,2.952984,3.178814,6.675242,6.859901,3.1266,1.820629,-0.1107409,-0.3519894,1.655647,0.250554,-0.427832,1.659716,0.1145182,0.4954728,1.765926,-0.06235787,-0.3324243,1.62864,0.200059,-0.3956312,1.636946,0.08589654,0.03090844,1.78861,0.08696313,-0.2928923,1.771962,-0.08799061,0.2133191,1.772163,0.005296153,-0.2857279,1.729825,-0.1254331,-0.04017534,1.766824,0.2755425,-0.06687111,1.789145,NA,NA,NotTracked,NotTracked,
0.909668,-0.3964844,0.1313477,0.8974609,0.3588867,0.15625,0,-3,-1,0,0,-1,0,-1,4,0,-1,-1,-2,0,-1,2,0.25,0.25,0.25,-0.375,-0.375,-0.375,2.95157,3.178437,6.676502,6.85854,3.127315,1.820994,-0.1111259,-0.3491228,1.658468,0.2508901,-0.4302031,1.660174,0.1145955,0.495405,1.766035,-0.06301489,-0.3399851,1.626188,0.2004778,-0.3936974,1.638143,0.08594844,0.03079974,1.788602,0.08698116,-0.2930164,1.771943,-0.08770356,0.213142,1.772374,0.005300243,-0.2858449,1.729795,-0.1251549,-0.04177424,1.767109,0.2756005,-0.06702981,1.789174,NA,NA,NotTracked,NotTracked,
0.9086914,-0.394043,0.1220703,0.8867188,0.3735352,0.1386719,-3,-2,-1,-1,-1,-1,0,-1,-55,-25,1,-1,-1,-2,-2,-2,0.125,0.125,0.125,2.6875,2.6875,2.6875,2.952457,3.178745,6.676319,6.848231,3.126941,1.834872,-0.1110141,-0.3486193,1.656641,0.2514485,-0.4300645,1.658641,0.1146445,0.4952987,1.765998,-0.06265573,-0.333221,1.627014,0.2026617,-0.3908288,1.636345,0.0859622,0.03079042,1.788585,0.08698241,-0.2930159,1.771936,-0.09020875,0.2134724,1.770861,0.005307342,-0.285835,1.729758,-0.1251709,-0.04169314,1.767122,0.2756208,-0.0670552,1.789117,NA,NA,NotTracked,NotTracked,
0.9135742,-0.3999023,0.1313477,0.8242188,0.4575195,0.1704102,-1,-3,0,0,-1,0,-1,-1,70,18,3,0,0,2,4,27,0.875,0.875,0.875,-5,-5,-5,2.953297,3.178773,6.675623,6.83604,3.143115,1.848671,-0.1102542,-0.3475362,1.656841,0.2507991,-0.4285609,1.658753,0.1146696,0.495334,1.765955,-0.06297431,-0.3389285,1.625975,0.2008757,-0.3867142,1.637682,0.08598721,0.03078768,1.78856,0.08700519,-0.2930187,1.77191,-0.0897858,0.2132823,1.771181,0.005325979,-0.2858358,1.729746,-0.1249965,-0.04375643,1.766989,0.2756388,-0.06706727,1.789066,NA,NA,NotTracked,NotTracked,
0.9140625,-0.4145508,0.1420898,1.214355,0.6464844,0.1123047,-2,-1,-2,-1,-2,-1,-2,-1,-6,-8,3,2,1,-2,-6,-20,5.5625,5.5625,5.5625,-49.125,-49.125,-49.125,2.960498,3.180568,6.676038,6.811431,3.214917,1.840822,-0.1103572,-0.3472323,1.657704,0.2510708,-0.4256705,1.656379,0.1146367,0.4954112,1.765985,-0.06285942,-0.3395243,1.625792,0.2012942,-0.4220596,1.63948,0.0859725,0.03081273,1.788548,0.08701,-0.2930042,1.771885,-0.08961897,0.2132655,1.771374,0.005328035,-0.2858256,1.729716,-0.1250737,-0.04355497,1.766955,0.275804,-0.0672792,1.78903,NA,NA,NotTracked,NotTracked,
0.909668,-0.3740234,0.128418,1.034668,0.6386719,0.1816406,-1,-1,-2,-2,0,-2,-3,-1,-6,26,18,5,4,2,5,24,12.0625,12.0625,12.0625,-78,-78,-78,2.972335,3.181868,6.676614,6.666062,3.370677,1.889612,-0.1103368,-0.3477003,1.656514,0.248128,-0.4203598,1.632807,0.1144652,0.4957466,1.766404,-0.06270312,-0.3348836,1.626555,0.1979191,-0.3814641,1.632917,0.08595274,0.0309432,1.78852,0.08694389,-0.2928751,1.771719,-0.08925087,0.2134542,1.77183,0.005255924,-0.2856508,1.729501,-0.1253957,-0.04110859,1.767056,0.2762563,-0.06751514,1.789186,NA,NA,NotTracked,Unknown,
0.8901367,-0.3486328,0.1123047,0.9604492,0.6914063,0.4970703,0,-2,-2,-1,-1,-1,-2,-1,-18,-21,-22,-9,-7,-9,-6,4,4.875,4.875,4.875,-33.25,-33.25,-33.25,2.983897,3.181502,6.673114,6.60994,3.574635,1.891431,-0.1100796,-0.3489555,1.656497,0.2495902,-0.4092045,1.603445,0.1143582,0.4959219,1.76661,-0.06271756,-0.3400885,1.62519,0.206881,-0.3827826,1.63856,0.08592974,0.03101091,1.788539,0.0869302,-0.2928454,1.771694,-0.08917854,0.2134093,1.772164,0.005229431,-0.2856174,1.729449,-0.1253964,-0.04108124,1.767065,0.2770555,-0.0677137,1.789791,NA,NA,NotTracked,Unknown,
0.8935547,-0.3896484,0.1318359,0.6030273,1.064453,0.6025391,0,0,-1,0,-1,-1,-1,-1,-25,7,-6,5,-1,-2,-3,2,-12.4375,-12.4375,-12.4375,27.375,27.375,27.375,2.980398,3.179502,6.667323,6.639647,4.004059,1.886721,-0.1100344,-0.3477518,1.656619,0.2572057,-0.375629,1.547702,0.1140831,0.4960488,1.767082,-0.06209672,-0.3357267,1.626612,0.2257043,-0.3775625,1.510519,0.08588163,0.03104289,1.788526,0.08675631,-0.2927945,1.77151,-0.09130677,0.213625,1.770932,0.005025961,-0.2854754,1.729114,-0.1254174,-0.04106147,1.767009,0.2777902,-0.06769978,1.790128,NA,NA,NotTracked,Unknown,
0.9086914,-0.4399414,0.1474609,0.4111328,1.075195,0.5625,-1,0,0,-2,1,-1,0,-1,34,-5,0,7,1,1,1,9,-12.5,-12.5,-12.5,22.1875,22.1875,22.1875,2.97128,3.180806,6.661263,6.653922,4.173469,1.884231,-0.1097255,-0.3473937,1.657131,0.2587897,-0.3258197,1.514379,0.1138136,0.4960419,1.767402,-0.06462484,-0.354158,1.618024,0.2280723,-0.3691384,1.457875,0.08576938,0.03105829,1.788542,0.0863706,-0.2927706,1.771229,-0.09106525,0.2135339,1.771306,0.004563794,-0.2852552,1.728681,-0.125332,-0.04310436,1.766702,0.2792308,-0.06370132,1.7917,NA,NA,NotTracked,Unknown,
0.9008789,-0.4331055,0.144043,0.1499023,1.056641,0.5566406,0,-1,-2,1,-2,-2,-1,-1,-94,8,5,7,3,-3,1,-6,-9.8125,-9.8125,-9.8125,8.375,8.375,8.375,2.970335,3.182295,6.656654,6.668867,4.529985,1.875791,-0.1094076,-0.3475587,1.657982,0.2658146,-0.2563325,1.457344,0.1134315,0.4961716,1.768353,-0.06322775,-0.3437535,1.623452,0.2257997,-0.2407892,1.3915,0.08545791,0.03119169,1.788656,0.08576065,-0.2926261,1.771063,-0.09087013,0.2132959,1.771646,0.003908413,-0.2849658,1.728246,-0.1253865,-0.04311064,1.766694,0.2828981,-0.04987521,1.794194,NA,NA,NotTracked,Unknown,
0.9135742,-0.4140625,0.1479492,-0.03125,1.020508,0.487793,-2,-2,-1,-1,-1,0,0,-1,16,1,5,4,2,-2,2,2,-19.625,-19.625,-19.625,36.5625,36.5625,36.5625,2.968366,3.186494,6.632595,6.731639,5.085673,1.882396,-0.1096314,-0.3453618,1.655463,0.2804069,-0.09856208,1.375798,0.1123851,0.4963499,1.770351,-0.06315315,-0.3417291,1.623509,0.2681776,-0.0737569,1.369286,0.08492518,0.03136051,1.788915,0.08470811,-0.2924443,1.770707,-0.0904586,0.21262,1.771887,0.002942205,-0.2846665,1.72757,-0.125144,-0.04545885,1.765769,0.2938381,-0.02489592,1.781072,NA,NA,NotTracked,Unknown,
0.9174805,-0.4082031,0.1479492,-0.1728516,1.042969,0.4785156,-1,0,-1,-2,-1,-1,-2,-1,-9,-1,1,7,-3,-2,-1,-5,-16.5,-16.5,-16.5,36.8125,36.8125,36.8125,2.96382,3.1879,6.616392,6.753874,5.268896,1.893399,-0.1094952,-0.3463189,1.656327,0.2916924,-0.01241213,1.422319,0.1121427,0.496725,1.771725,-0.06133277,-0.3339039,1.628,0.2554054,-0.006522812,1.42825,0.0845792,0.03154036,1.789266,0.08436341,-0.2923039,1.770712,-0.09029326,0.2125704,1.771949,0.002684045,-0.284523,1.727484,-0.1253463,-0.04527824,1.765352,0.2877722,-0.01805994,1.784425,NA,NA,NotTracked,Unknown,
0.9145508,-0.3920898,0.1328125,-0.2670898,0.8837891,0.456543,0,-2,-1,-1,-2,0,-2,-2,14,7,14,9,5,1,0,3,-13.625,-13.625,-13.625,50.25,50.25,50.25,2.961966,3.188104,6.610302,6.857971,5.788201,1.954196,-0.1083023,-0.3427456,1.655157,0.2960064,0.06258339,1.431356,0.1117082,0.497117,1.773017,-0.06234761,-0.3432217,1.622476,0.2678212,0.08808716,1.413941,0.08432796,0.03180453,1.789456,0.08402494,-0.2919866,1.770527,-0.09005297,0.212488,1.77188,0.002406961,-0.2840928,1.727129,-0.1255834,-0.045314,1.76466,0.2952402,-0.01348624,1.759188,NA,NA,NotTracked,Unknown,
0.9223633,-0.3613281,0.09033203,-0.4848633,0.8496094,0.4609375,-1,-2,-1,-1,-2,0,-2,-2,5,3,9,1,4,-4,-8,-14,-13.3125,-13.3125,-13.3125,56.875,56.875,56.875,2.949598,3.185119,6.601161,6.910927,5.953097,1.997749,-0.1086929,-0.3420354,1.654357,0.2949025,0.1407839,1.436225,0.1113439,0.4976252,1.773979,-0.06258659,-0.3415142,1.623966,0.2676846,0.1728341,1.422688,0.08427332,0.03186618,1.789537,0.08387271,-0.2918942,1.770379,-0.08974391,0.2125029,1.771808,0.002260604,-0.2838913,1.726765,-0.1255558,-0.04571604,1.763856,0.3070158,-0.008420035,1.730448,NA,NA,NotTracked,Open,
0.925293,-0.3847656,0.09912109,-0.4814453,0.6381836,0.3105469,0,-2,0,-1,0,-3,-1,0,2,1,4,1,-4,-8,-1,5,-10.9375,-10.9375,-10.9375,55.375,55.375,55.375,2.935834,3.182734,6.600809,7.147045,6.370254,2.217416,-0.1083406,-0.3449506,1.651788,0.280864,0.274182,1.470631,0.1112217,0.4980303,1.775589,-0.06196712,-0.3405199,1.622754,0.2418097,0.2852496,1.474364,0.08308828,0.03241142,1.789392,0.08341879,-0.2914876,1.769929,-0.09241305,0.2132203,1.769646,0.001785442,-0.2832727,1.725987,-0.1259321,-0.04504051,1.762122,0.3354506,0.01448409,1.664274,NA,NA,NotTracked,Open,
0.9130859,-0.3813477,0.1000977,-0.4960938,0.6171875,0.2480469,-1,-3,0,-3,-1,-1,0,0,22,2,0,1,-2,-8,0,-12,-2.375,-2.375,-2.375,53.375,53.375,53.375,2.92442,3.179946,6.607595,7.261406,6.482932,2.326756,-0.1087761,-0.3448663,1.650506,0.267047,0.3249943,1.501573,0.1108623,0.4978935,1.776842,-0.06201858,-0.3415826,1.621721,0.2434233,0.3271229,1.5534,0.08275262,0.03254009,1.789332,0.08322003,-0.2912812,1.769579,-0.08946675,0.2132408,1.770203,0.001480127,-0.2828746,1.725526,-0.1264929,-0.04370208,1.761108,0.3346743,0.03611301,1.661594,NA,NA,NotTracked,Open,
0.9135742,-0.3803711,0.1142578,-0.5473633,0.4130859,0.1508789,0,0,-1,-1,-2,-1,-1,-1,70,1,0,2,0,10,-6,-17,2.125,2.125,2.125,46.3125,46.3125,46.3125,2.919045,3.178506,6.615172,7.714428,6.730634,2.766059,-0.1090184,-0.3445441,1.651327,0.257199,0.3576628,1.531384,0.1103174,0.4977112,1.778069,-0.0601594,-0.3286622,1.6251,0.2277966,0.380798,1.574421,0.08298268,0.03267043,1.789691,0.0830574,-0.2907058,1.769081,-0.09001627,0.2135463,1.76968,0.001236439,-0.282135,1.725086,-0.1268867,-0.04263312,1.760193,0.3454576,0.07266185,1.62718,NA,NA,NotTracked,Open,
0.9067383,-0.3803711,0.1259766,-0.6235352,0.3925781,0.01171875,-1,0,-1,-2,0,-1,0,0,56,3,-4,-5,-3,-7,0,9,6.625,6.625,6.625,27.625,27.625,27.625,2.922272,3.177714,6.619348,8.071441,6.810104,3.127533,-0.1094058,-0.3463645,1.651661,0.2462108,0.3841636,1.561512,0.1100652,0.4977637,1.779289,-0.06159396,-0.3380482,1.62348,0.2287101,0.3740297,1.6055,0.08266611,0.03300853,1.789638,0.08301482,-0.2900609,1.768806,-0.09010008,0.2138022,1.769463,0.001151256,-0.2812713,1.724868,-0.1269505,-0.04177865,1.75999,0.3473766,0.07682107,1.624399,NA,NA,NotTracked,Open,
0.8984375,-0.3867188,0.1274414,-0.671875,0.2548828,-0.06982422,-1,0,-2,0,-2,-1,-2,0,-83,-12,-8,-7,0,-3,7,-30,8.875,8.875,8.875,14.6875,14.6875,14.6875,2.928594,3.178224,6.623261,8.389622,6.842295,3.460505,-0.1090703,-0.3448276,1.650756,0.2391118,0.3951577,1.586897,0.1096494,0.4976124,1.779907,-0.06084498,-0.3451916,1.615883,0.2129675,0.3527713,1.605737,0.08285847,0.03307305,1.789884,0.0829386,-0.2895238,1.768457,-0.09008215,0.2141304,1.769199,0.001031717,-0.2806377,1.724631,-0.1270778,-0.04099187,1.759691,0.3691781,0.06907997,1.580152,NA,NA,NotTracked,Open,
0.8950195,-0.3862305,0.1123047,-0.7397461,0.2993164,-0.1821289,-1,-1,1,0,-2,-1,-1,0,39,3,2,1,-3,-1,0,2,8.5,8.5,8.5,-0.4375,-0.4375,-0.4375,2.932733,3.17775,6.629742,8.600598,6.833495,3.686572,-0.1087737,-0.3472557,1.651727,0.2355726,0.3960021,1.620732,0.1099313,0.4975586,1.77991,-0.06117744,-0.3393573,1.621867,0.2170372,0.3485317,1.641706,0.08237112,0.03384211,1.789615,0.08274289,-0.2882437,1.767937,-0.07969072,0.2165314,1.771592,0.0006382424,-0.2789547,1.724633,-0.1275798,-0.03747248,1.759745,0.3598382,0.1111423,1.607205,NA,NA,NotTracked,Open,
0.9067383,-0.4003906,0.1186523,-0.7749023,0.2460938,-0.2490234,-2,-2,-3,-1,-2,-1,-2,0,39,2,8,7,1,0,5,10,7,7,7,0.9375,0.9375,0.9375,2.936671,3.177949,6.634305,8.71211,6.814669,3.808806,-0.1093496,-0.3481682,1.650326,0.2362004,0.3914264,1.628816,0.1103436,0.4974821,1.779679,-0.06074084,-0.3366588,1.621344,0.2320358,0.3345308,1.655688,0.08208366,0.03422543,1.789446,0.08259401,-0.2875775,1.767615,-0.08225453,0.2164585,1.770412,0.0004574405,-0.2782211,1.724549,-0.1279567,-0.03566344,1.759537,0.3605504,0.1121311,1.606824,NA,NA,NotTracked,Open,
0.9082031,-0.3969727,0.1191406,-0.8115234,0.2680664,-0.2734375,-1,0,-2,-2,-2,-2,-1,-2,25,-3,-8,-5,-13,0,2,-22,5.25,5.25,5.25,3.125,3.125,3.125,2.941102,3.178816,6.636663,8.763708,6.795699,3.860713,-0.1091754,-0.3488501,1.649642,0.2192163,0.4131469,1.643457,0.1107331,0.4975052,1.779699,-0.06054045,-0.3366523,1.621933,0.2082295,0.3559897,1.660444,0.08234449,0.034572,1.789645,0.08248958,-0.2870427,1.767359,-0.07994863,0.2167859,1.771174,0.0001975757,-0.2774634,1.724578,-0.1282649,-0.03532557,1.759639,0.3613498,0.1130277,1.606568,NA,NA,NotTracked,Open,
0.9057617,-0.4003906,0.1333008,-0.8374023,0.2578125,-0.3071289,-1,-2,-1,-2,0,-1,-1,-1,-26,-2,0,-1,2,-4,5,21,1.625,1.625,1.625,3.875,3.875,3.875,2.946369,3.179929,6.634493,8.775999,6.787097,3.870979,-0.1093953,-0.3492639,1.65029,0.2144315,0.4177622,1.648973,0.1108904,0.4973385,1.779618,-0.06199446,-0.3564954,1.61182,0.1993294,0.3598878,1.653445,0.0826939,0.0349793,1.789863,0.08258328,-0.2864571,1.767171,-0.08295313,0.2164564,1.770147,0.000258422,-0.2769626,1.724597,-0.1282966,-0.0347244,1.759745,0.3626306,0.1148328,1.606176,NA,NA,NotTracked,Open,
0.9082031,-0.40625,0.1318359,-0.7861328,0.2973633,-0.3291016,0,1,0,0,1,-2,-2,-1,49,7,3,0,-2,-8,35,43,-2.1875,-2.1875,-2.1875,12.0625,12.0625,12.0625,2.947619,3.180506,6.632242,8.778642,6.770467,3.855655,-0.1094613,-0.3488747,1.650179,0.2091392,0.4215513,1.653738,0.1113591,0.4966491,1.779647,-0.06058463,-0.3396527,1.619115,0.1315613,0.392656,1.686619,0.0830476,0.03537405,1.790123,0.08251084,-0.2859558,1.766961,-0.08346298,0.2160345,1.770069,0.0001432363,-0.2764437,1.724642,-0.1285065,-0.03382601,1.75994,0.3642322,0.1169336,1.605734,NA,NA,NotTracked,Open,
0.9116211,-0.40625,0.1352539,-0.8129883,0.2998047,-0.4350586,0,-1,-2,0,-2,-3,-1,-1,-7,-13,-12,-8,-10,-7,-58,-59,0.125,0.125,0.125,23.8125,23.8125,23.8125,2.948754,3.180898,6.630225,8.784999,6.769589,3.835492,-0.1094616,-0.3494745,1.650225,0.2091639,0.4213566,1.654761,0.111614,0.4962201,1.779779,-0.06093118,-0.3414715,1.619417,0.1877983,0.364902,1.651889,0.08312944,0.0355053,1.790287,0.08246586,-0.285659,1.766919,-0.08499665,0.2158752,1.769437,6.978161E-05,-0.2761518,1.724748,-0.1285712,-0.03383484,1.759928,0.3649792,0.1179007,1.605669,NA,NA,NotTracked,Open,
0.9106445,-0.3955078,0.1342773,-0.8964844,0.2822266,-0.4750977,-1,-1,-2,-1,-1,-1,-1,-2,35,-7,-12,-6,-22,-8,-60,-30,4.0625,4.0625,4.0625,33.1875,33.1875,33.1875,2.955914,3.181081,6.626755,8.778073,6.778419,3.804481,-0.1094533,-0.3496977,1.650626,0.2126792,0.4200743,1.650905,0.1114611,0.4961314,1.779922,-0.05966867,-0.331879,1.625172,0.1890702,0.3662255,1.648847,0.08273374,0.03561972,1.790134,0.08244348,-0.2855778,1.766909,-0.08646502,0.2156733,1.769024,5.067347E-05,-0.2760981,1.724814,-0.1286066,-0.03387439,1.759997,0.3657594,0.1184261,1.605786,NA,NA,NotTracked,Open,
0.9125977,-0.3793945,0.105957,-1.185547,0.1464844,-0.6000977,1,-1,-2,-2,-1,0,-1,-1,38,5,4,1,12,18,-12,4,8.875,8.875,8.875,97.9375,97.9375,97.9375,2.963693,3.180554,6.627628,8.580436,6.872204,3.444199,-0.1093923,-0.3496277,1.65066,0.2172301,0.4242676,1.644441,0.1112775,0.496182,1.779953,-0.06079501,-0.3404326,1.62059,0.1708122,0.3971762,1.622769,0.08269801,0.03579989,1.790203,0.0824433,-0.2853606,1.766893,-0.08747438,0.2156341,1.768668,8.045224E-05,-0.2759908,1.724904,-0.1286224,-0.03389023,1.760011,0.3666897,0.1201198,1.606654,NA,NA,NotTracked,Unknown,
0.9140625,-0.3554688,0.08496094,-1.307617,0.2915039,-0.4467773,0,-1,-2,-2,-2,-1,0,-1,-9,10,4,14,-12,-5,-11,-14,3.3125,3.3125,3.3125,89.3125,89.3125,89.3125,2.967288,3.178618,6.630207,8.146469,6.914904,2.86486,-0.1093039,-0.3493097,1.65057,0.2449611,0.4144875,1.617279,0.1090695,0.4966693,1.780681,-0.0609275,-0.341132,1.620313,0.1891112,0.4004216,1.605931,0.08252034,0.03586764,1.790278,0.08237898,-0.2853589,1.766893,-0.08852381,0.215746,1.768432,-1.885736E-06,-0.2761123,1.725046,-0.1287633,-0.03404925,1.759986,0.3674849,0.1220157,1.607937,NA,NA,NotTracked,Unknown,
0.9140625,-0.3554688,0.08496094,-1.307617,0.2915039,-0.4467773,0,-1,-2,-2,-2,-1,0,-1,-9,10,4,14,-12,-5,-11,-14,3.3125,3.3125,3.3125,89.3125,89.3125,89.3125,2.967288,3.178618,6.630207,8.146469,6.914904,2.86486,-0.1096819,-0.3513749,1.65084,0.2719664,0.4262355,1.588766,0.1068989,0.4971593,1.782321,-0.06091402,-0.3411446,1.6204,0.2067944,0.4445342,1.573578,0.08222833,0.03578825,1.790585,0.08198169,-0.2857158,1.767044,-0.08812284,0.2159545,1.769901,-0.0005610163,-0.276899,1.725508,-0.1289241,-0.03524317,1.760232,0.3720631,0.1240775,1.609704,NA,NA,NotTracked,Open,
0.9013672,-0.3964844,0.09863281,-0.9418945,0.53125,-0.1679688,0,-1,-2,-2,-2,-2,-3,-2,-36,-15,-14,-4,-8,-2,-44,-50,-8.6875,-8.6875,-8.6875,12.4375,12.4375,12.4375,2.958064,3.177431,6.631955,7.613813,6.809355,2.243861,-0.1103132,-0.3500067,1.650123,0.3070945,0.4348993,1.549845,0.1053292,0.4978741,1.782781,-0.0609196,-0.3404711,1.620439,0.2413776,0.4656737,1.533909,0.08144106,0.03574982,1.790841,0.08132465,-0.2863435,1.766951,-0.09131105,0.2156082,1.769303,-0.001206644,-0.2779072,1.725678,-0.1290079,-0.03610276,1.760544,0.3757011,0.1308481,1.607898,NA,NA,NotTracked,Open,
0.9003906,-0.4189453,0.137207,-0.1049805,0.4575195,0.3847656,-1,-2,-1,0,-1,1,-3,0,17,-11,1,-6,-6,5,-34,5,-3.375,-3.375,-3.375,56.3125,56.3125,56.3125,2.954092,3.18393,6.625258,7.226903,6.698084,1.781699,-0.1108645,-0.3508451,1.649364,0.3426161,0.4471416,1.514331,0.1044855,0.4982132,1.783056,-0.06082635,-0.3402041,1.620361,0.2833179,0.4686936,1.486188,0.08073124,0.03577863,1.791134,0.08099446,-0.2864718,1.767005,-0.09306269,0.2154161,1.768972,-0.001442728,-0.2782441,1.725823,-0.1290399,-0.03670529,1.76055,0.3776034,0.138048,1.606983,NA,NA,NotTracked,Open,
0.9003906,-0.4057617,0.152832,-0.262207,0.7314453,0.4956055,-1,-3,-1,0,0,-1,-1,0,-84,-11,-4,-4,-3,4,14,-21,0.5625,0.5625,0.5625,29.375,29.375,29.375,2.95959,3.187434,6.620226,7.091245,6.623863,1.581936,-0.1107519,-0.3494362,1.651003,0.3716938,0.4541501,1.490155,0.1033107,0.498627,1.783664,-0.06078625,-0.3396369,1.621096,0.3098647,0.4640658,1.444154,0.08009412,0.03575295,1.791533,0.08067086,-0.28664,1.76701,-0.09321475,0.2152375,1.770543,-0.001680211,-0.2785182,1.725937,-0.1292274,-0.03685821,1.7607,0.3865083,0.1495974,1.600024,NA,NA,NotTracked,Open,
0.9404297,-0.3706055,0.1542969,-0.7285156,0.4589844,0.4316406,-1,-2,-2,-2,-2,-1,-1,0,67,-2,-3,-7,-5,-22,-24,25,10.75,10.75,10.75,0,0,0,2.974713,3.192924,6.614852,7.047636,6.624169,1.531251,-0.1115721,-0.3504548,1.651451,0.386086,0.4577013,1.480888,0.1019164,0.4991412,1.784393,-0.06161318,-0.3463783,1.618544,0.3265261,0.4668858,1.431889,0.07953534,0.03584023,1.791939,0.08037264,-0.2866967,1.767107,-0.09502131,0.2150407,1.770343,-0.001935329,-0.2788,1.726278,-0.1295201,-0.03725896,1.761134,0.3930363,0.1537146,1.596088,NA,NA,NotTracked,Open,
0.9433594,-0.3325195,0.1557617,-0.9052734,0.3574219,0.2387695,-2,0,0,-1,-1,0,-3,-1,-16,-5,0,3,1,-20,-20,-39,13.0625,13.0625,13.0625,6.3125,6.3125,6.3125,2.987632,3.192231,6.61884,7.054873,6.657356,1.543031,-0.113156,-0.3504,1.651802,0.3891118,0.4544892,1.488857,0.09983367,0.5000269,1.785,-0.06124473,-0.3260773,1.626867,0.329268,0.4765277,1.4345,0.07890991,0.03581879,1.792195,0.07970452,-0.2869842,1.767213,-0.09599885,0.2140416,1.771719,-0.0025017,-0.2793733,1.726867,-0.1298264,-0.04187263,1.763313,0.3974063,0.1537874,1.59545,NA,NA,NotTracked,Open,
0.8950195,-0.3862305,0.1552734,-0.8793945,0.4350586,0.08398438,-2,0,-1,-2,-1,0,-3,0,14,-7,-6,1,3,-6,-10,-11,-0.9375,-0.9375,-0.9375,6.9375,6.9375,6.9375,2.981744,3.183726,6.630347,7.101256,6.66918,1.587973,-0.113417,-0.3558061,1.650528,0.3848752,0.4525891,1.49316,0.09939455,0.5001734,1.785173,-0.06441597,-0.3504674,1.617673,0.3244629,0.4631726,1.441772,0.07870778,0.0357355,1.792266,0.07932767,-0.2872131,1.76725,-0.0955419,0.2135085,1.772639,-0.002804681,-0.2796868,1.727116,-0.1299645,-0.04191091,1.763448,0.3982831,0.1532394,1.595873,NA,NA,NotTracked,Open,
0.8691406,-0.5039063,0.1791992,-0.6245117,0.3969727,0.09130859,-1,0,-1,-2,-1,-2,-2,-2,-23,-6,-2,-3,-7,1,1,4,-5.0625,-5.0625,-5.0625,-10.625,-10.625,-10.625,2.953496,3.180167,6.65202,7.1555,6.643049,1.665241,-0.1146783,-0.3553241,1.651591,0.3810145,0.4498717,1.494113,0.09916044,0.5003933,1.785221,-0.0631297,-0.3416028,1.621073,0.316169,0.4596922,1.4456,0.07798957,0.03566696,1.791837,0.07891577,-0.2873265,1.767286,-0.09502908,0.2134969,1.773134,-0.003079346,-0.2797906,1.727215,-0.1302463,-0.04140577,1.763795,0.3990359,0.1512651,1.596811,NA,NA,NotTracked,Open,
0.8774414,-0.4604492,0.1577148,-0.5078125,0.3950195,0.1220703,-1,0,-2,-2,0,0,-1,-1,7,6,2,-1,-1,3,-2,-1,-0.9375,-0.9375,-0.9375,-6.875,-6.875,-6.875,2.953024,3.188081,6.651421,7.166319,6.620615,1.683002,-0.1150581,-0.3884004,1.634795,0.3761337,0.4451012,1.49287,0.0989873,0.5005274,1.785258,-0.06881446,-0.3706613,1.609647,0.311314,0.4543945,1.4412,0.0779375,0.0356657,1.79186,0.07854,-0.2874398,1.767273,-0.09476104,0.2135593,1.773478,-0.003340578,-0.2798953,1.727289,-0.1303235,-0.04093539,1.763864,0.3993349,0.1477595,1.59959,NA,NA,NotTracked,Open,
0.8818359,-0.4125977,0.1376953,-0.2636719,0.512207,0.234375,-2,-2,-3,-1,-2,-1,-2,0,14,-1,-2,0,2,10,2,0,0.3125,0.3125,0.3125,-36.0625,-36.0625,-36.0625,2.957868,3.192394,6.646614,7.17374,6.483972,1.74298,-0.1129318,-0.3537164,1.651916,0.3705633,0.421771,1.486933,0.09878643,0.5008379,1.784965,-0.06502089,-0.345171,1.620825,0.3079599,0.4331453,1.4375,0.07788058,0.03565177,1.791884,0.07789951,-0.2878177,1.767202,-0.09432182,0.2135205,1.773913,-0.003837883,-0.2802413,1.727391,-0.1304224,-0.04042867,1.763973,0.3989879,0.1336267,1.605988,NA,NA,NotTracked,Open,
0.8959961,-0.3427734,0.1196289,-0.3203125,0.5019531,0.2216797,0,-2,0,-1,0,0,-1,-1,-5,-3,-2,-6,1,6,1,1,-2.5,-2.5,-2.5,-51.125,-51.125,-51.125,2.969712,3.198096,6.632635,7.174005,6.346456,1.814098,-0.112585,-0.3500297,1.650582,0.3659091,0.3990906,1.479546,0.09864933,0.5011919,1.784864,-0.06598886,-0.3533981,1.615179,0.3040217,0.3978743,1.440533,0.07722673,0.0355837,1.791252,0.07743851,-0.2879873,1.767046,-0.09417515,0.2135217,1.77403,-0.004234911,-0.2803664,1.727373,-0.1304358,-0.0403906,1.763922,0.3967768,0.117328,1.613092,NA,NA,NotTracked,Open,
0.9208984,-0.3486328,0.125,-0.2802734,0.5639648,0.3095703,1,-1,-2,-1,-1,-2,1,-1,-6,2,1,1,-2,1,-1,0,-6.25,-6.25,-6.25,-49.125,-49.125,-49.125,2.973003,3.195691,6.618045,7.165756,6.252028,1.842484,-0.1125306,-0.3498328,1.651311,0.3584274,0.3673504,1.469875,0.09850857,0.5013352,1.78489,-0.06547513,-0.3461517,1.619841,0.326904,0.3873543,1.509714,0.07721512,0.03555974,1.791274,0.0772011,-0.2881905,1.766987,-0.09404789,0.2134439,1.774225,-0.004435753,-0.280582,1.727377,-0.1304104,-0.04035963,1.763911,0.3928179,0.09896067,1.623969,NA,NA,NotTracked,Open,
0.9111328,-0.3945313,0.109375,-0.4326172,0.7905273,0.4111328,-2,0,-1,-3,-2,0,-1,-1,-5,-7,-7,-6,-1,0,0,-1,7.25,7.25,7.25,-63.9375,-63.9375,-63.9375,2.971926,3.191889,6.622937,7.127837,6.002067,1.887284,-0.1114652,-0.3501872,1.651247,0.3507341,0.3159703,1.457437,0.09844667,0.5013434,1.784888,-0.06526306,-0.3498192,1.617727,0.3288133,0.3524468,1.4948,0.0772083,0.03550313,1.791275,0.07698247,-0.2885346,1.766864,-0.09531194,0.2133378,1.772972,-0.004641713,-0.2809703,1.727249,-0.1301374,-0.04092361,1.763641,0.3846107,0.06718785,1.644399,NA,NA,NotTracked,Open,
0.9580078,-0.3852539,0.1137695,-0.4067383,0.980957,0.3413086,-1,-2,-1,-2,1,0,-1,0,0,-3,-3,-2,1,-4,-17,-1,20.25,20.25,20.25,-80.5,-80.5,-80.5,2.975228,3.187706,6.64073,7.02508,5.534234,1.946705,-0.1114326,-0.3464005,1.653184,0.3407461,0.2512288,1.447453,0.09823485,0.5014901,1.784812,-0.06463293,-0.3412174,1.620445,0.3064791,0.2831653,1.452833,0.07724195,0.03539084,1.791191,0.07692223,-0.2886925,1.766769,-0.09626041,0.2131487,1.771998,-0.004677269,-0.2811239,1.727132,-0.129146,-0.04585924,1.762989,0.3730136,0.02633863,1.682678,NA,NA,NotTracked,Open,
0.9243164,-0.3769531,0.1196289,-0.4941406,1.17041,0.3076172,-1,-1,-2,-1,-2,-2,0,0,-2,-4,4,-2,-1,2,4,1,15.125,15.125,15.125,-64.125,-64.125,-64.125,2.980284,3.183717,6.656721,6.952996,5.202908,1.970624,-0.1107051,-0.3482091,1.653291,0.3031178,0.1139441,1.406687,0.09713928,0.5020002,1.78471,-0.06205742,-0.3312009,1.626065,0.2550893,0.1364317,1.388333,0.07748731,0.03522846,1.790956,0.07681561,-0.2888866,1.766721,-0.09646616,0.2126589,1.771979,-0.004753569,-0.281333,1.726996,-0.1281364,-0.04735497,1.763287,0.350669,0.004345737,1.720387,NA,NA,NotTracked,Unknown,
0.9306641,-0.4404297,0.1640625,-0.1958008,1.187012,0.3681641,-2,-1,-2,-1,-3,-2,-1,-1,-5,-2,-1,-2,0,0,-3,1,5.625,5.625,5.625,-61.125,-61.125,-61.125,2.97887,3.181545,6.667521,6.891774,4.848254,1.984128,-0.1105504,-0.3462339,1.653219,0.2886132,0.03969473,1.384192,0.09677772,0.5021575,1.784378,-0.06504725,-0.3506998,1.616572,0.2436471,0.05765602,1.383167,0.0777929,0.03514491,1.79046,0.07687657,-0.2890237,1.766583,-0.09586927,0.2122278,1.772216,-0.004635261,-0.2815459,1.726658,-0.1275149,-0.04754264,1.763426,0.3173198,-0.01738653,1.7738,NA,NA,NotTracked,Unknown,
0.8950195,-0.4086914,0.1367188,0.06884766,1.187012,0.246582,0,-1,-2,-2,-2,-1,-1,-2,0,3,4,0,1,1,3,-3,4.9375,4.9375,4.9375,-54.625,-54.625,-54.625,2.979266,3.183286,6.674585,6.813841,4.519107,2.016268,-0.1095537,-0.3457873,1.65451,0.2603915,-0.04767641,1.391107,0.09624346,0.5023847,1.78397,-0.06408914,-0.3436186,1.620133,0.2033604,-0.026993,1.294,0.07807723,0.03526101,1.790137,0.07687761,-0.2890229,1.766571,-0.09655461,0.2123972,1.771387,-0.004588819,-0.281534,1.726509,-0.1273295,-0.04731864,1.763435,0.3146255,-0.001826984,1.780054,NA,NA,NotTracked,Unknown,
0.8925781,-0.4360352,0.1582031,0.4335938,1.083008,0.2504883,-1,-2,-2,-2,-1,0,-2,-1,-3,8,3,-3,-1,-1,1,-1,-4.5,-4.5,-4.5,-31.0625,-31.0625,-31.0625,2.973363,3.186196,6.678581,6.779661,4.198641,2.034183,-0.1088914,-0.4023805,1.623992,0.2603797,-0.1352557,1.415262,0.09560706,0.5027744,1.783645,-0.06226866,-0.3832983,1.602469,0.2345649,-0.1773403,1.39725,0.07832612,0.03540985,1.789798,0.07687878,-0.2890081,1.766557,-0.0969688,0.2125456,1.770808,-0.004540507,-0.2814473,1.726303,-0.1263865,-0.04780146,1.763591,0.3122083,-0.002447804,1.784293,NA,NA,NotTracked,Unknown,
0.8862305,-0.4106445,0.1171875,0.7749023,1.031738,0.3974609,1,-1,0,-1,-1,-2,-1,0,0,0,-5,-1,-1,-2,-10,-7,4.125,4.125,4.125,-27.375,-27.375,-27.375,2.971128,3.187769,6.682762,6.74328,3.922839,2.045819,-0.1070439,-0.3563065,1.647751,0.2545186,-0.2136261,1.446462,0.09545814,0.502952,1.78331,-0.05729549,-0.3510374,1.615617,0.2225827,-0.2573873,1.432,0.07848457,0.03546402,1.789349,0.07649389,-0.2889441,1.766436,-0.09730293,0.2126907,1.770271,-0.00500603,-0.2811988,1.72596,-0.125339,-0.04837901,1.763433,0.3422635,-0.06863074,1.745357,NA,NA,NotTracked,Unknown,
0.8862305,-0.4106445,0.1171875,0.7749023,1.031738,0.3974609,1,-1,0,-1,-1,-2,-1,0,0,-2,1,-2,0,-2,1,0,4.125,4.125,4.125,-27.375,-27.375,-27.375,2.971128,3.187769,6.682762,6.74328,3.922839,2.045819,-0.1071264,-0.3950699,1.627152,0.2579636,-0.2698708,1.490853,0.09526651,0.5031961,1.782852,-0.05971971,-0.3779201,1.60539,0.2048169,-0.3000665,1.4748,0.07888791,0.0354862,1.788929,0.07649017,-0.2889473,1.766421,-0.09744136,0.2128517,1.769792,-0.005014973,-0.2810971,1.72576,-0.1243724,-0.04947962,1.763116,0.3028327,-0.03411542,1.784595,NA,NA,NotTracked,Unknown,
0.8745117,-0.3613281,0.09326172,0.878418,0.996582,0.3173828,-2,-1,-1,0,0,-2,0,-1,1,3,3,3,0,1,-3,0,-13.75,-13.75,-13.75,-42.3125,-42.3125,-42.3125,2.957612,3.182475,6.688341,6.698621,3.691317,2.043584,-0.1069105,-0.3651908,1.643684,0.2523731,-0.3252223,1.524031,0.09524785,0.5033102,1.782653,-0.05956815,-0.3674451,1.60932,0.1982685,-0.360017,1.529833,0.07947128,0.0354925,1.788548,0.07671456,-0.288993,1.766397,-0.0975722,0.2129162,1.769487,-0.004691139,-0.2810119,1.725504,-0.1241109,-0.04905932,1.762852,0.3018891,-0.03703878,1.78558,NA,NA,NotTracked,Unknown,
0.9204102,-0.4204102,0.1044922,0.8364258,0.6953125,0.4125977,-2,0,2,-2,-1,0,-2,-2,-3,-4,-3,-1,-2,0,-1,-5,-9.4375,-9.4375,-9.4375,-61.125,-61.125,-61.125,2.936508,3.182376,6.694596,6.631957,3.509274,2.048866,-0.1074473,-0.3593739,1.645638,0.2522874,-0.3577096,1.557266,0.09522702,0.5034174,1.782283,-0.05959158,-0.3674521,1.60944,0.2120937,-0.360983,1.589632,0.08026879,0.03530376,1.787956,0.07715497,-0.2892047,1.766293,-0.09764258,0.2129993,1.769088,-0.004241492,-0.2811367,1.725263,-0.1239266,-0.04872192,1.762532,0.2992444,-0.04647303,1.785582,NA,NA,NotTracked,Unknown,
0.9145508,-0.328125,0.08349609,0.9404297,0.5004883,0.3818359,0,-1,-1,0,-2,-1,1,-1,-3,-1,0,0,-1,-1,-1,-4,-0.375,-0.375,-0.375,-5.25,-5.25,-5.25,2.9347,3.180953,6.696011,6.624438,3.359213,2.025205,-0.1066145,-0.3559075,1.646542,0.2502872,-0.3785065,1.594377,0.09553435,0.5033631,1.781319,-0.05794322,-0.3543361,1.61313,0.2175784,-0.3476017,1.639253,0.08126882,0.03524886,1.787338,0.07779602,-0.2893621,1.766191,-0.09767494,0.2130291,1.768684,-0.003545182,-0.2813251,1.725015,-0.1236056,-0.04819731,1.762191,0.2972119,-0.05112273,1.786517,NA,NA,NotTracked,Unknown,
0.8984375,-0.3764648,0.1181641,0.9580078,0.5649414,0.2719727,-2,-2,1,0,-1,-3,-1,-1,-1,-1,0,-2,-1,-2,-2,-2,-11.125,-11.125,-11.125,19.125,19.125,19.125,2.926316,3.176802,6.693176,6.652486,3.253251,2.016445,-0.106691,-0.3552723,1.648093,0.2507025,-0.3901305,1.623111,0.09589337,0.503338,1.780675,-0.05900723,-0.3530464,1.616185,0.205465,-0.3563572,1.634839,0.08213861,0.03503593,1.786985,0.07906608,-0.2899327,1.766343,-0.09766819,0.2130588,1.76835,-0.002319514,-0.2819399,1.724998,-0.1228044,-0.0491438,1.761942,0.2952999,-0.05441565,1.787623,NA,NA,NotTracked,Unknown,
0.9086914,-0.3803711,0.1293945,0.9233398,0.3964844,0.2045898,0,-2,-3,1,-2,-2,-1,-1,-1,-2,0,0,-1,0,-1,-2,-2.375,-2.375,-2.375,24.0625,24.0625,24.0625,2.922301,3.172916,6.692768,6.65917,3.172912,2.036427,-0.1065841,-0.3534352,1.648657,0.2519998,-0.4111376,1.653428,0.09674041,0.5035986,1.778815,-0.05740688,-0.338813,1.622033,0.2013553,-0.361709,1.63197,0.08405177,0.03488199,1.786304,0.08148067,-0.2904381,1.766786,-0.09393369,0.2124903,1.76806,0.0001403882,-0.2826491,1.725354,-0.1214499,-0.05067858,1.761174,0.2916846,-0.05940818,1.789751,NA,NA,NotTracked,Unknown,
0.9213867,-0.3974609,0.1342773,0.9052734,0.6108398,0.07519531,1,-1,-2,0,-1,0,-1,-2,1,-1,-1,-1,-1,0,0,-1,-2.3125,-2.3125,-2.3125,22.8125,22.8125,22.8125,2.919609,3.169061,6.694132,6.74531,3.118357,1.981347,-0.1062263,-0.3547426,1.648807,0.2534446,-0.4164317,1.664344,0.09713259,0.5040691,1.77809,-0.05791576,-0.3496332,1.617169,0.2027973,-0.3792973,1.63441,0.08471584,0.03504493,1.786197,0.08245265,-0.2902864,1.767157,-0.0942547,0.2127988,1.767547,0.001148971,-0.2826198,1.725694,-0.1211298,-0.04980875,1.761099,0.2906656,-0.06013704,1.790187,NA,NA,NotTracked,Unknown,
0.9086914,-0.3959961,0.1005859,0.8979492,0.4638672,0.1103516,2,0,-1,-2,2,-1,-2,-1,1,-1,-1,0,-2,0,-1,-1,1.1875,1.1875,1.1875,-99.6875,-99.6875,-99.6875,2.920734,3.167863,6.693618,6.848576,3.101024,1.797213,-0.106067,-0.3526632,1.649219,0.2536335,-0.4182148,1.668124,0.09793301,0.5041841,1.777033,-0.05812769,-0.3462588,1.618087,0.2033231,-0.3966157,1.637444,0.08549794,0.03504817,1.785917,0.08346733,-0.2902872,1.767498,-0.09445988,0.2129167,1.767024,0.002288506,-0.2827578,1.726022,-0.1210149,-0.0487033,1.760567,0.2892106,-0.06136264,1.790248,NA,NA,NotTracked,NotTracked,
0.9072266,-0.3916016,0.09570313,0.9423828,0.2607422,0.1435547,-2,0,-1,-1,-2,-1,-1,-1,0,-2,0,-2,-1,0,1,0,-7.125,-7.125,-7.125,-19.3125,-19.3125,-19.3125,2.914739,3.16752,6.691829,6.889168,3.083937,1.684562,-0.1058661,-0.3526947,1.650222,0.2537037,-0.4195403,1.668256,0.09859896,0.5040979,1.775919,-0.0582886,-0.3447596,1.619223,0.2032743,-0.3893887,1.635313,0.08603577,0.03495394,1.785775,0.08443934,-0.2906317,1.767809,-0.09165144,0.2124202,1.766807,0.003223263,-0.2831451,1.726384,-0.12077,-0.04787411,1.760445,0.2876714,-0.06230237,1.79067,NA,NA,NotTracked,NotTracked,
0.9169922,-0.3964844,0.1079102,0.8916016,0.3588867,0.1015625,0,-1,-1,-2,-1,-1,-2,-2,0,0,-1,-1,-2,-2,-2,0,-6.9375,-6.9375,-6.9375,-1.125,-1.125,-1.125,2.911685,3.167384,6.691057,6.952879,3.1002,1.615645,-0.1054583,-0.3545598,1.649911,0.2545876,-0.4220029,1.666248,0.09937565,0.5038379,1.774863,-0.05746535,-0.3459674,1.620065,0.2037214,-0.3954646,1.6377,0.08695772,0.03473213,1.785706,0.08589569,-0.2910569,1.768528,-0.09064731,0.2127773,1.766259,0.004624265,-0.2837476,1.727088,-0.1198586,-0.04873276,1.760748,0.2853333,-0.06294278,1.79148,NA,NA,NotTracked,NotTracked,
0.918457,-0.3969727,0.1181641,0.8999023,0.347168,0.1376953,0,1,-1,-2,0,-1,-2,-2,-1,-2,-1,0,0,-2,-1,-1,-4.125,-4.125,-4.125,8.8125,8.8125,8.8125,2.906504,3.167706,6.688319,6.946584,3.104222,1.627131,-0.105524,-0.3526382,1.65053,0.2547276,-0.4237128,1.664149,0.09969574,0.5036693,1.774321,-0.05660656,-0.3396898,1.622753,0.2039023,-0.3874616,1.636642,0.08742987,0.03456284,1.785638,0.08666091,-0.2912886,1.768791,-0.08892646,0.2125771,1.766409,0.005355373,-0.2840106,1.727385,-0.1197449,-0.04846106,1.760661,0.2848119,-0.06313844,1.791584,NA,NA,NotTracked,NotTracked,
0.9204102,-0.3950195,0.1181641,0.9052734,0.3461914,0.1425781,-2,-4,0,-1,0,-2,-1,-2,-1,-1,-1,0,-1,-1,0,0,-2.8125,-2.8125,-2.8125,26.0625,26.0625,26.0625,2.904347,3.167866,6.687354,6.934668,3.101003,1.678533,-0.1059342,-0.3540965,1.650465,0.2548845,-0.4261205,1.661682,0.1001631,0.503391,1.77373,-0.05651387,-0.3415706,1.623403,0.2031736,-0.4100737,1.6381,0.0877803,0.03440266,1.785577,0.08718714,-0.2915891,1.768973,-0.08792689,0.2122145,1.766366,0.005833298,-0.2843499,1.727592,-0.1193857,-0.0492302,1.760655,0.2845083,-0.06320346,1.791737,NA,NA,NotTracked,NotTracked,
0.9199219,-0.3920898,0.109375,0.9042969,0.3349609,0.1391602,-1,-3,-1,1,-3,-1,0,0,0,-1,-1,1,-1,-2,0,0,-3.6875,-3.6875,-3.6875,26.8125,26.8125,26.8125,2.902561,3.1675,6.687304,6.934188,3.099434,1.694813,-0.1056924,-0.3511008,1.652055,0.2542079,-0.4284545,1.660749,0.1004818,0.5030549,1.773518,-0.05750125,-0.3632667,1.6146,0.2035664,-0.3977459,1.637207,0.08810988,0.03424779,1.785607,0.08746082,-0.291725,1.769096,-0.08664681,0.21197,1.76648,0.006079517,-0.2845146,1.72769,-0.1194122,-0.04887732,1.760734,0.2841958,-0.06335694,1.791884,NA,NA,NotTracked,NotTracked,
0.9111328,-0.3935547,0.1079102,0.9013672,0.3007813,0.1289063,-2,-2,1,-1,-1,-2,-2,0,-1,-1,-1,-1,-2,-2,-1,-2,-5.6875,-5.6875,-5.6875,16.5,16.5,16.5,2.899242,3.167244,6.687492,6.94288,3.105907,1.702948,-0.1061038,-0.3514743,1.651585,0.2537504,-0.4297526,1.65934,0.1008092,0.5029999,1.77319,-0.05693465,-0.3424178,1.620795,0.2042095,-0.3839096,1.635795,0.08835928,0.03419983,1.7856,0.08769057,-0.2917284,1.769204,-0.08819431,0.2123682,1.765871,0.006315389,-0.284534,1.727775,-0.1192592,-0.04931837,1.760627,0.2838953,-0.06371196,1.792036,NA,NA,NotTracked,NotTracked,
0.9111328,-0.3935547,0.1079102,0.940918,0.2866211,0.1391602,-2,-2,1,-1,-1,-2,-2,0,-1,-1,-1,-1,-2,-2,-1,-2,-5.6875,-5.6875,-5.6875,16,16,16,2.899242,3.167244,6.687492,6.950485,3.09749,1.70393,-0.1057467,-0.3513032,1.652297,0.2533425,-0.4299764,1.659783,0.1013963,0.5028173,1.772827,-0.05644187,-0.3447439,1.62069,0.2037317,-0.3942522,1.636929,0.08859169,0.03414896,1.785624,0.0878981,-0.2917462,1.769295,-0.08919329,0.2126152,1.765392,0.006508631,-0.2845691,1.727808,-0.1192834,-0.04907089,1.760478,0.2834875,-0.06404439,1.79208,NA,NA,NotTracked,NotTracked,
0.9116211,-0.3911133,0.1098633,0.9208984,0.3173828,0.0859375,0,-3,-1,-2,-1,-2,0,0,-1,-1,-1,-3,-2,-1,-3,0,-4.1875,-4.1875,-4.1875,16.125,16.125,16.125,2.888239,3.167879,6.686469,6.995908,3.090254,1.677147,-0.1058984,-0.348772,1.652045,0.2529612,-0.4313028,1.658798,0.1017354,0.5027723,1.772457,-0.05674404,-0.3380325,1.623,0.2026418,-0.398679,1.635919,0.08874603,0.03409007,1.785604,0.08812401,-0.2918294,1.769353,-0.08762482,0.2122293,1.765346,0.006722833,-0.2846377,1.727857,-0.1190248,-0.04978592,1.760251,0.2830525,-0.06443362,1.791792,NA,NA,NotTracked,NotTracked,
0.9208984,-0.3867188,0.1132813,0.918457,0.3168945,0.08740234,0,-1,-1,0,-1,0,-1,-1,0,-1,1,4,4,-1,-1,0,-2.5625,-2.5625,-2.5625,7.125,7.125,7.125,2.886557,3.166992,6.68701,7.008275,3.086954,1.66825,-0.1065181,-0.3487558,1.652666,0.2532783,-0.4333024,1.659328,0.1020071,0.5027487,1.772312,-0.05766827,-0.3364823,1.624138,0.2036393,-0.399285,1.637831,0.08896178,0.0340767,1.78558,0.08837209,-0.2918166,1.769407,-0.08650939,0.2121124,1.765458,0.006958836,-0.2846376,1.727867,-0.1190244,-0.049631,1.760217,0.2828772,-0.06461421,1.791699,NA,NA,NotTracked,NotTracked,
0.9135742,-0.378418,0.1025391,0.9140625,0.3320313,0.1162109,-1,-1,0,-1,-2,0,-2,-1,0,-1,-2,1,2,-2,-1,-2,0.3125,0.3125,0.3125,0.75,0.75,0.75,2.885085,3.166113,6.688375,6.985317,3.087626,1.693482,-0.1059581,-0.3481363,1.653439,0.2527251,-0.4327606,1.660181,0.1023206,0.5026948,1.772251,-0.05709368,-0.3412455,1.623304,0.2039141,-0.3924921,1.638088,0.08916385,0.03410368,1.785578,0.08854797,-0.2917588,1.76949,-0.08795032,0.2125024,1.764967,0.007141817,-0.284598,1.727907,-0.118859,-0.0499631,1.760079,0.2827838,-0.06477436,1.791625,NA,NA,NotTracked,NotTracked,
