ALX,ALY,ALZ,ARX,ARY,ARZ,EMG0L,EMG1L,EMG2L,EMG3L,EMG4L,EMG5L,EMG6L,EMG7L,EMG0R,EMG1R,EMG2R,EMG3R,EMG4R,EMG5R,EMG6R,EMG7R,GLX,GLY,GLZ,GRX,GRY,GRZ,ORL,OPL,OYL,ORR,OPR,OYR,LHNX,LHNY,LHNZ,RHNX,RHNY,RHNZ,HX,HY,HZ,LTX,LTY,LTZ,RTX,RTY,RTZ,SpineMidX,SpineMidY,SpineMidZ,SpineBaseX,SpineBaseY,SpineBaseZ,ShoulderLeftX,ShoulderLeftY,ShoulderLeftZ,ShoulderRightX,ShoulderRightY,ShoulderRightZ,ElbowLeftX,ElbowLeftY,ElbowLeftZ,ElbowRightX,ElbowRightY,ElbowRightZ,Myo_Pose_left,Myo_Pose_Right,Kinect_pose_left,Kinect_pose_right
0.9453125,-0.315918,0.03271484,0.9243164,0.2988281,0.09033203,-2,0,1,-2,-2,-3,-22,-3,1,0,-2,-2,-2,0,0,-1,4,4,4,-3.875,-3.875,-3.875,2.604736,3.029684,9.360242,7.039535,3.018623,2.009126,-0.1550693,-0.3889736,1.64698,0.208561,-0.3866531,1.649879,0.0425739,0.5289485,1.734281,-0.2029395,-0.3752758,1.646386,0.1568283,-0.3545015,1.626841,0.02883975,0.05385527,1.754279,0.0296108,-0.2766665,1.757911,-0.1398469,0.2371565,1.721872,-0.0511895,-0.2700273,1.716193,-0.1782507,-0.02391057,1.734213,0.2201568,-0.03725179,1.754324,NA,NA,NotTracked,NotTracked,
0.9443359,-0.3227539,0.03027344,0.921875,0.3046875,0.09179688,-4,-2,-2,-1,-1,-1,-3,-2,-1,-1,-1,-1,-1,-1,-1,0,2.75,2.75,2.75,-2.25,-2.25,-2.25,2.616101,3.031708,9.354571,7.035558,3.020387,2.010247,-0.1542401,-0.394515,1.645258,0.2081429,-0.386472,1.649491,0.04250539,0.5289281,1.734197,-0.1988819,-0.3966513,1.637969,0.1567659,-0.3523581,1.627218,0.02882175,0.05385308,1.754263,0.0296041,-0.2766573,1.757908,-0.1398864,0.2371531,1.721905,-0.05119882,-0.2700233,1.716174,-0.1782476,-0.02393303,1.734212,0.2201166,-0.03730814,1.754333,NA,NA,NotTracked,NotTracked,
0.9399414,-0.3237305,0.03564453,0.9204102,0.3085938,0.1005859,-2,4,-1,-1,0,2,9,0,-2,0,-2,-1,-1,-1,-1,-1,2.8125,2.8125,2.8125,-3.375,-3.375,-3.375,2.619007,3.031914,9.353189,7.029871,3.023597,2.012555,-0.1544316,-0.3942117,1.645107,0.2083753,-0.3864582,1.649284,0.04244762,0.5289379,1.734121,-0.2008192,-0.4159254,1.644722,0.1567811,-0.3530826,1.627108,0.02881834,0.05384875,1.754258,0.02960304,-0.2766539,1.757911,-0.1399127,0.2371606,1.721931,-0.05119684,-0.2700214,1.716171,-0.1782525,-0.02404439,1.734209,0.2200482,-0.03740085,1.75446,NA,NA,NotTracked,NotTracked,
0.9414063,-0.324707,0.03662109,0.9213867,0.3027344,0.1025391,-1,-6,-2,-1,-2,-3,6,-4,-1,-1,-1,-1,-2,0,0,-1,5.0625,5.0625,5.0625,-2.875,-2.875,-2.875,2.627586,3.033741,9.349447,7.024924,3.026057,2.01403,-0.1549783,-0.3888668,1.645739,0.2151156,-0.3598625,1.658228,0.04236219,0.5289004,1.734069,-0.2031821,-0.3665945,1.643091,0.1653567,-0.3345508,1.632625,0.02878755,0.05379767,1.754174,0.02959455,-0.2766571,1.7579,-0.139903,0.2371582,1.721952,-0.05120259,-0.2700217,1.716155,-0.1782327,-0.02416889,1.734205,0.219904,-0.03766055,1.754543,NA,NA,NotTracked,NotTracked,
0.9360352,-0.3242188,0.04296875,0.9257813,0.3022461,0.09375,2,0,-1,-2,-2,-1,-16,-2,2,-1,-1,-2,0,0,0,0,5.8125,5.8125,5.8125,-1.9375,-1.9375,-1.9375,2.64561,3.036282,9.341333,7.024005,3.02736,2.012397,-0.1554535,-0.3889794,1.646381,0.2146148,-0.3604744,1.658428,0.04228844,0.5287066,1.734,-0.2001246,-0.4013632,1.6412,0.164761,-0.3217016,1.635135,0.02877376,0.05375421,1.754156,0.02959377,-0.2766717,1.757897,-0.1399299,0.2371406,1.721978,-0.05119993,-0.2700441,1.716147,-0.1782422,-0.02448866,1.734279,0.2197978,-0.03781236,1.754675,NA,NA,NotTracked,NotTracked,
0.9438477,-0.3286133,0.04492188,0.9228516,0.300293,0.09521484,-6,-12,-5,-1,-1,0,0,-6,0,0,-2,0,-1,-1,0,-1,4.375,4.375,4.375,-1.3125,-1.3125,-1.3125,2.650273,3.036887,9.339148,7.025184,3.029858,2.008892,-0.1551429,-0.3948092,1.645525,0.2087174,-0.3864616,1.650264,0.04216352,0.5286714,1.734016,-0.1993746,-0.4072684,1.639609,0.1579373,-0.3487882,1.628823,0.02874165,0.05369636,1.75417,0.02956081,-0.2767001,1.757927,-0.1401217,0.2370023,1.722269,-0.05123425,-0.2700772,1.716165,-0.178301,-0.02455486,1.734331,0.2195276,-0.03843501,1.755194,NA,NA,NotTracked,NotTracked,
0.9438477,-0.3286133,0.04492188,0.921875,0.3046875,0.09667969,-1,4,4,-1,-1,-1,6,1,-1,-1,-1,-2,-2,0,0,0,4.375,4.375,4.375,-1.5,-1.5,-1.5,2.650273,3.036887,9.339148,7.024955,3.030184,2.00824,-0.1519374,-0.4111009,1.641781,0.2082529,-0.3868417,1.650274,0.04211095,0.5286999,1.734029,-0.1999549,-0.39903,1.639967,0.1558563,-0.3801571,1.6248,0.02871527,0.05368298,1.754179,0.02955071,-0.2766839,1.757943,-0.1401824,0.2370439,1.72234,-0.0512404,-0.2700636,1.716166,-0.178359,-0.02457854,1.734411,0.2194086,-0.03846893,1.755334,NA,NA,NotTracked,NotTracked,
0.9399414,-0.3256836,0.04589844,0.9199219,0.309082,0.1010742,1,0,3,-1,-1,-1,9,1,-2,-1,0,1,-2,0,-1,-1,-0.25,-0.25,-0.25,-1.375,-1.375,-1.375,2.662001,3.038622,9.333688,7.022612,3.030941,2.009087,-0.1530158,-0.4032955,1.643318,0.2088887,-0.3866383,1.649161,0.04208942,0.5287193,1.734038,-0.200622,-0.4165408,1.639462,0.1573918,-0.3593531,1.627869,0.02868633,0.05367716,1.754177,0.02955007,-0.2766719,1.75794,-0.1402499,0.2371041,1.722413,-0.05124027,-0.2700575,1.716151,-0.178408,-0.02455469,1.734402,0.2193161,-0.03863379,1.755482,NA,NA,NotTracked,NotTracked,
0.9472656,-0.3232422,0.04394531,0.9238281,0.3017578,0.1005859,-1,2,-2,-1,-1,0,2,-3,0,0,0,-1,-2,-1,0,-1,-2.375,-2.375,-2.375,-2.0625,-2.0625,-2.0625,2.661956,3.038671,9.332532,7.016234,3.031881,2.011459,-0.1554619,-0.3942024,1.645062,0.2087116,-0.3871893,1.649493,0.04200892,0.5287088,1.734074,-0.2008742,-0.3961223,1.643642,0.1581919,-0.3595149,1.626372,0.02867223,0.05366454,1.754179,0.02954913,-0.2766708,1.757942,-0.1402641,0.23711,1.722457,-0.05124137,-0.2700591,1.716152,-0.1784109,-0.02455376,1.734412,0.2192831,-0.0388046,1.755613,NA,NA,NotTracked,NotTracked,
0.9428711,-0.3237305,0.0390625,0.9238281,0.3041992,0.1040039,-1,9,4,0,1,0,2,0,-1,-1,-1,-3,-2,1,1,-2,-2.75,-2.75,-2.75,-1.0625,-1.0625,-1.0625,2.658804,3.037655,9.330636,7.015764,3.031917,2.011355,-0.1553686,-0.3949887,1.644369,0.2084559,-0.3858518,1.649502,0.04198203,0.5287092,1.734082,-0.1978171,-0.4167126,1.630571,0.1577544,-0.3408428,1.629615,0.02864487,0.05365501,1.754194,0.02954282,-0.2766715,1.757943,-0.1402662,0.2370969,1.722498,-0.05125179,-0.2700666,1.716144,-0.1784127,-0.02451778,1.734433,0.2192225,-0.03886212,1.755706,NA,NA,NotTracked,NotTracked,
0.9423828,-0.3261719,0.05175781,0.9194336,0.3144531,0.1005859,-2,-19,-5,-2,0,-2,-10,1,-1,0,-2,-1,-1,-1,-1,-1,-1.25,-1.25,-1.25,-1.9375,-1.9375,-1.9375,2.663643,3.036527,9.324063,7.017954,3.03329,2.007187,-0.1563181,-0.3880765,1.645848,0.2086661,-0.3868539,1.649631,0.04179111,0.5285916,1.73416,-0.2041554,-0.3642754,1.6495,0.157037,-0.3964741,1.626,0.02856223,0.05360404,1.7542,0.02951692,-0.2766744,1.757949,-0.1403935,0.2371035,1.722606,-0.05127589,-0.2700702,1.716138,-0.1785098,-0.02463103,1.734593,0.218979,-0.03898016,1.75602,NA,NA,NotTracked,NotTracked,
0.9370117,-0.3276367,0.04589844,0.9179688,0.3154297,0.1069336,-4,3,4,-8,-3,-2,-4,-4,0,0,0,-1,-2,0,-1,-1,-0.6875,-0.6875,-0.6875,-3.125,-3.125,-3.125,2.663662,3.03616,9.323791,7.01521,3.034868,2.006498,-0.1563042,-0.3878018,1.645927,0.2081347,-0.3867301,1.649909,0.041693,0.5285972,1.734248,-0.201823,-0.4092711,1.645857,0.1567188,-0.3504096,1.62882,0.02852903,0.05357531,1.754204,0.02951356,-0.2766755,1.757953,-0.1404623,0.2370871,1.722721,-0.05127583,-0.2700725,1.71614,-0.1785158,-0.02461976,1.734602,0.2188024,-0.03924327,1.756232,NA,NA,NotTracked,NotTracked,
0.9384766,-0.3222656,0.04052734,0.9223633,0.3134766,0.1166992,3,49,-10,4,-3,-1,-1,-6,0,-1,-1,0,-2,-2,-3,-1,-1,-1,-1,-2.3125,-2.3125,-2.3125,2.664385,3.036279,9.3233,7.012788,3.035662,2.007555,-0.1564288,-0.3881511,1.645421,0.2087917,-0.3867154,1.649746,0.04158936,0.5285543,1.734412,-0.2025698,-0.380975,1.64615,0.1573192,-0.3530412,1.628319,0.02834251,0.05346569,1.754227,0.02948817,-0.2767055,1.757945,-0.1405539,0.2370965,1.722773,-0.05131013,-0.2701097,1.716109,-0.1785683,-0.02460742,1.734546,0.2186262,-0.03952907,1.756536,NA,NA,NotTracked,NotTracked,
0.9418945,-0.3295898,0.05175781,0.9291992,0.3046875,0.08056641,-4,-35,-1,-3,0,-4,-2,-2,0,-1,1,-2,0,1,2,-1,-2.3125,-2.3125,-2.3125,-5.75,-5.75,-5.75,2.664845,3.035761,9.321491,7.001931,3.039043,2.012822,-0.1563341,-0.3877343,1.646583,0.2078392,-0.3868426,1.649711,0.04151256,0.528451,1.734494,-0.2043756,-0.3644826,1.653592,0.1566265,-0.3580232,1.62784,0.02828371,0.05338959,1.754241,0.02946655,-0.2767197,1.757939,-0.1405901,0.2370397,1.722816,-0.05133839,-0.2701291,1.716064,-0.1785909,-0.0246598,1.734566,0.2183821,-0.03968016,1.756789,NA,NA,NotTracked,NotTracked,
0.9487305,-0.3325195,0.05566406,0.9248047,0.3110352,0.08691406,-15,12,-7,-5,11,2,2,-1,0,-5,-10,1,-1,-1,-2,1,-7.5,-7.5,-7.5,-6.3125,-6.3125,-6.3125,2.657155,3.036301,9.322652,6.985447,3.043481,2.026848,-0.156123,-0.3869524,1.646024,0.2083782,-0.3865455,1.649941,0.04142285,0.5284168,1.734592,-0.2016124,-0.3628161,1.642931,0.1566876,-0.3544072,1.628635,0.02824697,0.05334349,1.754243,0.02946743,-0.2767195,1.757941,-0.1406834,0.2370329,1.722923,-0.05133566,-0.2701344,1.716061,-0.1786132,-0.02471699,1.734551,0.218338,-0.03965437,1.756858,NA,NA,NotTracked,NotTracked,
0.9331055,-0.3769531,0.0234375,0.9248047,0.3110352,0.08691406,-15,12,-7,-5,11,2,2,-1,0,-5,-10,1,-1,-1,-2,1,-21.0625,-21.0625,-21.0625,-6.3125,-6.3125,-6.3125,2.620824,3.039046,9.337102,6.985447,3.043481,2.026848,-0.1522285,-0.3869166,1.644728,0.2077336,-0.3858661,1.649183,0.04134471,0.5284244,1.73476,-0.2031353,-0.345847,1.643917,0.1570025,-0.3557677,1.627594,0.02822901,0.05333714,1.754262,0.02946613,-0.2767192,1.75794,-0.140844,0.2370571,1.723044,-0.05133571,-0.2701358,1.716051,-0.1786225,-0.02472044,1.734545,0.2183326,-0.0396819,1.756915,NA,NA,NotTracked,NotTracked,
1.024902,-0.6938477,0.1245117,0.9213867,0.3261719,0.1103516,-6,-48,-9,-20,-8,-2,-3,0,0,-1,1,1,0,4,1,0,-1.4375,-1.4375,-1.4375,-6.375,-6.375,-6.375,2.720444,3.066577,9.226289,6.933881,3.066477,2.074622,-0.1501823,-0.3847496,1.641842,0.2069321,-0.3853326,1.647092,0.04123837,0.528456,1.734922,-0.1980957,-0.3524403,1.637684,0.1568014,-0.3574548,1.628189,0.02822861,0.05334407,1.754257,0.02950846,-0.276669,1.757868,-0.1409086,0.2371159,1.723078,-0.05127473,-0.2700691,1.715885,-0.1792092,-0.02373518,1.734019,0.2186286,-0.03796892,1.757021,NA,NA,NotTracked,NotTracked,
0.8955078,-0.5751953,0.215332,1.013672,0.3476563,0.1669922,4,-15,13,-31,-19,-5,-4,-5,1,-2,-2,-2,-2,-4,-6,-3,8,8,8,10.3125,10.3125,10.3125,2.81756,3.0962,9.128703,6.830985,3.122016,2.19193,-0.1440019,-0.3781675,1.635457,0.2053377,-0.3837367,1.644817,0.04112867,0.5284962,1.735119,-0.1984628,-0.3222246,1.63164,0.156487,-0.3542424,1.626921,0.02823341,0.05333973,1.754259,0.02967918,-0.2766654,1.757788,-0.1429574,0.2361102,1.720818,-0.05111003,-0.2701443,1.715836,-0.1794912,-0.02345486,1.733745,0.2187773,-0.03818178,1.757323,NA,NA,NotTracked,NotTracked,
0.8740234,-0.3984375,0.1503906,0.9990234,0.3886719,0.2128906,-10,14,13,-21,17,2,-2,-3,0,6,2,-1,0,2,0,-1,-38.75,-38.75,-38.75,12.6875,12.6875,12.6875,2.93589,3.170567,8.975868,6.779199,3.149721,2.25547,-0.1372003,-0.3581062,1.623261,0.2022232,-0.387967,1.638846,0.04106874,0.5284758,1.735279,-0.185565,-0.3388471,1.601706,0.1521487,-0.3789974,1.622312,0.02825461,0.05334621,1.754262,0.03002874,-0.2765099,1.757575,-0.1429267,0.23617,1.721013,-0.05084321,-0.2700709,1.715687,-0.1803776,-0.02006226,1.732249,0.2189225,-0.03813497,1.757682,NA,NA,NotTracked,NotTracked,
0.7944336,-0.8754883,0.5405273,0.9755859,0.4360352,0.2587891,2,-14,-9,-10,5,0,-19,-2,3,-4,-4,1,-3,0,0,1,-38.1875,-38.1875,-38.1875,24.9375,24.9375,24.9375,3.011451,3.236567,8.873692,6.696117,3.222938,2.373935,-0.132944,-0.336412,1.607679,0.1979263,-0.3798689,1.631845,0.04083972,0.5284751,1.73603,-0.1749028,-0.3139604,1.570306,0.1513321,-0.3344637,1.623292,0.02828717,0.05335253,1.754269,0.03061719,-0.2762918,1.757372,-0.142985,0.2362243,1.72119,-0.05040812,-0.2699805,1.715542,-0.1813281,-0.01893071,1.72959,0.2192595,-0.03808351,1.758052,NA,NA,NotTracked,NotTracked,
1.05127,-0.6660156,0.4414063,0.9536133,0.5483398,0.3452148,6,15,-1,11,-30,-3,-2,-4,-5,-9,-3,-2,-2,7,-3,-16,-5.4375,-5.4375,-5.4375,19.125,19.125,19.125,3.205474,3.499797,8.637528,6.618911,3.326667,2.494187,-0.1153896,-0.339791,1.558523,0.19831,-0.3506485,1.632171,0.04067935,0.528373,1.736828,-0.09644702,-0.3302055,1.502779,0.1783995,-0.4029762,1.563175,0.02840869,0.0533552,1.754328,0.03165853,-0.276098,1.757113,-0.1429186,0.2362193,1.721463,-0.04970269,-0.2700391,1.715307,-0.18252,-0.01639452,1.725499,0.219864,-0.03736845,1.759341,NA,NA,Unknown,NotTracked,
1.05127,-0.6660156,0.4414063,0.9404297,0.4619141,0.3173828,-1,-17,-13,4,-24,0,-3,-2,-28,-8,-4,2,-3,-4,8,1,-5.4375,-5.4375,-5.4375,44.875,44.875,44.875,3.205474,3.499797,8.637528,6.600167,3.450704,2.564626,-0.08132785,-0.2728153,1.467409,0.1707856,-0.3669002,1.585733,0.03985286,0.5283992,1.739081,-0.04650153,-0.2487707,1.428,0.1340246,-0.3490496,1.6144,0.02861885,0.05337366,1.754486,0.03306094,-0.2755063,1.756563,-0.1428081,0.2364355,1.722231,-0.04910444,-0.2700979,1.714917,-0.1841633,-0.01015564,1.714635,0.2224999,-0.03421995,1.761444,NA,NA,Unknown,Unknown,
0.6132813,-0.9023438,0.5385742,0.9555664,0.6791992,0.3666992,1,-2,0,-9,-4,-8,5,-10,-2,-7,-26,-6,29,0,0,2,-1.5625,-1.5625,-1.5625,44.875,44.875,44.875,3.357693,4.183169,8.326494,6.596651,3.605185,2.625713,-0.04538629,-0.2356481,1.420275,0.1715506,-0.3174586,1.587618,0.03952968,0.5283989,1.739886,-0.02326857,-0.1948648,1.4185,0.133433,-0.3016727,1.616364,0.02861708,0.05353606,1.754635,0.03311292,-0.2751097,1.756455,-0.1426933,0.2366051,1.722537,-0.04941771,-0.2699049,1.714795,-0.1865664,0.001806228,1.702691,0.2241826,-0.02878083,1.762077,NA,NA,Unknown,Closed,
0.5551758,-0.8608398,0.5429688,0.9262695,0.7895508,0.5415039,-1,-15,-18,-11,1,-3,-3,-11,16,13,-48,-7,-7,-1,-2,-1,-1.875,-1.875,-1.875,18.875,18.875,18.875,3.375183,4.322332,8.286046,6.555275,3.823792,2.710923,-0.01608404,-0.1859298,1.384796,0.163828,-0.2912703,1.572771,0.03845789,0.5287099,1.741829,-0.01611119,-0.1325971,1.376833,0.1622121,-0.3782472,1.538125,0.02800636,0.0539873,1.755339,0.03213835,-0.2740512,1.756731,-0.1423743,0.2372568,1.723108,-0.0510506,-0.2681191,1.71488,-0.1881512,0.01454293,1.693302,0.2252857,-0.02118283,1.762187,NA,NA,Unknown,Closed,
0.4111328,-0.7680664,0.503418,0.7680664,1.140625,0.6049805,2,-21,-21,1,1,-3,6,-12,2,-11,-40,-36,-1,-4,-1,-1,-24.6875,-24.6875,-24.6875,66.375,66.375,66.375,3.381002,4.582339,8.216028,6.598125,4.065656,2.766771,0.002455351,-0.1296366,1.364072,0.1482899,-0.2639483,1.532927,0.03772761,0.5289089,1.743669,0.005790264,-0.07164189,1.355857,0.1052003,-0.2635597,1.562222,0.02703477,0.05407936,1.756054,0.03039181,-0.2738626,1.756951,-0.1419379,0.2376179,1.723543,-0.05190267,-0.2673425,1.714865,-0.2062525,-0.0208721,1.633142,0.2267472,-0.01786882,1.76197,NA,NA,Unknown,Unknown,
0.2958984,-0.7563477,0.4931641,0.3945313,0.984375,0.6166992,0,12,4,3,4,0,-1,1,13,29,8,-26,3,8,8,2,-48.9375,-48.9375,-48.9375,0,0,0,3.34274,4.80969,8.152474,6.581789,4.376209,2.828824,0.01443526,-0.0793197,1.350106,0.1417747,-0.2110495,1.551175,0.03691178,0.5295749,1.746001,0.02433891,-0.0133096,1.33225,0.1498664,-0.310827,1.608467,0.02636912,0.05415824,1.756487,0.0287979,-0.274089,1.756612,-0.1414621,0.238302,1.723839,-0.05269589,-0.2666872,1.71419,-0.2103699,-0.01656535,1.627346,0.2283484,-0.01019022,1.760181,NA,NA,Unknown,Unknown,
0.2958984,-0.7563477,0.4931641,0.3945313,0.984375,0.6166992,0,12,4,3,4,0,-1,1,13,29,8,-26,3,8,8,2,-48.9375,-48.9375,-48.9375,0,0,0,3.34274,4.80969,8.152474,6.581789,4.376209,2.828824,0.02619119,-0.03325476,1.33741,0.1191765,-0.1613233,1.492486,0.03624804,0.529804,1.747575,0.0396774,0.0384404,1.308429,0.06323507,-0.1597165,1.4774,0.02602621,0.05468362,1.756914,0.02836793,-0.2731801,1.756535,-0.1405905,0.2393166,1.72384,-0.05269984,-0.2654844,1.713769,-0.2102983,0.00298783,1.614362,0.2296119,-0.0009344942,1.758589,NA,NA,Unknown,Unknown,
0.3037109,-0.7954102,0.6977539,0.1206055,0.9277344,0.6757813,6,24,0,33,3,-10,-19,-1,2,3,-83,-22,6,-12,-2,-1,-40.0625,-40.0625,-40.0625,11.8125,11.8125,11.8125,3.301496,4.994044,8.092292,6.571662,4.742025,2.890172,0.04240391,-0.004606106,1.336103,0.1006258,-0.09371925,1.460443,0.03592467,0.5304064,1.749621,0.04325383,0.07337859,1.305,0.07960369,-0.1200298,1.425111,0.0257304,0.05577214,1.756635,0.02837756,-0.2700256,1.756861,-0.1391918,0.2409729,1.723638,-0.05191717,-0.2621586,1.713313,-0.1893072,0.04310532,1.607409,0.2348782,0.01382671,1.753271,NA,NA,NotTracked,Unknown,
0.5322266,-0.5239258,0.7680664,-0.2915039,0.8129883,0.4731445,3,-9,-7,-6,5,6,-10,4,-2,-4,-14,-1,3,4,1,0,-46.125,-46.125,-46.125,4.1875,4.1875,4.1875,3.273944,5.119683,8.04617,6.58056,5.1517,2.944862,0.04462657,0.02876879,1.330945,0.080921,-0.03779161,1.43423,0.03580774,0.5305749,1.750452,0.07809263,-0.02875787,1.406167,0.06452155,-0.03731492,1.416,0.02559973,0.0569464,1.757342,0.02825183,-0.2662061,1.756677,-0.1375711,0.2436782,1.722696,-0.05132636,-0.258531,1.712291,-0.1860949,0.04528041,1.596821,0.2321034,0.01157408,1.729526,NA,NA,NotTracked,NotTracked,
-0.2304688,-0.7543945,0.06542969,-0.5834961,0.7353516,0.3999023,3,-22,-11,-6,2,0,2,-22,4,2,-7,-5,4,-1,-5,-8,-20.375,-20.375,-20.375,26,26,26,3.194059,5.265838,7.986941,6.609761,5.570889,2.9898,0.04831015,0.05966333,1.318795,0.09507613,-0.1289688,1.42296,0.03580223,0.5306247,1.752058,0.05628635,0.1387312,1.303143,0.07842898,-0.1269258,1.404837,0.02554092,0.05820316,1.757171,0.02858976,-0.2628332,1.75712,-0.1364172,0.2458847,1.722073,-0.05018692,-0.2549182,1.711032,-0.1856983,0.04600633,1.588803,0.2296497,0.01179739,1.71551,NA,NA,Unknown,NotTracked,
0.07958984,-0.7197266,0.46875,-0.5209961,0.7226563,0.4018555,-12,-14,-1,-9,-2,11,8,1,4,2,0,0,-1,4,2,-6,-18.125,-18.125,-18.125,52.1875,52.1875,52.1875,3.175357,5.334328,7.962223,6.735378,6.116101,3.063237,0.05385471,0.08070821,1.318472,0.07421992,-0.1744437,1.377481,0.03612655,0.5304925,1.753331,0.06985295,0.1333483,1.4158,0.05789255,-0.1715313,1.359433,0.02579269,0.0600518,1.757003,0.02961305,-0.2581559,1.757554,-0.1348836,0.2471526,1.72123,-0.04783246,-0.2496094,1.708463,-0.1862705,0.04675542,1.574615,0.2110785,-0.03201753,1.666659,NA,NA,Unknown,Unknown,
-0.1176758,-0.7871094,0.3979492,-0.5683594,0.6669922,0.3300781,-4,-3,4,9,-1,-4,0,-24,3,3,0,1,1,3,2,-6,-13.25,-13.25,-13.25,19,19,19,3.147726,5.407402,7.936729,6.821904,6.403497,3.141483,0.06090619,0.1120655,1.316213,0.07172959,-0.1583083,1.359924,0.03625346,0.5294042,1.757537,0.0589364,0.1837857,1.309545,0.0554282,-0.1556412,1.341844,0.02480583,0.06448236,1.759425,0.03055679,-0.2534229,1.757824,-0.1354831,0.2500748,1.71804,-0.04631228,-0.245964,1.70776,-0.1810315,0.05528274,1.55435,0.2086095,-0.01577268,1.649076,NA,NA,Unknown,Unknown,
-0.1303711,-0.815918,0.4033203,-0.4575195,0.5073242,0.3710938,-5,-17,-1,-5,0,5,22,8,-4,-3,-4,-1,-2,-2,0,2,-6.25,-6.25,-6.25,18.1875,18.1875,18.1875,3.143751,5.423655,7.927578,6.921029,6.622258,3.239502,0.06316111,0.1227104,1.314897,0.06760074,-0.1402473,1.335576,0.03620551,0.5296689,1.758496,0.05943222,0.1972888,1.306818,0.05134959,-0.1378546,1.317464,0.02482236,0.06420549,1.759378,0.03065429,-0.2597382,1.755983,-0.1373735,0.2483898,1.715901,-0.04763703,-0.2527664,1.709849,-0.1767534,0.05772568,1.549729,0.2045085,0.002420537,1.624701,NA,NA,Unknown,Unknown,
-0.2617188,-0.8076172,0.3496094,-0.3525391,0.3911133,0.2583008,2,2,-4,-5,1,1,4,9,-5,-1,0,1,-2,2,-2,5,-7.875,-7.875,-7.875,20.0625,20.0625,20.0625,3.138018,5.442682,7.92113,7.025357,6.760658,3.339524,0.06844042,0.1305697,1.314792,0.0653901,-0.1267768,1.318986,0.03614025,0.5294675,1.758724,0.05899104,0.2034271,1.310417,0.04916317,-0.1245988,1.300851,0.0250758,0.06354232,1.759181,0.03012825,-0.2639362,1.754355,-0.138274,0.2476791,1.714676,-0.04898273,-0.2565579,1.710213,-0.1756515,0.05770391,1.547857,0.2023196,0.01598715,1.608086,NA,NA,Unknown,Unknown,
-0.2822266,-0.8530273,0.4780273,-0.3989258,0.3676758,0.230957,-14,-42,5,-17,-2,-3,26,11,4,-3,-1,-3,-14,-38,-1,2,-10.125,-10.125,-10.125,15.3125,15.3125,15.3125,3.133102,5.461952,7.908948,7.066263,6.801666,3.377721,0.0729956,0.1377907,1.317439,0.06525028,-0.1193281,1.310075,0.03619747,0.5294011,1.759258,0.06334805,0.2166767,1.3145,0.04901718,-0.117272,1.291929,0.02536419,0.06303996,1.759332,0.02996773,-0.2650002,1.754057,-0.1345955,0.2535284,1.715869,-0.04960804,-0.2576777,1.71092,-0.1749608,0.05846911,1.544343,0.2021959,0.02348849,1.599159,NA,NA,Unknown,Unknown,
0.2431641,-0.7524414,0.7192383,-0.503418,0.378418,0.2080078,13,-7,-5,12,0,10,3,6,-1,-2,-1,-1,0,5,6,-6,-3.0625,-3.0625,-3.0625,14.5625,14.5625,14.5625,3.134477,5.487463,7.900712,7.082663,6.797645,3.38176,0.06135495,0.1370583,1.315131,0.06736758,0.1382502,1.315599,0.03629399,0.5291547,1.759738,0.03614973,0.1816073,1.3137,-0.0045511,0.1011585,1.309,0.02593588,0.06211159,1.75913,0.03003255,-0.2674316,1.752887,-0.1360059,0.2519234,1.714607,-0.05007847,-0.2602428,1.710885,-0.1747761,0.05901086,1.5431,0.2011927,0.03059396,1.588292,NA,NA,Unknown,NotTracked,
0.3984375,-0.6586914,0.5795898,-0.4726563,0.3847656,0.2094727,7,1,-7,14,3,3,10,6,0,-1,-2,-1,-4,-8,-18,-30,4.875,4.875,4.875,21.4375,21.4375,21.4375,3.160222,5.462658,7.908168,7.046452,6.75247,3.329317,0.06537811,0.1484996,1.32181,0.06401668,0.1478044,1.321482,0.03610552,0.529133,1.760229,0.03574938,0.1909872,1.3158,-0.005796614,0.1103909,1.3055,0.02613948,0.06021615,1.757385,0.03007095,-0.271217,1.751451,-0.1381523,0.2496738,1.713099,-0.05063459,-0.2641627,1.711634,-0.1779684,0.05822268,1.538138,0.2007589,0.03626941,1.577832,NA,NA,NotTracked,NotTracked,
-0.5126953,-0.9765625,0.6953125,-0.5102539,0.4697266,0.2753906,-6,-12,3,-7,1,3,-4,-3,-2,-1,-2,0,10,10,7,17,4.6875,4.6875,4.6875,-4,-4,-4,3.189732,5.473174,7.912324,6.933175,6.589863,3.193999,0.06482828,0.1534119,1.324163,0.06461637,0.1531958,1.32501,0.03564219,0.5294141,1.760799,0.03855029,0.2056898,1.322875,-0.0009879092,0.112143,1.312333,0.02595763,0.05973098,1.757188,0.02979588,-0.2730622,1.750735,-0.1390193,0.2489085,1.712376,-0.05128369,-0.2657487,1.711622,-0.1768023,0.05659099,1.536229,0.2002633,0.03559398,1.578083,NA,NA,NotTracked,NotTracked,
0.3012695,-0.7192383,0.7353516,-0.6235352,0.4838867,0.2675781,-1,12,2,-20,-6,-9,-20,-6,-3,-3,-3,-4,-1,-7,-7,-4,9.625,9.625,9.625,-21.5,-21.5,-21.5,3.199937,5.494209,7.908797,6.810156,6.312831,3.071046,0.06428641,0.158413,1.327955,0.06139586,0.1594836,1.328704,0.0353309,0.5294703,1.761204,0.03235332,0.199697,1.321214,0.008202989,0.115684,1.311857,0.02509888,0.05807707,1.755576,0.02925498,-0.2759023,1.750115,-0.1401175,0.2482663,1.711848,-0.05221783,-0.2682006,1.711803,-0.1768271,0.05694626,1.537678,0.1994638,0.03326651,1.5789,NA,NA,NotTracked,NotTracked,
-0.3847656,-0.8671875,0.3901367,-0.4155273,0.4799805,0.2231445,13,2,-1,5,0,3,4,-7,-7,-2,-3,-3,2,24,-18,-14,21.125,21.125,21.125,-34.5625,-34.5625,-34.5625,3.222789,5.541022,7.895448,6.717428,5.957936,2.984198,0.08328866,0.1773102,1.341961,0.05600167,0.1710484,1.341857,0.03497395,0.5296277,1.76191,0.08858696,0.2362867,1.418,0.1244164,0.1593753,1.311027,0.02425775,0.05724287,1.754694,0.02891179,-0.2766816,1.749807,-0.1410969,0.2477715,1.711442,-0.05268024,-0.269024,1.711501,-0.1761991,0.05572625,1.538577,0.1987296,0.03016703,1.579867,NA,NA,NotTracked,NotTracked,
-0.4243164,-0.8461914,0.4111328,-0.1923828,0.7255859,0.4003906,6,-3,46,0,-4,-6,-23,-2,0,-5,-9,3,3,18,1,3,14.75,14.75,14.75,-71.125,-71.125,-71.125,3.231079,5.561605,7.89616,6.632126,5.522795,2.949323,0.05184275,0.1701062,1.337858,0.06414361,0.1738023,1.338331,0.03483184,0.5295268,1.762414,0.03596885,0.2172984,1.33925,-0.002216352,0.1300123,1.312333,0.02272697,0.05613608,1.755469,0.02873836,-0.277467,1.749473,-0.1419383,0.2475327,1.711134,-0.052836,-0.2697548,1.711196,-0.1718174,0.03961017,1.529793,0.1996623,-0.002025289,1.606337,NA,NA,NotTracked,NotTracked,
-0.2719727,-0.496582,0.07080078,0.5429688,1.179199,0.6494141,-5,-16,-20,-15,0,-5,-1,4,-4,0,6,4,3,26,-15,-61,4.875,4.875,4.875,-41.9375,-41.9375,-41.9375,3.233436,5.610626,7.908192,6.556137,5.163983,2.903661,0.031996,0.1657965,1.342764,0.0480532,0.1652462,1.34411,0.03468934,0.5295499,1.762677,0.02355823,0.2229081,1.336231,-0.03099124,0.1358745,1.324143,0.02272617,0.05607859,1.755243,0.0287184,-0.2772899,1.749415,-0.1426451,0.2473122,1.710889,-0.0526328,-0.2693282,1.709699,-0.1721837,0.03890499,1.529436,0.2088906,-0.03055296,1.634257,NA,NA,NotTracked,NotTracked,
-0.6977539,-0.7070313,-0.6601563,0.02050781,1.802246,0.9882813,-8,-11,-18,9,0,-3,-6,2,5,1,0,2,-8,3,-6,-5,31.3125,31.3125,31.3125,29.1875,29.1875,29.1875,3.228429,5.600226,7.935919,6.646644,5.040122,2.84987,0.03063509,0.1565895,1.338869,-0.007822897,0.12789,1.350657,0.03428768,0.5293204,1.763226,0.02164531,0.2202695,1.328,-0.07672412,0.09360769,1.355059,0.02285768,0.05687226,1.755024,0.02960631,-0.2715943,1.749904,-0.1433598,0.2470219,1.710672,-0.04985679,-0.261782,1.702747,-0.1725231,0.03935369,1.530388,0.2104951,-0.0209221,1.647045,NA,NA,NotTracked,NotTracked,
0.1118164,-0.8896484,0.8535156,-0.3637695,0.6948242,0.3764648,-3,-1,23,37,18,9,11,2,1,10,7,6,3,-2,-6,14,-106.0625,-106.0625,-106.0625,-88.375,-88.375,-88.375,3.193238,5.510933,8.008354,6.552476,4.90865,2.909711,0.04057421,0.1498906,1.313963,0.07390948,-0.009246379,1.400357,0.03388141,0.5288956,1.763554,0.03044726,0.2263576,1.312546,0.04356761,0.013184,1.38175,0.02295168,0.05776919,1.7552,0.03005147,-0.2684269,1.749684,-0.1429116,0.2497968,1.711045,-0.0490176,-0.259329,1.70072,-0.2011221,0.07846561,1.55858,0.2182318,0.01479357,1.703005,NA,NA,NotTracked,NotTracked,
-0.5019531,-1.188965,0.3125,-0.4467773,0.6479492,0.6123047,-3,-5,-25,0,-5,-6,-59,-7,-5,-5,-2,-2,-2,-16,-8,-5,37.1875,37.1875,37.1875,-23.5,-23.5,-23.5,3.17955,5.472027,8.031598,6.481116,4.743918,2.950409,0.03795231,0.1413253,1.310278,0.07811538,-0.0489363,1.422448,0.03375846,0.5288398,1.763572,0.02119035,0.2132028,1.303455,0.04910868,-0.02877848,1.4144,0.02314826,0.05788709,1.754937,0.03008982,-0.2683334,1.749667,-0.1434403,0.248915,1.7107,-0.04896984,-0.2593037,1.700566,-0.1985684,0.07880305,1.55555,0.2216091,-0.02581593,1.690753,NA,NA,Unknown,NotTracked,
-0.2055664,-0.590332,0.7133789,0.2910156,1.274902,0.7207031,8,2,-10,-20,1,-4,22,8,-1,0,3,-2,-2,17,-5,-2,9.5625,9.5625,9.5625,63.125,63.125,63.125,3.247361,5.436415,8.077118,6.553748,4.563523,2.934962,0.03413778,0.1363303,1.308769,0.08423895,-0.07847088,1.444839,0.03366693,0.5288234,1.763565,0.01665358,0.2098856,1.3033,0.04335289,-0.073158,1.437,0.02331574,0.0579287,1.754612,0.03012997,-0.2682695,1.749619,-0.1439887,0.2479763,1.710244,-0.04886358,-0.2593339,1.700331,-0.1819874,0.04039995,1.530946,0.2308599,0.02823939,1.749766,NA,NA,Unknown,Unknown,
-0.4399414,-0.9599609,0.5561523,0.1860352,1.334961,0.4384766,-1,-3,7,-28,-6,2,-8,2,-5,-8,-5,-6,-10,-9,-6,-3,-4.375,-4.375,-4.375,3.5,3.5,3.5,3.251214,5.431566,8.098779,6.572111,4.524415,2.926158,0.03097732,0.1325571,1.30974,0.08723758,-0.1060083,1.456935,0.03343509,0.5287879,1.763363,0.0161683,0.2129882,1.302143,0.05461578,-0.09567308,1.4386,0.02336736,0.05803553,1.754363,0.0300238,-0.2680342,1.749593,-0.1433445,0.2495928,1.710396,-0.04890666,-0.2591254,1.700097,-0.1839333,0.05339627,1.545559,0.2646655,-0.01706893,1.7531,NA,NA,Unknown,Unknown,
-0.4399414,-0.9599609,0.5561523,0.1860352,1.334961,0.4384766,-1,-4,6,-1,4,0,3,-5,-5,-8,-5,-6,-10,-9,-6,-3,-4.375,-4.375,-4.375,3.5,3.5,3.5,3.251214,5.431566,8.098779,6.572111,4.524415,2.926158,0.02821328,0.1299054,1.309328,0.09365106,-0.126476,1.475841,0.03319431,0.5289914,1.763103,0.008362649,0.1996737,1.301417,0.08193745,-0.1000711,1.463444,0.02341995,0.05811835,1.754123,0.02997749,-0.2679812,1.749599,-0.143915,0.2482533,1.709841,-0.04891726,-0.2591229,1.700014,-0.1845351,0.04330919,1.541023,0.2659172,-0.01661048,1.755119,NA,NA,Unknown,Unknown,
-0.3149414,-0.8491211,0.581543,0.1552734,0.753418,0.7036133,7,0,-2,12,0,16,32,7,0,-1,-2,1,4,19,-7,-1,29.6875,29.6875,29.6875,-4,-4,-4,3.292424,5.421936,8.111898,6.501469,4.433893,2.948837,0.02723878,0.1292432,1.310127,0.09819484,-0.1401842,1.501016,0.0328192,0.5289116,1.762586,0.01305821,0.2075844,1.300451,0.1523638,-0.1064521,1.522278,0.02344649,0.05825276,1.75393,0.02976423,-0.2675987,1.749711,-0.1432096,0.2496464,1.709886,-0.04902825,-0.2588005,1.699968,-0.1833173,0.05193878,1.547686,0.2393002,0.02515406,1.761275,NA,NA,Unknown,Unknown,
-0.3271484,-0.8530273,0.4882813,0.2666016,0.8979492,0.5922852,1,8,19,35,6,5,7,1,1,-5,-1,2,-3,-1,6,1,14.4375,14.4375,14.4375,8.5,8.5,8.5,3.316171,5.424669,8.117946,6.522535,4.390477,2.936467,0.02586489,0.1278689,1.311576,0.09963764,-0.1509317,1.514234,0.03250804,0.5291056,1.761788,0.01227367,0.2048879,1.302275,0.1553632,-0.1132543,1.524413,0.02340713,0.05837483,1.753737,0.02939694,-0.2672605,1.749824,-0.1429597,0.2498419,1.709647,-0.04927912,-0.2585123,1.699935,-0.1813779,0.04384142,1.542973,0.2395025,0.0252596,1.761644,NA,NA,Unknown,Closed,
-0.3095703,-0.8916016,0.5141602,0.3530273,0.7763672,0.6137695,-3,-1,-2,-1,1,-2,-4,-6,2,0,0,-1,1,7,4,1,19.3125,19.3125,19.3125,2,2,2,3.339921,5.434054,8.114571,6.523272,4.36947,2.927426,0.02696733,0.1279613,1.31262,0.09973712,-0.1561923,1.521173,0.03208094,0.5290704,1.76081,0.01170539,0.2024213,1.302703,0.1589765,-0.1209734,1.527733,0.02329938,0.05854435,1.753497,0.02902535,-0.2669383,1.749944,-0.1426196,0.2502862,1.709375,-0.04949299,-0.2581532,1.699872,-0.1793954,0.04058845,1.540561,0.2395237,0.02561403,1.761886,NA,NA,Unknown,Closed,
-0.2973633,-0.847168,0.472168,0.3574219,0.7998047,0.5629883,-3,-7,-18,25,3,1,-11,-5,2,-1,-1,-1,-8,-2,3,0,19.25,19.25,19.25,-9.5,-9.5,-9.5,3.34847,5.434614,8.110186,6.523842,4.364083,2.916259,0.02532611,0.1279005,1.313331,0.1018471,-0.1645478,1.50062,0.03173218,0.5289973,1.759267,0.01512653,0.2072238,1.307678,0.1391792,-0.1238124,1.504278,0.02311576,0.05872746,1.75317,0.02858448,-0.266499,1.749947,-0.142381,0.2506644,1.708907,-0.04984873,-0.2576524,1.699683,-0.1778511,0.05237716,1.551379,0.239614,0.02599528,1.762111,NA,NA,Unknown,Closed,
-0.2631836,-0.8789063,0.4794922,0.3779297,0.7705078,0.5644531,-3,-1,15,-28,-4,2,0,-2,2,0,1,0,1,3,2,1,2.125,2.125,2.125,-6.8125,-6.8125,-6.8125,3.353987,5.437481,8.099752,6.521693,4.363357,2.910459,0.02770091,0.1268724,1.316118,0.103487,-0.1681671,1.503778,0.03103454,0.5290309,1.757049,0.01569977,0.2056004,1.306107,0.1411762,-0.1311823,1.497625,0.02293271,0.05897477,1.753422,0.02812924,-0.2661637,1.750203,-0.1429114,0.248535,1.707703,-0.05017252,-0.2573529,1.699716,-0.1735386,0.04262449,1.542293,0.2396411,0.02667014,1.763015,NA,NA,Unknown,Unknown,
-0.2558594,-0.8364258,0.4526367,0.3583984,0.7407227,0.5263672,-1,-3,-13,-15,-1,7,11,0,-3,-1,-1,-1,-1,-1,0,-2,9.1875,9.1875,9.1875,2.6875,2.6875,2.6875,3.358095,5.436311,8.094548,6.530019,4.368758,2.889577,0.02781209,0.1258336,1.317857,0.1049638,-0.1668351,1.500987,0.03075922,0.5292171,1.756292,0.01797343,0.1993674,1.31075,0.1354562,-0.1306374,1.493778,0.02288361,0.05907471,1.753309,0.02787668,-0.265823,1.750474,-0.1424601,0.2488281,1.707436,-0.05030886,-0.2570678,1.699803,-0.1728064,0.03957673,1.542153,0.2393269,0.02615798,1.763269,NA,NA,Unknown,Unknown,
-0.2294922,-0.809082,0.4394531,0.347168,0.7099609,0.4804688,-1,0,2,-5,1,-1,8,0,-1,0,-1,4,0,2,-2,-2,6.8125,6.8125,6.8125,4.3125,4.3125,4.3125,3.360064,5.43224,8.092512,6.54268,4.360778,2.870018,0.02797458,0.1236089,1.318763,0.1052918,-0.1661092,1.498462,0.03062335,0.5292141,1.755839,0.01998032,0.1998325,1.310393,0.133185,-0.1320884,1.488846,0.02288889,0.05911736,1.753253,0.02775405,-0.2655911,1.750707,-0.1419904,0.2490863,1.707411,-0.05037861,-0.25681,1.699934,-0.1725713,0.03889264,1.542102,0.2391673,0.02632759,1.763635,NA,NA,Unknown,Closed,
-0.1513672,-0.7714844,0.4379883,0.3457031,0.6821289,0.4755859,-3,-3,7,-3,-2,3,2,-1,0,-1,-2,-1,1,3,-2,0,2.3125,2.3125,2.3125,8.25,8.25,8.25,3.362001,5.413824,8.093961,6.559726,4.335238,2.843253,0.02908356,0.1189249,1.319236,0.1092525,-0.1676592,1.496607,0.03052952,0.5291911,1.755548,0.02040995,0.1937642,1.312833,0.1555342,-0.1321201,1.508312,0.02287041,0.05913169,1.753229,0.02755829,-0.2654182,1.750976,-0.1417463,0.2490341,1.707397,-0.05050224,-0.2566415,1.700089,-0.1723251,0.03873485,1.542227,0.2389722,0.02634992,1.764272,NA,NA,Unknown,Closed,
-0.08789063,-0.7241211,0.4233398,0.4018555,0.6655273,0.4672852,-1,-4,-21,-5,-2,-2,0,-1,-2,-1,-1,-2,-2,-1,-1,-4,6.5625,6.5625,6.5625,14.875,14.875,14.875,3.366377,5.396363,8.099852,6.588666,4.288164,2.805955,0.0284002,0.09466636,1.317217,0.1168405,-0.1755936,1.495882,0.03045858,0.5292936,1.754741,0.02482668,0.1609174,1.304818,0.1676634,-0.1450218,1.516857,0.02282082,0.05926497,1.753188,0.02714536,-0.2646022,1.751634,-0.141344,0.2487078,1.707465,-0.05066175,-0.2558399,1.700552,-0.1749295,0.04538978,1.564113,0.2386064,0.02598393,1.76498,NA,NA,Unknown,Unknown,
-0.08789063,-0.7241211,0.4233398,0.4619141,0.6831055,0.4584961,-2,-1,2,-4,-4,-1,2,0,0,-1,-2,0,1,1,0,0,6.5625,6.5625,6.5625,14.6875,14.6875,14.6875,3.366377,5.396363,8.099852,6.622485,4.220934,2.762417,0.02167339,0.07125714,1.316045,0.1179005,-0.1890442,1.505291,0.03053216,0.5295017,1.754356,0.04689045,0.1486205,1.3126,0.1730223,-0.1561999,1.522625,0.02277728,0.05950215,1.753181,0.02671177,-0.2634287,1.752174,-0.1409883,0.2484564,1.707627,-0.05092483,-0.2546269,1.701406,-0.1758864,0.04470939,1.57044,0.2385006,0.0267102,1.765131,NA,NA,Unknown,Closed,
0.05908203,-0.5874023,0.4614258,0.4892578,0.6904297,0.3657227,-1,0,2,2,0,0,1,-1,0,-2,-5,-4,-1,1,0,0,-0.75,-0.75,-0.75,1.1875,1.1875,1.1875,3.394692,5.258169,8.164175,6.650879,4.132708,2.723097,0.01855733,0.03651314,1.313778,0.1272943,-0.2067835,1.501535,0.03059685,0.5296476,1.754208,0.04082429,0.08732233,1.309572,0.1766559,-0.1695255,1.520933,0.0225903,0.05992202,1.754158,0.02621478,-0.2624359,1.752574,-0.1423611,0.2456467,1.707409,-0.05135804,-0.2536739,1.701718,-0.1787868,0.04497086,1.59051,0.2385901,0.02667354,1.765093,NA,NA,Unknown,Closed,
0.1391602,-0.6948242,0.4946289,0.5771484,0.6865234,0.3803711,-1,-1,-4,-6,-2,-3,-4,5,-1,-2,-2,-1,-2,0,0,-4,-16.25,-16.25,-16.25,-16.5625,-16.5625,-16.5625,3.381682,4.966886,8.230498,6.661543,4.027396,2.679604,0.01642815,-0.004689456,1.313511,0.1300611,-0.216216,1.535344,0.0306437,0.5294944,1.75385,0.005796993,0.01834805,1.277154,0.1947853,-0.1728977,1.548,0.0222907,0.05998235,1.754554,0.02580729,-0.2626739,1.752647,-0.1407201,0.245385,1.708313,-0.05215891,-0.2538225,1.701948,-0.1822035,0.04057677,1.60193,0.2357839,0.013508,1.764182,NA,NA,Unknown,Closed,
0.1865234,-0.715332,0.5234375,0.684082,0.6831055,0.3579102,3,1,5,-2,-4,-2,-3,-6,1,1,5,0,-3,-3,-8,-1,-16.875,-16.875,-16.875,-19.625,-19.625,-19.625,3.362237,4.765069,8.236856,6.670843,3.910503,2.629674,0.02106015,-0.06524428,1.310679,0.1484552,-0.2464316,1.49587,0.03069503,0.5294578,1.753636,0.08802088,-0.08784002,1.342667,0.167797,-0.2884022,1.48,0.02223982,0.05917049,1.754208,0.02537096,-0.2660925,1.752451,-0.141817,0.2424441,1.708293,-0.05284123,-0.2565201,1.702036,-0.196993,-0.007601092,1.610162,0.2336608,0.006283461,1.764605,NA,NA,Unknown,Closed,
0.2333984,-0.8789063,0.4638672,0.715332,0.659668,0.3217773,-16,-2,-2,1,-2,-6,-14,-86,-1,1,0,-2,1,-1,-1,-1,-36.1875,-36.1875,-36.1875,-31.6875,-31.6875,-31.6875,3.287919,4.418411,8.252131,6.676821,3.790721,2.577392,-0.0156964,-0.180983,1.337885,0.1695379,-0.2871453,1.520362,0.03076178,0.5292635,1.752826,0.01369752,-0.1541534,1.357167,0.1946315,-0.3054347,1.485625,0.02300008,0.05775035,1.755471,0.02646231,-0.268795,1.753047,-0.1424923,0.2402011,1.708892,-0.05223133,-0.2600945,1.703557,-0.188743,-0.03358986,1.628703,0.2322981,0.0008256949,1.764609,NA,NA,Unknown,Closed,
0.3447266,-0.9052734,0.4477539,0.8066406,0.5830078,0.3618164,8,-2,-1,4,2,0,-1,12,-1,-1,-1,1,-2,0,0,0,-28.25,-28.25,-28.25,-30.6875,-30.6875,-30.6875,3.266155,4.283467,8.266764,6.673467,3.672452,2.528624,-0.03795538,-0.2305851,1.370511,0.178125,-0.3096662,1.535637,0.03097301,0.5290799,1.752488,0.003761174,-0.2447511,1.4,0.2043499,-0.3551195,1.520445,0.02346728,0.05735447,1.755666,0.02726362,-0.2693576,1.752819,-0.1421571,0.2392948,1.709711,-0.05253019,-0.2619272,1.703874,-0.1903558,-0.03449647,1.629459,0.2310165,-0.002969272,1.765352,NA,NA,Unknown,Unknown,
0.668457,-0.9731445,0.5273438,0.7773438,0.5107422,0.3271484,-9,-2,-4,-1,-2,1,6,-1,-1,-2,-1,-1,1,3,1,-1,21.875,21.875,21.875,-13.5625,-13.5625,-13.5625,3.251592,4.018001,8.301151,6.687858,3.55945,2.483294,-0.05796709,-0.275453,1.403705,0.1867125,-0.3289068,1.549061,0.03115588,0.5288813,1.751782,-0.02255441,-0.3080957,1.4335,0.2141161,-0.3798805,1.5432,0.02462543,0.05653203,1.755665,0.0308929,-0.2714251,1.751777,-0.1419178,0.2386213,1.710691,-0.05014098,-0.2659042,1.703665,-0.1884657,0.008783625,1.677469,0.2301615,-0.0193544,1.765865,NA,NA,Unknown,Unknown,
0.6430664,-0.796875,0.5239258,0.8032227,0.5244141,0.3398438,5,0,-1,0,-3,-4,-1,15,-3,0,0,-1,0,-1,-1,0,36.1875,36.1875,36.1875,1.75,1.75,1.75,3.256265,3.907074,8.327736,6.720822,3.444144,2.436924,-0.08449078,-0.2953297,1.449059,0.1940965,-0.3483142,1.564475,0.0312691,0.5287565,1.751036,-0.08164737,-0.3436089,1.457667,0.2231174,-0.3854182,1.565,0.02598475,0.05583571,1.755439,0.03430364,-0.2726738,1.750904,-0.1419725,0.2381223,1.711213,-0.04753225,-0.2677471,1.703335,-0.1883948,0.007481414,1.678539,0.2298835,-0.02421707,1.765683,NA,NA,Unknown,Unknown,
0.9467773,-0.769043,0.3842773,0.8588867,0.4829102,0.3066406,4,0,-1,-3,-3,-2,2,19,-2,-3,0,1,0,0,0,0,-13.0625,-13.0625,-13.0625,2,2,2,3.107147,3.452837,8.517956,6.772265,3.329408,2.378275,-0.1112447,-0.3767354,1.506042,0.2029355,-0.3724091,1.603755,0.03170583,0.5288299,1.748793,-0.08381229,-0.358471,1.478607,0.1575665,-0.339308,1.62131,0.02726562,0.05538245,1.754878,0.03627549,-0.2732033,1.750205,-0.1420624,0.237124,1.711921,-0.04556747,-0.2683114,1.70316,-0.1874441,0.001582226,1.684652,0.2292051,-0.02997779,1.76488,NA,NA,Unknown,Unknown,
0.8686523,-0.7172852,0.3588867,0.9111328,0.4291992,0.2475586,0,0,-1,0,0,2,0,4,-1,-2,-1,-2,-1,3,-1,-2,10.0625,10.0625,10.0625,-12.8125,-12.8125,-12.8125,3.069237,3.357875,8.570057,6.83038,3.217887,2.299322,-0.1299457,-0.393211,1.541413,0.2083366,-0.3835128,1.621277,0.0319925,0.5287938,1.747174,-0.1014518,-0.3605201,1.584235,0.1543329,-0.3411996,1.6195,0.02736669,0.05522855,1.754717,0.03624379,-0.273378,1.750119,-0.1420439,0.2370029,1.712049,-0.04554225,-0.2683842,1.703188,-0.1859538,-0.004801989,1.68916,0.2290377,-0.03157938,1.764601,NA,NA,Unknown,Unknown,
0.9873047,-0.5532227,0.2294922,0.9736328,0.3549805,0.1796875,2,-2,-4,-2,-1,-3,-3,-2,0,0,0,-1,-2,0,-2,0,41.125,41.125,41.125,-29,-29,-29,2.92537,3.19302,8.77681,6.896628,3.116449,2.194988,-0.1455397,-0.4024352,1.579435,0.2141093,-0.3900037,1.637864,0.0323448,0.5284578,1.745214,-0.1133477,-0.401866,1.551,0.160588,-0.3491707,1.62361,0.027375,0.05491729,1.754553,0.03589537,-0.2740418,1.750112,-0.142128,0.2363866,1.712408,-0.04573095,-0.2689649,1.703424,-0.1845425,-0.0118732,1.69403,0.2281762,-0.03413243,1.763603,NA,NA,Unknown,Unknown,
1.007813,-0.46875,0.05419922,1.013672,0.4458008,-0.06347656,2,2,1,0,0,1,-3,-1,-1,0,0,-2,-1,-2,-1,0,56,56,56,-82.9375,-82.9375,-82.9375,2.724489,3.050402,9.064039,7.070471,3.021998,1.908585,-0.1538227,-0.4124545,1.613066,0.219225,-0.3955212,1.650211,0.03237977,0.5283744,1.74414,-0.1012211,-0.4169482,1.609666,0.1640845,-0.3618252,1.622138,0.02735555,0.05450992,1.754259,0.03535525,-0.2748024,1.750058,-0.1422403,0.2358313,1.712707,-0.04603865,-0.2695179,1.703766,-0.1833128,-0.0174367,1.698479,0.2271389,-0.03667703,1.762347,NA,NA,Unknown,Unknown,
1.126953,-0.6269531,-0.03808594,0.9824219,0.3344727,-0.02099609,4,7,2,0,-1,1,-5,-4,-2,-1,-1,1,-2,2,1,-1,26.125,26.125,26.125,-127.3125,-127.3125,-127.3125,2.405046,2.95298,9.433813,7.087872,3.006343,1.816066,-0.1642421,-0.4185198,1.636854,0.2237804,-0.3999486,1.660141,0.03257046,0.5282748,1.742615,-0.107431,-0.4174135,1.612311,0.1693302,-0.4044138,1.628893,0.02733622,0.05417565,1.754005,0.0349037,-0.2754781,1.750103,-0.1422712,0.2355702,1.712895,-0.04635689,-0.2702368,1.704145,-0.1818152,-0.02507805,1.703243,0.2260999,-0.03850857,1.761056,NA,NA,Unknown,Unknown,
1.044434,-0.3071289,-0.1054688,0.9956055,0.2036133,0.08154297,-2,-4,0,0,1,-1,1,0,-9,-6,-5,-7,-3,-11,-23,-31,47.5,47.5,47.5,-112.25,-112.25,-112.25,2.162613,2.872544,9.748487,7.034502,3.002431,1.724996,-0.1783889,-0.4147818,1.670639,0.2294743,-0.3768543,1.67073,0.0327158,0.5280187,1.739552,-0.1239014,-0.4209698,1.624378,0.177421,-0.3553547,1.634864,0.02718104,0.05364988,1.753437,0.03379553,-0.2765042,1.750357,-0.1424837,0.2347468,1.71346,-0.04731853,-0.2712359,1.705216,-0.1818534,-0.03107913,1.712193,0.22398,-0.04074655,1.759685,NA,NA,NotTracked,NotTracked,
1.038574,-0.46875,0.02832031,0.8994141,0.3173828,0.1479492,-8,-3,-2,0,1,1,1,3,5,3,1,2,0,5,21,40,20.375,20.375,20.375,17.4375,17.4375,17.4375,1.943164,2.864564,9.987438,6.895275,3.015311,1.834523,-0.1805489,-0.4188071,1.681189,0.2306785,-0.3551444,1.676114,0.03309734,0.5280641,1.738058,-0.1271989,-0.421573,1.629103,0.178367,-0.3415395,1.634389,0.02711236,0.05343441,1.753264,0.03331804,-0.2769931,1.750633,-0.1424524,0.2344349,1.713687,-0.04778624,-0.2717525,1.705863,-0.182712,-0.03161318,1.717454,0.2236299,-0.04104851,1.759661,NA,NA,NotTracked,NotTracked,
0.9921875,-0.2612305,0.06787109,0.8666992,0.3710938,0.1552734,-3,-2,0,1,-2,-2,-1,1,-4,-1,0,-1,-1,-11,2,-4,48.9375,48.9375,48.9375,37.125,37.125,37.125,2.020112,2.863369,0.01876392,6.887778,3.025022,1.8641,-0.181766,-0.417159,1.686356,0.2298333,-0.3585384,1.674688,0.03337032,0.5279443,1.737034,-0.1293545,-0.4125946,1.63225,0.1788628,-0.3464216,1.635037,0.02702854,0.05320922,1.753104,0.03281135,-0.2773412,1.750989,-0.1424007,0.2343785,1.714066,-0.04827612,-0.2720802,1.706535,-0.1841205,-0.03245446,1.723878,0.2231722,-0.04137699,1.759965,NA,NA,NotTracked,NotTracked,
0.9609375,-0.269043,0.1181641,0.8691406,0.4091797,0.1494141,-2,-2,0,-1,-1,-2,4,4,4,2,-1,1,0,-1,11,19,26.9375,26.9375,26.9375,38.4375,38.4375,38.4375,2.077264,2.862821,9.977274,6.893326,3.045203,1.905762,-0.182467,-0.417978,1.688253,0.2256424,-0.3848995,1.665351,0.03366751,0.5277174,1.735564,-0.1320987,-0.4028668,1.633468,0.1760924,-0.3649207,1.630311,0.02702611,0.05303378,1.752928,0.03260887,-0.2774859,1.751194,-0.1424549,0.2343255,1.714255,-0.04847382,-0.2723133,1.706991,-0.1854284,-0.03254808,1.729216,0.2227169,-0.0416391,1.760222,NA,NA,NotTracked,NotTracked,
0.9130859,-0.347168,0.1625977,0.8989258,0.3271484,0.1245117,1,-3,-2,-2,-2,-3,-5,-7,-1,-1,-1,-2,-1,-1,1,-4,-8.5625,-8.5625,-8.5625,52.8125,52.8125,52.8125,2.219562,2.871604,9.832223,6.9109,3.038508,1.968447,-0.1819802,-0.417607,1.688665,0.2265795,-0.361338,1.669529,0.03389695,0.5278113,1.734423,-0.1311803,-0.4143635,1.632592,0.1752718,-0.3306699,1.634234,0.0270693,0.05297465,1.752819,0.03247039,-0.2775458,1.751392,-0.1425063,0.2343619,1.714542,-0.04864134,-0.2723836,1.707473,-0.1866528,-0.03297926,1.733159,0.2224543,-0.04165262,1.760492,NA,NA,NotTracked,NotTracked,
0.9130859,-0.347168,0.1625977,0.8989258,0.3271484,0.1245117,1,-3,-2,-2,-2,-3,-5,-7,-1,-1,-1,-2,-1,-1,1,-4,-8.5625,-8.5625,-8.5625,52.8125,52.8125,52.8125,2.219562,2.871604,9.832223,6.9109,3.038508,1.968447,-0.1814783,-0.4181891,1.686847,0.2258755,-0.3640743,1.667493,0.03411985,0.5277501,1.732688,-0.1320947,-0.4277545,1.633572,0.1770249,-0.3595985,1.631757,0.02715036,0.05293108,1.752672,0.03232007,-0.2776243,1.751577,-0.1424328,0.2343481,1.714792,-0.04884271,-0.2724899,1.708065,-0.1872645,-0.03250816,1.735996,0.2223034,-0.04154672,1.760616,NA,NA,NotTracked,NotTracked,
0.8833008,-0.3886719,0.08789063,0.8857422,0.3291016,0.1040039,-12,-3,-4,-4,-5,-7,-12,-60,0,0,1,-1,-4,-4,-1,-5,12.5625,12.5625,12.5625,44.625,44.625,44.625,2.424085,2.90863,9.630342,6.927378,3.03544,1.977641,-0.1807231,-0.4177362,1.684314,0.2260338,-0.3640707,1.66685,0.0342092,0.5277159,1.732057,-0.1321604,-0.4084581,1.634943,0.1761188,-0.3516931,1.629781,0.02712758,0.05290515,1.752625,0.03212501,-0.2776552,1.751861,-0.1425798,0.2345383,1.715367,-0.04903375,-0.2724886,1.708534,-0.1876564,-0.03267433,1.738374,0.2222656,-0.04154676,1.76061,NA,NA,NotTracked,NotTracked,
0.9072266,-0.355957,0.06494141,0.949707,0.2402344,0.09228516,-2,0,3,0,0,-2,0,8,-3,-1,-1,-1,1,-11,-3,-3,18.1875,18.1875,18.1875,11.6875,11.6875,11.6875,2.46871,2.920134,9.595241,6.96066,3.024803,1.977653,-0.180348,-0.4175238,1.681687,0.2234246,-0.3905585,1.661411,0.03424937,0.527353,1.731487,-0.1312633,-0.3940538,1.635303,0.1732005,-0.387969,1.6315,0.02711075,0.05283547,1.752629,0.03191044,-0.2777846,1.752254,-0.1426684,0.2347235,1.716246,-0.04924519,-0.2725831,1.709095,-0.1879302,-0.03319772,1.739899,0.2222358,-0.04156979,1.760605,NA,NA,NotTracked,NotTracked,
