ALX,ALY,ALZ,ARX,ARY,ARZ,EMG0L,EMG1L,EMG2L,EMG3L,EMG4L,EMG5L,EMG6L,EMG7L,EMG0R,EMG1R,EMG2R,EMG3R,EMG4R,EMG5R,EMG6R,EMG7R,GLX,GLY,GLZ,GRX,GRY,GRZ,ORL,OPL,OYL,ORR,OPR,OYR,LHNX,LHNY,LHNZ,RHNX,RHNY,RHNZ,HX,HY,HZ,LTX,LTY,LTZ,RTX,RTY,RTZ,SpineMidX,SpineMidY,SpineMidZ,SpineBaseX,SpineBaseY,SpineBaseZ,ShoulderLeftX,ShoulderLeftY,ShoulderLeftZ,ShoulderRightX,ShoulderRightY,ShoulderRightZ,ElbowLeftX,ElbowLeftY,ElbowLeftZ,ElbowRightX,ElbowRightY,ElbowRightZ,Myo_Pose_left,Myo_Pose_Right,Kinect_pose_left,Kinect_pose_right
0.9311523,-0.2929688,0.1870117,-0.03320313,1.098145,0.6142578,-1,-2,-3,-1,-1,-1,-2,-1,-13,-27,-25,-11,4,1,-3,-4,-10.5625,-10.5625,-10.5625,1.3125,1.3125,1.3125,3.333355,3.07345,8.023439,6.649508,4.664615,6.557303,-0.1069607,-0.391054,1.608268,0.3144611,-0.1521166,1.385808,0.08265269,0.5303944,1.701057,-0.1546962,-0.3919383,1.60772,0.2833317,-0.1697788,1.351818,0.06634527,0.05832449,1.73432,0.06865978,-0.2702118,1.729558,-0.1046932,0.2403321,1.711698,-0.01303142,-0.2640155,1.6877,-0.1380317,-0.01437423,1.714571,0.266198,-0.0115861,1.741826,NA,NA,NotTracked,Unknown,
0.940918,-0.2929688,0.1850586,-0.2128906,1.103516,0.6088867,-1,-1,1,0,0,0,-1,-1,0,1,-3,-4,-39,-29,1,1,-14.0625,-14.0625,-14.0625,6.25,6.25,6.25,3.331286,3.073013,8.017657,6.65772,5.072801,6.55663,-0.1072676,-0.3886666,1.609375,0.3295489,-0.06169956,1.365108,0.0825957,0.5303302,1.701429,-0.1549237,-0.3744284,1.61165,0.3041297,-0.08520936,1.326667,0.06609565,0.05839159,1.734391,0.06825128,-0.2700931,1.729327,-0.1047461,0.2403544,1.711758,-0.01356939,-0.2636892,1.687151,-0.1382066,-0.01428028,1.714447,0.2819687,-0.05022065,1.709247,NA,NA,NotTracked,Unknown,
0.9394531,-0.2949219,0.1855469,-0.4160156,1.017578,0.5483398,-2,-2,0,-1,-1,-2,-2,-3,5,13,9,1,4,4,1,7,-19.1875,-19.1875,-19.1875,20.75,20.75,20.75,3.322958,3.07176,7.996075,6.67967,5.476483,6.567135,-0.1070991,-0.3885944,1.609503,0.3371576,0.0224205,1.362862,0.08259568,0.530351,1.701903,-0.1514558,-0.4059105,1.604724,0.3264428,-0.01469917,1.348333,0.0658333,0.05850747,1.734486,0.06786007,-0.2699059,1.729083,-0.1048043,0.2404199,1.711823,-0.0139887,-0.263318,1.686586,-0.1385422,-0.01409588,1.71419,0.280638,0.008559458,1.717255,NA,NA,NotTracked,Unknown,
0.9365234,-0.3022461,0.1821289,-0.4140625,0.9174805,0.6015625,-1,-1,-1,0,-1,1,0,-1,-5,0,-1,-2,-6,21,7,-17,-22.5625,-22.5625,-22.5625,27.125,27.125,27.125,3.314499,3.07233,7.979454,6.722833,5.848933,6.605271,-0.1068245,-0.3887988,1.608765,0.3394535,0.1034825,1.376627,0.08266538,0.5303451,1.702296,-0.1546544,-0.3770862,1.610909,0.3402421,0.06465019,1.31975,0.06555717,0.05856332,1.73468,0.06755256,-0.2698629,1.728943,-0.1048049,0.2404218,1.711827,-0.01427338,-0.2632181,1.686278,-0.1389396,-0.01368392,1.713918,0.289524,0.003203741,1.704372,NA,NA,NotTracked,Lasso,
0.9267578,-0.3076172,0.1850586,-0.5141602,0.7924805,0.5629883,-1,-1,0,-2,-3,-1,-1,-1,2,-5,-6,-4,-16,-4,-3,-5,-21.875,-21.875,-21.875,35.875,35.875,35.875,3.312671,3.073529,7.968615,6.810976,6.17062,6.689656,-0.1062983,-0.3879253,1.608671,0.3373211,0.1771142,1.391822,0.08281058,0.5303203,1.70291,-0.1529353,-0.3838428,1.608492,0.3422728,0.144545,1.30375,0.06526002,0.05863666,1.734975,0.06721463,-0.2697468,1.72882,-0.1048216,0.2405474,1.711898,-0.01461709,-0.2628879,1.685832,-0.1392766,-0.01314509,1.713539,0.3032214,0.0149884,1.678006,NA,NA,NotTracked,Lasso,
0.9404297,-0.3032227,0.1967773,-0.4604492,0.6992188,0.4638672,-1,-4,-2,-1,-1,-1,1,-2,-3,-3,-2,-1,15,6,-3,1,-20.75,-20.75,-20.75,29.6875,29.6875,29.6875,3.309055,3.077018,7.948101,6.936011,6.433976,6.814956,-0.1051321,-0.3875613,1.606492,0.3204905,0.3049407,1.41722,0.08328052,0.5300961,1.705284,-0.1522795,-0.3858979,1.608667,0.3354639,0.2736751,1.353077,0.06485209,0.05876638,1.735929,0.06690531,-0.2696588,1.72857,-0.1046705,0.2407217,1.712155,-0.01488255,-0.2625623,1.685287,-0.1404625,-0.01049786,1.712375,0.3383152,0.05025267,1.605849,NA,NA,NotTracked,Lasso,
0.9282227,-0.3041992,0.15625,-0.4345703,0.5610352,0.3964844,0,-1,-1,-1,-1,0,-1,-1,-4,-6,0,1,14,1,-8,-13,-10.6875,-10.6875,-10.6875,10.0625,10.0625,10.0625,3.288827,3.088256,7.942896,7.102617,6.641973,7.002405,-0.105285,-0.3854155,1.606302,0.3080625,0.3497746,1.434878,0.08383672,0.5297469,1.706651,-0.1524339,-0.4042569,1.607387,0.3232416,0.322583,1.370364,0.06464262,0.05886066,1.736542,0.06661031,-0.2696787,1.728292,-0.1047081,0.2408521,1.712491,-0.01512265,-0.2624471,1.684899,-0.1405255,-0.01044251,1.712349,0.3396081,0.06773672,1.601015,NA,NA,NotTracked,Lasso,
0.9311523,-0.3012695,0.1586914,-0.3388672,0.5063477,-0.07373047,0,-1,-1,-2,0,0,0,-2,-6,-1,0,1,1,-11,-6,-7,-4.625,-4.625,-4.625,9.4375,9.4375,9.4375,3.284458,3.092834,7.944747,7.34068,6.800208,7.258745,-0.105129,-0.3845291,1.602978,0.2976438,0.3752054,1.44981,0.08430573,0.5292926,1.707777,-0.1530751,-0.3845322,1.606857,0.31161,0.3614943,1.3698,0.06451691,0.05884869,1.736939,0.06641357,-0.2696674,1.72798,-0.1047041,0.24107,1.712954,-0.01523886,-0.2622991,1.684557,-0.1408352,-0.009621368,1.71214,0.3454651,0.09835386,1.588694,NA,NA,NotTracked,Lasso,
0.9326172,-0.3076172,0.1787109,-1.041992,0.2133789,0.2416992,-1,0,0,-1,-1,0,-1,-1,1,0,-3,0,1,-2,23,7,2.9375,2.9375,2.9375,-5.875,-5.875,-5.875,3.283255,3.104512,7.948667,7.65281,6.915375,7.600551,-0.1050815,-0.3844183,1.601971,0.2817022,0.4073583,1.467478,0.08514212,0.5285551,1.709434,-0.1507671,-0.4082943,1.59525,0.2952091,0.3998122,1.401333,0.06442469,0.05888623,1.737376,0.06620583,-0.2695588,1.72761,-0.1044899,0.2413594,1.71376,-0.01535735,-0.2621565,1.684311,-0.1408534,-0.009654602,1.712093,0.3490561,0.1082505,1.582013,NA,NA,NotTracked,Unknown,
0.9306641,-0.3178711,0.1845703,-1.003906,0.3398438,-0.1152344,-1,1,0,-2,-2,1,-1,-1,2,-1,-3,-2,2,-1,-18,-10,8.375,8.375,8.375,5.375,5.375,5.375,3.283047,3.111989,7.957782,8.017267,6.966821,7.983829,-0.1055153,-0.384078,1.601082,0.2703764,0.4220295,1.483198,0.08539122,0.5282147,1.710677,-0.1485622,-0.4025129,1.586875,0.2809555,0.4209884,1.41575,0.06450439,0.05887887,1.73785,0.06604568,-0.2695039,1.727355,-0.1040883,0.2417038,1.71466,-0.01543778,-0.262069,1.684254,-0.1408825,-0.009628939,1.712112,0.351796,0.1200446,1.574044,NA,NA,NotTracked,Unknown,
0.9306641,-0.3178711,0.1845703,-1.003906,0.3398438,-0.1152344,-1,1,0,-2,-2,1,-1,-1,2,-1,-3,-2,2,-1,-18,-10,8.375,8.375,8.375,5.375,5.375,5.375,3.283047,3.111989,7.957782,8.017267,6.966821,7.983829,-0.1053923,-0.3838015,1.599386,0.2559065,0.4369581,1.497077,0.08572425,0.5273625,1.712142,-0.1500219,-0.3962614,1.59185,0.2638253,0.4396062,1.432539,0.06448298,0.05888158,1.738029,0.06568635,-0.2693757,1.726805,-0.1035818,0.2420178,1.71539,-0.01577274,-0.2619001,1.684038,-0.1408962,-0.009552517,1.712098,0.3540534,0.1624235,1.548103,NA,NA,NotTracked,Unknown,
0.9287109,-0.3222656,0.1855469,-0.675293,0.2875977,-0.0625,0,-2,-2,0,0,-3,0,-1,7,6,1,-1,-3,3,-7,31,9.75,9.75,9.75,-14.3125,-14.3125,-14.3125,3.284652,3.114808,7.962156,8.325947,6.976343,8.321491,-0.1039549,-0.3934515,1.598321,0.2452211,0.441078,1.510084,0.08625968,0.5269182,1.71354,-0.1474202,-0.399337,1.581347,0.2524028,0.4468268,1.4445,0.06456118,0.0591431,1.738545,0.06552517,-0.2689593,1.726595,-0.1018992,0.2432794,1.717439,-0.01589125,-0.2615233,1.684129,-0.1410142,-0.009153348,1.712351,0.3541048,0.1654966,1.547675,NA,NA,NotTracked,Unknown,
0.9169922,-0.3129883,0.1928711,-0.7104492,0.2333984,-0.1098633,1,-2,-1,-1,-2,-2,-1,1,-4,2,0,-1,-5,-2,-6,-1,11.25,11.25,11.25,-25,-25,-25,3.303072,3.115751,7.963375,8.533102,6.960997,8.572257,-0.1045481,-0.3914559,1.600006,0.2324471,0.4466023,1.52312,0.08676066,0.5268096,1.714099,-0.1510209,-0.3898784,1.595707,0.2346144,0.4534717,1.462615,0.06479894,0.0595378,1.739046,0.06546663,-0.2682287,1.726249,-0.09899479,0.2448267,1.719491,-0.01589444,-0.2607237,1.684156,-0.1412656,-0.008583936,1.712751,0.3532897,0.17102,1.545764,NA,NA,NotTracked,Unknown,
0.9199219,-0.3212891,0.1948242,-0.7836914,0.2661133,-0.2373047,-1,-1,-2,0,0,-1,0,-2,17,9,5,1,3,1,-3,1,16.9375,16.9375,16.9375,-19.125,-19.125,-19.125,3.319919,3.113159,7.963946,8.680089,6.932513,8.75016,-0.1042345,-0.3893822,1.60003,0.2188076,0.4511154,1.532602,0.08807348,0.5265061,1.714277,-0.149545,-0.3965344,1.590727,0.2035097,0.4371066,1.591,0.06501903,0.05989172,1.739274,0.06533971,-0.2675449,1.725825,-0.09635301,0.24552,1.720304,-0.01605168,-0.2599744,1.683938,-0.1414621,-0.007767692,1.713143,0.3524764,0.1748661,1.543543,NA,NA,NotTracked,Unknown,
0.918457,-0.3125,0.1889648,-0.8305664,0.2509766,-0.2963867,-1,-1,-1,-1,-2,-2,-1,-2,-7,-7,-4,-2,9,2,-2,-14,17.4375,17.4375,17.4375,-19.375,-19.375,-19.375,3.327578,3.111405,7.966344,8.744162,6.900774,8.84274,-0.1054496,-0.387301,1.602743,0.2102832,0.4519237,1.539007,0.08924517,0.5262281,1.714345,-0.1525627,-0.3707555,1.603605,0.1976544,0.4307953,1.584071,0.06518448,0.06018748,1.739466,0.06528871,-0.2669588,1.725505,-0.09530573,0.2457491,1.72086,-0.01608983,-0.2592673,1.68377,-0.1415015,-0.007310123,1.713399,0.3523446,0.1749473,1.542995,NA,NA,NotTracked,Unknown,
0.918457,-0.3125,0.1889648,-0.8789063,0.2651367,-0.3012695,-1,-1,-1,-1,-2,-2,-1,-2,-7,-7,-4,-2,9,2,-2,-14,17.4375,17.4375,17.4375,-14.5,-14.5,-14.5,3.327578,3.111405,7.966344,8.769164,6.888777,8.878037,-0.1050345,-0.3873526,1.603914,0.1785599,0.4730145,1.56158,0.09027798,0.5257953,1.714189,-0.1524,-0.3794188,1.605271,0.1558286,0.4580485,1.5975,0.06537181,0.06044995,1.739678,0.06530805,-0.2665627,1.725253,-0.09435993,0.246005,1.721303,-0.01608945,-0.2587296,1.683509,-0.1416576,-0.006759253,1.713776,0.3506095,0.1804383,1.539183,NA,NA,NotTracked,Unknown,
0.9072266,-0.2929688,0.1938477,-0.8710938,0.2915039,-0.3203125,-1,1,-2,0,-1,-1,-1,-2,5,-4,-2,1,-10,6,7,29,8.3125,8.3125,8.3125,-10.625,-10.625,-10.625,3.34031,3.104607,7.967068,8.785748,6.88012,8.902104,-0.1051297,-0.3840323,1.60625,0.1587779,0.476227,1.577967,0.09082843,0.525694,1.71404,-0.1521896,-0.3738042,1.608079,0.1083117,0.4593146,1.6004,0.06552067,0.0605934,1.739831,0.065347,-0.2662224,1.725028,-0.09362518,0.2459289,1.721505,-0.01599328,-0.2582396,1.683278,-0.1416122,-0.006385939,1.714176,0.3503381,0.1803278,1.53914,NA,NA,NotTracked,Unknown,
0.9296875,-0.3251953,0.1933594,-0.8398438,0.3085938,-0.3266602,-1,-2,-3,-1,0,-1,0,2,25,0,-5,-4,-1,-1,-27,45,-0.9375,-0.9375,-0.9375,-1.5625,-1.5625,-1.5625,3.334403,3.092096,7.974226,8.777103,6.882475,8.901848,-0.1046279,-0.3844098,1.609726,0.1661209,0.4615086,1.573356,0.09116594,0.5255443,1.714017,-0.1517974,-0.3656223,1.612188,0.1286804,0.4476507,1.610214,0.06561497,0.06091421,1.740094,0.06544796,-0.2658735,1.724983,-0.09348191,0.2457263,1.721802,-0.01585729,-0.257819,1.683347,-0.1415615,-0.006313499,1.714992,0.3501692,0.1803052,1.539145,NA,NA,NotTracked,Unknown,
0.9257813,-0.3271484,0.2099609,-0.8095703,0.3041992,-0.3349609,-3,-1,-3,-3,0,-2,-1,-2,-26,-2,2,0,-2,-5,-10,-8,-2.0625,-2.0625,-2.0625,-20.8125,-20.8125,-20.8125,3.3349,3.089321,7.972285,8.732237,6.891965,8.853695,-0.1043842,-0.3820171,1.609033,0.158305,0.4646858,1.574552,0.09208164,0.5248883,1.713067,-0.149454,-0.3708645,1.605893,0.104887,0.4369331,1.604776,0.06569003,0.06092835,1.740164,0.065537,-0.2657194,1.724876,-0.09332963,0.2454612,1.721894,-0.01575822,-0.2575852,1.683271,-0.141355,-0.006208645,1.71531,0.3499666,0.1803853,1.538943,NA,NA,NotTracked,Unknown,
0.9272461,-0.3398438,0.2006836,-0.5419922,0.3144531,-0.07324219,-4,-1,1,-1,2,26,11,1,-14,-2,-2,0,2,3,-1,-14,-1.8125,-1.8125,-1.8125,36.3125,36.3125,36.3125,3.334681,3.089196,7.971581,8.581904,6.891608,8.667111,-0.1043303,-0.38175,1.611102,0.1511012,0.4803114,1.579229,0.09277219,0.5244703,1.712675,-0.147687,-0.4039648,1.607368,0.09755366,0.4252722,1.605494,0.06582312,0.06106169,1.740417,0.06565834,-0.2652301,1.724826,-0.09273364,0.2453558,1.722215,-0.01557166,-0.2567924,1.683265,-0.1409152,-0.004894298,1.71653,0.3500277,0.1782767,1.540229,NA,NA,NotTracked,Unknown,
0.9638672,-0.3867188,0.1489258,-0.6362305,0.3999023,-0.1357422,0,-1,-3,3,1,5,55,5,8,2,-1,0,-3,-2,-1,15,21.4375,21.4375,21.4375,4.375,4.375,4.375,3.355201,3.105605,7.962489,8.342115,6.852494,8.394994,-0.1038216,-0.3813842,1.610253,0.1597919,0.4772432,1.572509,0.09292921,0.5244839,1.712625,-0.145638,-0.4001696,1.596793,0.1042955,0.4321955,1.607523,0.06590134,0.06121461,1.740718,0.06565218,-0.2650857,1.724898,-0.09198099,0.2457424,1.722724,-0.01556323,-0.2565545,1.683398,-0.1408569,-0.004973337,1.717038,0.351024,0.1737258,1.542412,NA,NA,NotTracked,Unknown,
1.061523,-0.347168,0.06054688,-0.5913086,0.3007813,-0.06738281,-3,-1,-1,-6,-1,-40,-29,-7,18,-6,-5,-3,-5,-3,-1,0,64.5625,64.5625,64.5625,7.6875,7.6875,7.6875,3.416725,3.139302,7.96066,8.080443,6.784329,8.103272,-0.1030118,-0.3789577,1.603736,0.2089823,0.4409971,1.531592,0.09297177,0.5244936,1.712629,-0.146724,-0.4066124,1.602,0.2154611,0.4004892,1.563545,0.06602998,0.0613515,1.740791,0.06574779,-0.2648073,1.724889,-0.09124204,0.2460163,1.723002,-0.01549819,-0.2562651,1.683468,-0.1409528,-0.004820089,1.717885,0.3524382,0.1652048,1.546856,NA,NA,NotTracked,Unknown,
1.080078,-0.3242188,0.1523438,-0.7485352,0.4960938,0.006835938,3,1,0,4,7,27,-19,2,55,-15,-11,-8,-18,-11,-12,-36,67.0625,67.0625,67.0625,27.125,27.125,27.125,3.462163,3.1697,7.950581,7.865092,6.670365,7.829975,-0.09953845,-0.3776691,1.589505,0.2242155,0.4219127,1.515909,0.09273499,0.5245705,1.712708,-0.1436107,-0.3931025,1.579207,0.2269532,0.3879078,1.5615,0.06600844,0.06145409,1.740904,0.06577163,-0.2645274,1.724877,-0.09116444,0.2460633,1.723186,-0.01550233,-0.2559091,1.683564,-0.141175,-0.004318989,1.719761,0.3628501,0.1380524,1.551942,NA,NA,NotTracked,Unknown,
0.9511719,-0.6479492,0.5356445,-0.8413086,0.6254883,0.07421875,2,4,3,2,21,-4,-15,4,23,10,0,1,3,1,4,11,47.125,47.125,47.125,3.25,3.25,3.25,3.614954,3.360085,7.871372,7.686009,6.501111,7.603965,-0.1003473,-0.3657153,1.565727,0.230515,0.4097578,1.500525,0.09229703,0.5246408,1.712852,-0.1121963,-0.3647284,1.501982,0.2395491,0.3689268,1.561778,0.06602485,0.06143664,1.740939,0.06581019,-0.2644911,1.724887,-0.09131801,0.2461794,1.723384,-0.01547354,-0.2558886,1.683648,-0.1415338,-0.004821721,1.722484,0.3593121,0.1332183,1.566558,NA,NA,NotTracked,Unknown,
0.9511719,-0.6479492,0.5356445,-1.04248,0.7514648,-0.06445313,-1,-3,7,-30,-26,-24,-14,-10,7,9,4,3,0,-5,0,5,47.125,47.125,47.125,-36.6875,-36.6875,-36.6875,3.614954,3.360085,7.871372,7.53301,6.301174,7.443477,-0.1208285,-0.312972,1.478172,0.2482514,0.3630677,1.458697,0.08972344,0.5257877,1.713119,-0.07749008,-0.3003759,1.443,0.2253662,0.3493659,1.504333,0.06610699,0.06138128,1.741118,0.06623902,-0.2645517,1.725193,-0.09391387,0.2457287,1.725121,-0.01508465,-0.2561653,1.684267,-0.1434016,-0.003454936,1.72819,0.3606398,0.1088793,1.592701,NA,NA,Unknown,Closed,
0.6918945,-0.7070313,0.6889648,-1.075195,0.7666016,0.07373047,-4,-7,-16,-1,24,31,38,-4,-13,17,7,3,1,-1,3,26,26.75,26.75,26.75,-28.4375,-28.4375,-28.4375,3.729,3.683597,7.82329,7.410385,6.120763,7.322281,-0.1331389,-0.2661749,1.433171,0.2584324,0.3359006,1.436126,0.08807733,0.5267104,1.712947,-0.0901084,-0.2416013,1.405625,0.216569,0.3426557,1.466909,0.06617288,0.06133902,1.74115,0.06682725,-0.2648084,1.725477,-0.09525748,0.2454151,1.725947,-0.01445084,-0.2568695,1.684786,-0.1448902,-0.001970431,1.729277,0.3597716,0.0922264,1.609581,NA,NA,Unknown,Closed,
0.5556641,-0.8759766,0.8134766,-0.890625,0.8945313,0.09912109,-4,-3,-4,-11,-26,-21,53,-3,-87,-20,-3,-2,7,-3,-1,-24,5.25,5.25,5.25,-2,-2,-2,3.7412,4.105844,7.812453,7.348664,5.976931,7.232416,-0.1447651,-0.2004959,1.403571,0.2706081,0.308367,1.416487,0.08664825,0.5272899,1.712568,-0.09961531,-0.1872335,1.4012,0.2299522,0.317327,1.4515,0.06639862,0.06130098,1.741339,0.06756023,-0.2648922,1.725959,-0.09698967,0.2453134,1.727637,-0.01370659,-0.2571953,1.68543,-0.1484666,0.007485294,1.731948,0.3588849,0.08546745,1.617528,NA,NA,Unknown,Closed,
0.3491211,-0.7456055,0.7407227,-0.7348633,1.056152,0.2402344,-3,1,-8,-11,-21,-9,-10,-7,65,1,-2,1,2,-1,17,-4,1,1,1,-4.125,-4.125,-4.125,3.74808,4.416004,7.801821,7.306976,5.902002,7.175928,-0.1528823,-0.1399474,1.356674,0.2786163,0.2893013,1.39944,0.08535126,0.5277463,1.71219,-0.1081686,-0.1180795,1.3364,0.2364489,0.3066448,1.405412,0.06646869,0.06129859,1.741421,0.06779779,-0.2648657,1.726352,-0.09826594,0.2455378,1.728525,-0.01340244,-0.2574523,1.686218,-0.1542487,0.02571187,1.72851,0.3567424,0.08030552,1.623873,NA,NA,Unknown,Closed,
0.06835938,-0.6586914,0.7255859,-0.6586914,0.9033203,0.1689453,-7,-7,3,-3,-6,-6,16,-16,28,-3,0,-1,0,-1,-11,7,-19.5625,-19.5625,-19.5625,-20.625,-20.625,-20.625,3.729577,4.869281,7.785722,7.266564,5.883842,7.144385,-0.1666718,-0.002308606,1.354506,0.2934051,0.2678848,1.383075,0.08335257,0.5281668,1.711877,-0.1380712,0.02492225,1.319563,0.2442638,0.2784541,1.3754,0.06667324,0.06117945,1.741841,0.06858066,-0.2651629,1.727837,-0.0994193,0.2465212,1.729957,-0.01269666,-0.2580353,1.687763,-0.1830378,0.03508414,1.711602,0.3536555,0.07025229,1.632991,NA,NA,Unknown,Unknown,
0.04980469,-0.5488281,0.7163086,-0.5917969,0.8129883,0.2246094,-2,-1,-12,-13,-16,7,66,-1,8,-5,-3,-5,-3,-1,-6,-16,-13.9375,-13.9375,-13.9375,-14.875,-14.875,-14.875,3.723313,5.005411,7.781835,7.228501,5.898005,7.119018,-0.1731162,0.05090257,1.352339,0.2971034,0.2650142,1.382001,0.08292878,0.5282218,1.711777,-0.1277489,0.07867572,1.339889,0.2390749,0.2756613,1.382616,0.06676124,0.06110568,1.741985,0.06889208,-0.2654239,1.728341,-0.09945784,0.2467446,1.730172,-0.01240569,-0.2584599,1.688273,-0.1594096,0.003530385,1.668745,0.3533368,0.06632306,1.634072,NA,NA,Unknown,Unknown,
-0.2456055,-0.5092773,0.6660156,-0.496582,0.8027344,0.1889648,-4,-6,-10,-3,-6,-9,6,-6,-59,-4,-3,1,0,3,-6,-5,-7.5,-7.5,-7.5,-7.125,-7.125,-7.125,3.719894,5.242292,7.767346,7.203679,5.90863,7.098155,-0.1760778,0.1032133,1.344146,0.2997038,0.2659833,1.384384,0.0826083,0.5283259,1.711774,-0.1299784,0.1219894,1.33825,0.2451456,0.2713373,1.38172,0.0668662,0.0610309,1.742249,0.06930207,-0.2657116,1.729049,-0.09927099,0.2471192,1.730223,-0.01202355,-0.2589141,1.688974,-0.1628446,0.008376368,1.664696,0.3514853,0.05870216,1.639003,NA,NA,Open,Unknown,
-0.796875,-0.5668945,0.5576172,-0.3696289,0.7626953,0.2270508,0,-2,-7,3,1,15,19,2,28,-5,-3,-5,3,-1,-5,13,-21.1875,-21.1875,-21.1875,-29.75,-29.75,-29.75,3.697339,5.411178,7.761363,7.166672,5.903075,7.077194,-0.1770805,0.1407849,1.341527,0.3011476,0.2655004,1.385229,0.0825333,0.5283317,1.711813,-0.1394224,0.1616781,1.347,0.240266,0.2722267,1.38457,0.06710147,0.06081745,1.742579,0.06964382,-0.2661949,1.729584,-0.09797475,0.2475488,1.729824,-0.01173975,-0.2594389,1.689409,-0.1725055,0.002630308,1.654624,0.3509953,0.05821099,1.638979,NA,NA,Open,Open,
0.4921875,-0.4960938,1.018555,-0.3125,0.6972656,0.2548828,1,-2,-12,-4,4,-1,4,6,5,-6,-4,-3,-2,-8,-7,-6,-21.0625,-21.0625,-21.0625,-33,-33,-33,3.697522,5.459565,7.765343,7.10556,5.872484,7.045226,-0.1778161,0.1643258,1.338339,0.3019598,0.2616305,1.386706,0.08251069,0.5283764,1.71181,-0.1364446,0.1842398,1.3425,0.2421948,0.2697741,1.3778,0.06725608,0.06075309,1.74271,0.06981189,-0.2663309,1.729771,-0.0971038,0.2481701,1.729528,-0.0115792,-0.2596049,1.689515,-0.1727131,0.01433657,1.651984,0.3492328,0.05727294,1.63835,NA,NA,Open,Open,
0.1020508,-0.519043,0.894043,-0.2929688,0.6459961,0.2626953,2,0,12,-3,-7,-11,7,2,81,4,2,1,-6,1,4,15,-6.375,-6.375,-6.375,-26.5625,-26.5625,-26.5625,3.705635,5.473301,7.766956,7.051669,5.817408,7.007758,-0.1780012,0.1720049,1.335174,0.3043965,0.2435812,1.387478,0.08265419,0.528558,1.712021,-0.1317284,0.1903054,1.327476,0.2413942,0.2519873,1.375929,0.06759388,0.06051346,1.743338,0.07013609,-0.2668672,1.730423,-0.09624335,0.2488327,1.729063,-0.01128302,-0.2601654,1.68989,-0.1728018,0.01883531,1.649495,0.3417168,0.04785206,1.645761,NA,NA,Unknown,Open,
0.1020508,-0.519043,0.894043,-0.2587891,0.7236328,0.3256836,1,1,-8,-2,-2,-3,32,0,14,-5,-1,-1,-1,-1,-4,-23,-6.375,-6.375,-6.375,-33.8125,-33.8125,-33.8125,3.705635,5.473301,7.766956,6.987889,5.702317,6.956663,-0.1761748,0.1599486,1.334876,0.3088833,0.2241614,1.386549,0.08292391,0.5287837,1.712529,-0.1325243,0.1804343,1.342731,0.2465019,0.2355536,1.367067,0.0677028,0.06047142,1.743643,0.07019698,-0.2671457,1.730711,-0.0954189,0.2489519,1.728631,-0.01123689,-0.2603677,1.689933,-0.1726695,0.01919285,1.648659,0.3321165,0.03635372,1.660121,NA,NA,Unknown,Open,
0.1928711,-0.4775391,0.5957031,-0.3100586,0.7294922,0.2583008,-2,-1,-3,4,0,-9,-71,-9,-11,-4,-4,-3,6,0,-15,-51,12.875,12.875,12.875,-41.875,-41.875,-41.875,3.745323,5.344133,7.772925,6.924494,5.539385,6.914396,-0.1746148,0.1384025,1.330739,0.3120504,0.1952715,1.386776,0.08325206,0.5288818,1.713031,-0.1262142,0.1520718,1.327941,0.2538788,0.2022013,1.378353,0.06777002,0.06045571,1.743787,0.0702687,-0.2673075,1.73081,-0.09486254,0.2490018,1.728322,-0.01115697,-0.2605107,1.689862,-0.1724794,0.01172123,1.643996,0.3236573,0.02826973,1.676281,NA,NA,Open,Open,
-0.03076172,-0.6508789,0.6264648,-0.387207,0.984375,0.2436523,-2,-2,-2,-2,0,7,3,2,-59,-3,5,4,8,11,4,-6,9.4375,9.4375,9.4375,-17.625,-17.625,-17.625,3.782273,4.97736,7.796023,6.8656,5.178392,6.852703,-0.1743815,0.1010697,1.329713,0.3134069,0.158443,1.378136,0.08339737,0.5288932,1.713126,-0.1215983,0.122294,1.324,0.2593552,0.1675706,1.353083,0.06792647,0.06039479,1.743775,0.07031214,-0.2673576,1.73073,-0.09471652,0.2491895,1.728024,-0.01103539,-0.2606689,1.689446,-0.1699258,0.009534029,1.643059,0.3177128,0.02138918,1.682577,NA,NA,Open,Open,
-0.01757813,-0.7324219,0.6362305,-0.1113281,1.07373,0.3886719,-4,-7,-7,-7,-6,-7,38,-4,63,10,17,9,0,-3,9,25,18.4375,18.4375,18.4375,-58.375,-58.375,-58.375,3.791027,4.853979,7.804392,6.811884,4.888932,6.798791,-0.1700442,0.003487757,1.328051,0.3209791,0.05143133,1.365221,0.08422679,0.5288903,1.714018,-0.129261,0.02838716,1.297545,0.2684838,0.06137917,1.328236,0.06799712,0.060322,1.743673,0.07048021,-0.2676249,1.730165,-0.09486499,0.249319,1.727696,-0.01078385,-0.2610427,1.687908,-0.1304072,0.01809478,1.695168,0.302524,0.001852963,1.699426,NA,NA,Open,Open,
0.046875,-0.8964844,0.7197266,0.3383789,1.131836,0.5126953,-3,1,-20,-8,-26,7,44,0,15,6,4,0,2,-3,-3,27,12.75,12.75,12.75,-32.0625,-32.0625,-32.0625,3.796227,4.724091,7.806902,6.775103,4.654735,6.749663,-0.1700933,-0.05846562,1.332629,0.3256881,-0.01278179,1.363156,0.08455396,0.5288919,1.714247,-0.1288347,-0.02944503,1.276538,0.2678554,0.0009673643,1.312917,0.06808878,0.06024626,1.743469,0.07051536,-0.2678378,1.729432,-0.09521095,0.249077,1.727524,-0.01077834,-0.2612557,1.686352,-0.1370691,0.003471981,1.693764,0.2957262,-0.05068504,1.68166,NA,NA,Unknown,Open,
0.9672852,-0.9384766,0.4873047,0.4487305,1.311035,0.6459961,-1,1,0,-1,3,-2,4,4,-45,-7,-12,-8,-1,2,-3,-6,-19.375,-19.375,-19.375,-20.75,-20.75,-20.75,3.774508,4.344223,7.855031,6.767495,4.573722,6.733058,-0.1708224,-0.1108812,1.34056,0.3311892,-0.06796303,1.372313,0.08480366,0.5288926,1.714482,-0.116819,-0.08674064,1.303,0.278715,-0.0489909,1.315846,0.06820447,0.06017867,1.743311,0.07056962,-0.267927,1.728796,-0.09567998,0.2488058,1.727349,-0.01073187,-0.261321,1.68547,-0.1482467,-0.01478997,1.695371,0.2828449,0.02095772,1.733859,NA,NA,Unknown,Open,
0.3579102,-1.148926,1.170898,0.2548828,1.263184,0.5581055,5,2,4,-3,9,7,-4,16,13,-2,1,-2,-2,-11,1,11,-6.5625,-6.5625,-6.5625,-24.4375,-24.4375,-24.4375,3.767352,4.227858,7.853217,6.748755,4.468853,6.714874,-0.1752005,-0.1485537,1.351716,0.3371921,-0.1046784,1.375609,0.085269,0.528846,1.714948,-0.1173644,-0.1186471,1.3174,0.2785319,-0.09054842,1.3287,0.06826556,0.06004276,1.743087,0.07064291,-0.2680891,1.728173,-0.09619889,0.2483614,1.727053,-0.01066103,-0.2615179,1.684425,-0.1511322,-0.02528949,1.698731,0.2885916,-0.0504927,1.725273,NA,NA,Unknown,Open,
0.2109375,-1.084473,1.118164,0.06298828,1.03418,0.4360352,2,-2,1,-9,-9,3,-66,4,16,-5,-6,-3,-2,4,5,-4,-18.9375,-18.9375,-18.9375,-7.75,-7.75,-7.75,3.757947,4.211519,7.852224,6.736359,4.4907,6.729554,-0.1668942,-0.168501,1.371435,0.3355125,-0.1296477,1.390391,0.0856657,0.5289531,1.714912,-0.1077543,-0.1441835,1.343154,0.2753714,-0.115209,1.345,0.06835619,0.05989284,1.741994,0.07060761,-0.2681918,1.726967,-0.09693017,0.2479698,1.726063,-0.0107391,-0.2615013,1.682936,-0.1545332,-0.03323555,1.705297,0.2862824,-0.04952744,1.732915,NA,NA,Unknown,Unknown,
0.1938477,-0.8867188,0.7670898,0.1030273,0.878418,0.425293,-2,-2,8,2,2,8,-24,1,-10,-4,-2,-1,4,1,-2,-1,-4.9375,-4.9375,-4.9375,13.0625,13.0625,13.0625,3.738734,4.221227,7.835752,6.743134,4.526864,6.743364,-0.1646929,-0.1650976,1.374164,0.3342377,-0.1266337,1.392336,0.08584352,0.5289958,1.714803,-0.1072555,-0.1425776,1.340667,0.2757449,-0.111565,1.342455,0.0684405,0.05988169,1.741088,0.07060751,-0.2682168,1.726508,-0.09732375,0.2479451,1.725251,-0.01075209,-0.2614988,1.682451,-0.1556517,-0.03368472,1.706803,0.2860889,-0.0493429,1.733222,NA,NA,Unknown,Unknown,
0.2338867,-0.6835938,0.6845703,0.2319336,0.8505859,0.4140625,0,1,-2,1,-5,-7,1,-5,25,-2,-6,-5,-5,-4,-5,9,-9,-9,-9,16.375,16.375,16.375,3.732188,4.264922,7.833426,6.758828,4.547374,6.761119,-0.1681746,-0.1598435,1.374867,0.3324451,-0.1224352,1.392215,0.08603762,0.5291858,1.714637,-0.1055866,-0.1361461,1.343455,0.2711161,-0.106502,1.348769,0.06850682,0.05990808,1.740665,0.07060605,-0.2682267,1.72644,-0.09756231,0.2478667,1.724829,-0.0107599,-0.2615053,1.68241,-0.1572624,-0.03366064,1.707925,0.2858772,-0.04877087,1.733752,NA,NA,Unknown,Unknown,
0.4702148,-0.6166992,0.6479492,0.3261719,0.7856445,0.4116211,0,0,3,-1,2,-2,-4,-7,6,-5,-1,-2,-5,-2,-5,-12,-5.3125,-5.3125,-5.3125,10.625,10.625,10.625,3.709449,4.311568,7.847547,6.765866,4.549117,6.78143,-0.1735224,-0.1537535,1.371541,0.3302692,-0.1181377,1.391866,0.08620819,0.5293601,1.714342,-0.1110821,-0.1263508,1.345364,0.2697191,-0.1020815,1.346578,0.06850837,0.05988242,1.740475,0.07061717,-0.2682364,1.726388,-0.09786522,0.2478577,1.724296,-0.01076881,-0.2615086,1.682377,-0.1588234,-0.03262834,1.707635,0.2848901,-0.0464196,1.73695,NA,NA,Unknown,Open,
0.4702148,-0.6166992,0.6479492,0.3261719,0.7856445,0.4116211,0,0,3,-1,2,-2,-4,-7,6,-5,-1,-2,-5,-2,-5,-12,-5.3125,-5.3125,-5.3125,10.625,10.625,10.625,3.709449,4.311568,7.847547,6.765866,4.549117,6.78143,-0.1767022,-0.1473351,1.364805,0.3262542,-0.1137003,1.388861,0.08642849,0.5294797,1.713459,-0.1140079,-0.1219045,1.336818,0.2654729,-0.1004005,1.347909,0.06854878,0.05984636,1.740153,0.07062114,-0.2682515,1.726323,-0.09825577,0.248103,1.723172,-0.01077021,-0.2615182,1.682355,-0.160198,-0.03141759,1.706589,0.2851253,-0.04539002,1.736976,NA,NA,Unknown,Open,
0.5170898,-0.5644531,0.6269531,0.3383789,0.6987305,0.4199219,0,-1,-4,1,0,3,6,1,-8,-4,-5,-3,-2,8,-3,-5,3.875,3.875,3.875,12.875,12.875,12.875,3.712558,4.316615,7.850596,6.769873,4.532476,6.800067,-0.1805186,-0.1459882,1.359537,0.3244133,-0.1153892,1.387055,0.08659766,0.529689,1.713116,-0.1175154,-0.1181269,1.335182,0.2642376,-0.09916391,1.3474,0.06862694,0.05987564,1.739893,0.0706232,-0.2682522,1.726318,-0.09845114,0.2482801,1.722596,-0.01077401,-0.2615185,1.682358,-0.1619559,-0.03066945,1.705339,0.2859874,-0.04425254,1.736389,NA,NA,Unknown,Unknown,
0.5048828,-0.5214844,0.5463867,0.3642578,0.6767578,0.3984375,-1,-1,-3,-3,0,0,9,1,-19,-2,-3,-3,-5,-31,-7,-4,4.8125,4.8125,4.8125,13.8125,13.8125,13.8125,3.718287,4.313739,7.861301,6.774499,4.488281,6.817018,-0.1816471,-0.1443972,1.358387,0.3203206,-0.1196501,1.387375,0.08662269,0.5297602,1.712939,-0.123993,-0.1170159,1.341077,0.2655704,-0.1026405,1.342351,0.06857756,0.0598717,1.739799,0.07061597,-0.2682618,1.72634,-0.09870812,0.248269,1.722126,-0.01082152,-0.2615386,1.682463,-0.1634028,-0.03041891,1.704148,0.2866516,-0.04260693,1.736022,NA,NA,Unknown,Unknown,
0.5200195,-0.5092773,0.5356445,0.4204102,0.7192383,0.3789063,-1,-1,0,-1,2,1,-4,0,-1,2,-2,-1,-1,-1,-3,-3,11.6875,11.6875,11.6875,11.25,11.25,11.25,3.721851,4.26772,7.887767,6.782439,4.413555,6.829559,-0.1812934,-0.1476259,1.353379,0.313993,-0.1264435,1.383177,0.08667953,0.5298258,1.712722,-0.1241672,-0.1251229,1.325727,0.2547267,-0.1172471,1.349286,0.06857088,0.05986087,1.739757,0.07061405,-0.2682931,1.726429,-0.09903352,0.2482719,1.721708,-0.01084595,-0.2616024,1.682622,-0.1643816,-0.03043568,1.70371,0.2878786,-0.04177812,1.733405,NA,NA,Unknown,Unknown,
0.5107422,-0.487793,0.5302734,0.4111328,0.7241211,0.3647461,1,-1,-4,0,-2,3,-1,0,-6,-4,-3,-3,-2,-3,-1,-2,7.4375,7.4375,7.4375,-2.5,-2.5,-2.5,3.724424,4.237229,7.894535,6.781166,4.322634,6.836947,-0.1756339,-0.1549736,1.347961,0.3060279,-0.1391437,1.380094,0.08668793,0.5298651,1.712594,-0.123166,-0.1389128,1.329857,0.2529597,-0.1334248,1.352692,0.06861287,0.05987293,1.73957,0.07064744,-0.2682963,1.726446,-0.0991791,0.2480811,1.721039,-0.01083496,-0.2616201,1.682657,-0.1650995,-0.03144753,1.703018,0.2885024,-0.04165985,1.732591,NA,NA,Lasso,Unknown,
0.5776367,-0.4775391,0.5263672,0.5136719,0.6723633,0.4179688,-2,-1,3,-3,-4,-2,-4,-2,-1,-4,-4,-3,-2,2,0,-3,-12.4375,-12.4375,-12.4375,-23.5,-23.5,-23.5,3.713917,4.093014,7.907303,6.738953,4.156539,6.85197,-0.1684425,-0.2025948,1.359859,0.2868192,-0.1896683,1.388963,0.08666942,0.5301858,1.711978,-0.1180316,-0.1792273,1.355667,0.2464933,-0.1821085,1.383957,0.06854304,0.05983075,1.739183,0.07068809,-0.2683508,1.726447,-0.09965225,0.247888,1.719888,-0.01083548,-0.2617318,1.68274,-0.1682316,-0.04128598,1.70029,0.2919209,-0.04562638,1.726453,NA,NA,Unknown,Lasso,
0.6606445,-0.5180664,0.5478516,0.5541992,0.7246094,0.4213867,-2,-2,-2,-3,-4,-1,-1,2,-2,-4,-1,-3,-1,-2,-1,-1,-17.25,-17.25,-17.25,3.125,3.125,3.125,3.702514,3.969729,7.898618,6.7237,4.038304,6.866231,-0.1645843,-0.2343605,1.376891,0.2775467,-0.2240155,1.40589,0.08668824,0.5301442,1.711538,-0.1218061,-0.2105397,1.359,0.2918823,-0.1942778,1.37,0.06861211,0.05966475,1.738912,0.07074288,-0.2684908,1.726429,-0.09983066,0.2477052,1.719381,-0.01082453,-0.2619262,1.68278,-0.1700045,-0.04700419,1.698822,0.2815908,-0.01053935,1.733625,NA,NA,Unknown,Unknown,
0.6621094,-0.5327148,0.5664063,0.6274414,0.7602539,0.4008789,1,-4,-6,-4,-8,-4,-10,-45,-3,-6,-6,-4,-2,-2,-1,0,-18.5,-18.5,-18.5,-0.375,-0.375,-0.375,3.709597,3.846007,7.863772,6.719984,3.92505,6.881252,-0.154707,-0.2652128,1.407102,0.2695436,-0.2536187,1.435207,0.08673365,0.5300151,1.711234,-0.1150897,-0.2497834,1.388182,0.2865582,-0.2275625,1.378143,0.06869148,0.05957114,1.738757,0.07090002,-0.2687276,1.726427,-0.09988385,0.247725,1.719012,-0.01059396,-0.2622103,1.682813,-0.1605089,0.0002083605,1.708599,0.2813663,-0.01113727,1.733652,NA,NA,Unknown,Unknown,
0.6591797,-0.496582,0.5429688,0.6660156,0.6796875,0.4160156,-16,-7,-3,-3,-5,-8,-26,-49,-1,3,3,2,-2,0,-2,-1,-19.125,-19.125,-19.125,2.5,2.5,2.5,3.712535,3.712277,7.830217,6.704118,3.817119,6.903087,-0.1459744,-0.2937153,1.437934,0.2616249,-0.2820359,1.456743,0.0867429,0.5300598,1.711105,-0.1116823,-0.3089769,1.418556,0.2756215,-0.2639444,1.409786,0.06869695,0.05941724,1.738556,0.07095441,-0.2690377,1.726416,-0.1000529,0.2474609,1.718751,-0.01049171,-0.2626206,1.682886,-0.160284,0.000206809,1.708757,0.2799535,-0.0242017,1.734257,NA,NA,Unknown,Unknown,
0.6591797,-0.496582,0.5429688,0.6660156,0.6796875,0.4160156,-16,-7,-3,-3,-5,-8,-26,-49,-1,3,3,2,-2,0,-2,-1,-19.125,-19.125,-19.125,2.5,2.5,2.5,3.712535,3.712277,7.830217,6.704118,3.817119,6.903087,-0.1424151,-0.3121678,1.476284,0.2539203,-0.3100203,1.478446,0.08678891,0.5301641,1.71092,-0.1074032,-0.3080343,1.4465,0.2707933,-0.2915516,1.437783,0.06868482,0.05938251,1.738449,0.07089661,-0.2692099,1.7264,-0.1003553,0.2471297,1.718357,-0.01053655,-0.2628864,1.683002,-0.1591997,-0.001000875,1.70993,0.2790572,-0.02907594,1.734746,NA,NA,Unknown,Unknown,
0.7822266,-0.6123047,0.5151367,0.7802734,0.7124023,0.3867188,-16,-2,0,2,3,5,2,-20,-10,-10,-10,-4,0,-2,-3,-3,-18,-18,-18,33.875,33.875,33.875,3.685592,3.532509,7.821789,6.715438,3.721615,6.927286,-0.1392965,-0.3195925,1.508218,0.2493141,-0.3296627,1.502109,0.08689303,0.5301879,1.710703,-0.1113666,-0.316326,1.472867,0.2753967,-0.3530706,1.487667,0.06871626,0.05926649,1.738126,0.07086199,-0.2694018,1.726282,-0.1004084,0.246873,1.71794,-0.01054815,-0.263056,1.682963,-0.1570588,-0.00260193,1.710814,0.2779056,-0.03221895,1.735278,NA,NA,Unknown,Unknown,
0.809082,-0.5888672,0.4794922,0.7211914,0.7167969,0.3129883,0,-3,-3,-6,-11,-10,-12,-3,16,1,-1,0,-2,-1,1,4,-13.5625,-13.5625,-13.5625,17.0625,17.0625,17.0625,3.678873,3.481211,7.819772,6.721468,3.650752,6.960546,-0.1324839,-0.3319898,1.535282,0.2445918,-0.3447504,1.527372,0.08703506,0.5301578,1.710546,-0.0954654,-0.3271579,1.568286,0.2681827,-0.3881609,1.509444,0.06869022,0.05921917,1.738001,0.07075436,-0.2695237,1.726264,-0.1004902,0.2466261,1.717706,-0.01064768,-0.263199,1.683008,-0.1529564,-0.006652495,1.712474,0.2767067,-0.03500612,1.736145,NA,NA,Unknown,Unknown,
0.8085938,-0.472168,0.4311523,0.7182617,0.6308594,0.3032227,0,-1,-4,-2,4,-1,-3,-8,1,0,1,0,1,-3,0,-1,-5.75,-5.75,-5.75,8.4375,8.4375,8.4375,3.667316,3.386989,7.828907,6.724392,3.589073,6.971942,-0.1264207,-0.334832,1.561728,0.2420624,-0.3525952,1.545784,0.08734111,0.5302281,1.710031,-0.08721675,-0.3260633,1.587706,0.2698183,-0.3923131,1.5274,0.06859276,0.05920158,1.737583,0.07066099,-0.2695774,1.726168,-0.1006031,0.2462077,1.717179,-0.01069181,-0.2632346,1.682977,-0.1499011,-0.01019994,1.713448,0.275671,-0.03657179,1.736463,NA,NA,Unknown,Unknown,
0.9306641,-0.4790039,0.3237305,0.765625,0.6040039,0.2626953,6,-2,-1,-2,-3,-4,-4,-4,0,-1,-1,-1,-2,1,0,-1,-22.625,-22.625,-22.625,2.8125,2.8125,2.8125,3.611792,3.295261,7.866966,6.736895,3.525395,6.965283,-0.1175565,-0.3316185,1.58817,0.239978,-0.3541662,1.56038,0.08756243,0.5302883,1.709547,-0.06874117,-0.2590267,1.600824,0.2640411,-0.3389061,1.529071,0.068539,0.059189,1.736904,0.07061169,-0.2695649,1.725956,-0.10079,0.2455209,1.716282,-0.01070458,-0.2632362,1.682871,-0.1475842,-0.01064494,1.71393,0.2736365,-0.03431308,1.736794,NA,NA,NotTracked,Unknown,
0.9306641,-0.4790039,0.3237305,0.765625,0.6040039,0.2626953,6,-2,-1,-2,-3,-4,-4,-4,0,-1,-1,-1,-2,1,0,-1,-22.625,-22.625,-22.625,2.8125,2.8125,2.8125,3.611792,3.295261,7.866966,6.736895,3.525395,6.965283,-0.1128796,-0.3329893,1.601123,0.2363005,-0.3615887,1.570609,0.08777041,0.5303484,1.708973,-0.06911474,-0.3383364,1.59575,0.2743026,-0.3942829,1.5574,0.06845321,0.05910361,1.736527,0.07053622,-0.2696553,1.725828,-0.1007972,0.2447714,1.715355,-0.01074639,-0.2632881,1.682834,-0.1458126,-0.01061264,1.713707,0.2717034,-0.03579836,1.737234,NA,NA,NotTracked,Unknown,
0.9379883,-0.4404297,0.1352539,0.8364258,0.5283203,0.1523438,-2,1,-1,0,-1,1,1,-3,-1,0,1,-1,-2,-1,-1,0,-83.25,-83.25,-83.25,49,49,49,3.48844,3.176305,7.899193,6.792325,3.453202,6.945566,-0.1095583,-0.335218,1.609242,0.2322355,-0.369262,1.576982,0.08798786,0.5303713,1.708505,-0.06230665,-0.3245968,1.596884,0.2731062,-0.3997246,1.564593,0.06845353,0.0591097,1.73627,0.07050331,-0.2696569,1.725776,-0.1006913,0.2444515,1.714758,-0.01076069,-0.2632971,1.682795,-0.1439503,-0.009884256,1.713319,0.2704955,-0.03643367,1.737008,NA,NA,NotTracked,Unknown,
0.9550781,-0.4047852,0.128418,0.8930664,0.4990234,0.1352539,-3,0,-1,-3,0,0,0,-6,-1,-1,-1,-1,0,-1,0,0,-64.75,-64.75,-64.75,29.75,29.75,29.75,3.390603,3.123328,7.918677,6.85275,3.380468,6.919134,-0.1094549,-0.337254,1.615358,0.2321001,-0.3760429,1.581609,0.08819056,0.5305039,1.708175,-0.05994593,-0.3156786,1.597523,0.2709363,-0.4191862,1.5677,0.06845478,0.05912592,1.736105,0.07047008,-0.2696538,1.725763,-0.1005375,0.2441859,1.714423,-0.01077381,-0.263292,1.682798,-0.1429244,-0.01008685,1.713093,0.2690843,-0.03738864,1.736616,NA,NA,NotTracked,Unknown,
0.9472656,-0.2998047,0.1152344,0.8735352,0.4589844,0.09033203,-2,-1,-1,-3,0,-1,-2,-4,0,-2,-1,-2,-1,0,-1,-1,-40.75,-40.75,-40.75,5.875,5.875,5.875,3.327763,3.090003,7.930548,6.889627,3.333947,6.898113,-0.1028866,-0.3804903,1.609959,0.2330135,-0.3736325,1.588892,0.088319,0.5306724,1.707759,-0.0534732,-0.3491604,1.592118,0.2781313,-0.3939525,1.582143,0.06845553,0.0592627,1.735891,0.07041984,-0.269481,1.725754,-0.1004366,0.2441298,1.714057,-0.01077378,-0.2631517,1.682829,-0.1419548,-0.0102318,1.712765,0.2682543,-0.03780958,1.73608,NA,NA,NotTracked,Unknown,
0.9848633,-0.3984375,0.1669922,0.9199219,0.4111328,0.1435547,-2,-1,-1,-1,-1,1,1,0,0,-2,-1,0,-2,-2,-1,-1,-33.5,-33.5,-33.5,-15,-15,-15,3.265011,3.073647,7.955218,6.882315,3.305043,6.894937,-0.1032931,-0.3803164,1.6156,0.2344584,-0.3780333,1.594889,0.08843909,0.5307388,1.707602,-0.05163949,-0.3637652,1.593643,0.2773609,-0.4000655,1.583778,0.06841616,0.05924946,1.735834,0.07031406,-0.2695328,1.725826,-0.1003558,0.2439576,1.713724,-0.01087802,-0.2632224,1.682989,-0.1416698,-0.01017969,1.712688,0.2675318,-0.03852272,1.735614,NA,NA,NotTracked,Unknown,
0.9536133,-0.3720703,0.2197266,0.8710938,0.4169922,0.2128906,1,-2,-2,-1,0,0,1,-1,0,-1,-1,-2,-1,-2,-1,0,-7.625,-7.625,-7.625,-34.625,-34.625,-34.625,3.250993,3.072609,7.966149,6.819478,3.305105,6.92376,-0.1025879,-0.3863834,1.614126,0.236761,-0.3877217,1.602784,0.08852845,0.5308825,1.707045,-0.05225401,-0.3701192,1.594763,0.2840179,-0.4012493,1.597,0.06843604,0.05924088,1.735695,0.07027588,-0.2695569,1.725948,-0.1003773,0.2438514,1.713354,-0.01088877,-0.263272,1.683243,-0.1408919,-0.01018464,1.712862,0.2665326,-0.03995958,1.734517,NA,NA,NotTracked,Unknown,
0.909668,-0.3032227,0.2192383,0.8569336,0.4101563,0.2412109,-2,-1,-1,-1,-1,-1,0,1,-1,1,-1,0,-1,-1,-1,-1,22.0625,22.0625,22.0625,-23.9375,-23.9375,-23.9375,3.294347,3.078978,7.965686,6.776858,3.290045,6.932881,-0.1027968,-0.3870565,1.613063,0.2382999,-0.3899773,1.606534,0.08854002,0.5309137,1.706837,-0.05367183,-0.3666388,1.594944,0.2847315,-0.4232611,1.602923,0.06844446,0.05924061,1.735659,0.07026531,-0.2695689,1.726049,-0.1003857,0.2438401,1.713325,-0.01086475,-0.2632898,1.683499,-0.1404623,-0.01031474,1.713278,0.2664092,-0.04016128,1.734204,NA,NA,NotTracked,Unknown,
0.9111328,-0.3198242,0.2036133,0.8725586,0.4018555,0.2436523,-1,-2,0,-1,0,0,-1,2,-1,-1,-1,-1,1,-2,-1,-1,16.8125,16.8125,16.8125,-19.5,-19.5,-19.5,3.31111,3.086353,7.970425,6.762998,3.272357,6.921951,-0.103031,-0.3879213,1.611669,0.240857,-0.392444,1.609004,0.08857856,0.5309495,1.70665,-0.05246229,-0.3699974,1.594914,0.2907834,-0.4075186,1.614158,0.06847453,0.05923567,1.735619,0.07027207,-0.2695863,1.726243,-0.1003598,0.2438274,1.713291,-0.0108433,-0.2633066,1.68387,-0.14019,-0.01029648,1.713472,0.2662369,-0.04096043,1.733768,NA,NA,NotTracked,Unknown,
0.9296875,-0.2924805,0.1806641,0.8779297,0.3974609,0.2197266,-2,-1,-1,-2,0,-1,-2,0,-2,0,-1,-2,0,0,-2,1,-6.875,-6.875,-6.875,2.3125,2.3125,2.3125,3.300501,3.085737,7.980834,6.771227,3.259014,6.906161,-0.1032242,-0.3878428,1.612141,0.2412653,-0.3914937,1.609987,0.08857667,0.5309137,1.706488,-0.0525999,-0.3743359,1.594662,0.2915423,-0.3942199,1.609118,0.0685051,0.05921373,1.735597,0.07035023,-0.2696685,1.726437,-0.1004063,0.2437352,1.713286,-0.01072461,-0.2633833,1.684198,-0.1396978,-0.01051877,1.713973,0.2659599,-0.04145805,1.733679,NA,NA,NotTracked,Unknown,
0.9287109,-0.3144531,0.1621094,0.8862305,0.394043,0.1777344,-3,-1,1,-2,0,-1,-3,-5,0,-1,-1,-1,-2,0,0,-1,-14.1875,-14.1875,-14.1875,19.9375,19.9375,19.9375,3.281889,3.083021,7.984821,6.807693,3.25289,6.886223,-0.1031818,-0.3849987,1.610678,0.2423605,-0.391632,1.610101,0.08862725,0.5309266,1.706285,-0.05216729,-0.374653,1.594042,0.2892694,-0.4035183,1.606702,0.06853274,0.05919538,1.735533,0.07037239,-0.2697054,1.726508,-0.1004146,0.2437335,1.713261,-0.01067605,-0.2634483,1.68447,-0.1391599,-0.01098194,1.714304,0.2658054,-0.04169386,1.73345,NA,NA,NotTracked,Unknown,
0.9287109,-0.3095703,0.1538086,0.8833008,0.3959961,0.1538086,-1,-1,-1,1,-1,-1,1,-3,0,0,-1,0,-2,0,0,1,-10.75,-10.75,-10.75,23.8125,23.8125,23.8125,3.272761,3.080261,7.980258,6.842164,3.250071,6.87745,-0.102498,-0.3849302,1.612087,0.2421077,-0.3926127,1.610112,0.08868236,0.5308867,1.70599,-0.05103124,-0.3865074,1.594619,0.2890332,-0.4206144,1.6052,0.06863164,0.05918325,1.735523,0.07048103,-0.2697843,1.727014,-0.1004567,0.2436488,1.713317,-0.01052355,-0.2635704,1.685334,-0.1385093,-0.01115085,1.714902,0.2654796,-0.0412983,1.732972,NA,NA,NotTracked,Unknown,
0.9355469,-0.2988281,0.1635742,0.887207,0.3901367,0.1567383,0,-1,-2,0,-2,-1,-1,1,-1,-1,1,0,-1,-3,-1,-1,-5.9375,-5.9375,-5.9375,20.5,20.5,20.5,3.274475,3.076903,7.970126,6.861457,3.248782,6.883253,-0.1030218,-0.3846625,1.613862,0.2417375,-0.3921966,1.609574,0.08869255,0.5309129,1.705848,-0.05364453,-0.3538187,1.598923,0.2893246,-0.4112496,1.607267,0.06865494,0.05918734,1.735544,0.07050697,-0.2697858,1.727367,-0.1004554,0.2436392,1.713333,-0.01045099,-0.263599,1.685938,-0.1380908,-0.01163653,1.715103,0.2652381,-0.04177173,1.732867,NA,NA,NotTracked,Unknown,
0.9350586,-0.3032227,0.1777344,0.8769531,0.3881836,0.1728516,-1,-2,1,0,-2,-2,1,-1,-1,0,0,-2,0,0,-2,0,-2.5625,-2.5625,-2.5625,20,20,20,3.282008,3.07231,7.958472,6.872772,3.24771,6.894607,-0.1023561,-0.3849512,1.614704,0.2413297,-0.3916406,1.608617,0.08872086,0.5310435,1.705762,-0.05311204,-0.3546897,1.599818,0.2868116,-0.4046086,1.601803,0.06871058,0.05919616,1.735572,0.07060411,-0.2697721,1.727673,-0.1004459,0.2436488,1.713398,-0.0103391,-0.2635736,1.686256,-0.1378554,-0.01175513,1.715418,0.2652122,-0.04179829,1.73284,NA,NA,NotTracked,Unknown,
0.9365234,-0.2919922,0.171875,0.8779297,0.4008789,0.1738281,-1,-1,-1,-1,-1,-1,-1,-2,0,-1,0,-1,-1,-1,-1,0,-1.25,-1.25,-1.25,16.125,16.125,16.125,3.286129,3.064275,7.953002,6.886799,3.245104,6.899826,-0.102173,-0.3852284,1.616843,0.2409176,-0.3918788,1.608815,0.08873928,0.5310664,1.705774,-0.0511887,-0.3807488,1.5962,0.2873043,-0.4284036,1.60275,0.06880826,0.05922337,1.735661,0.07073022,-0.2696868,1.728273,-0.1004425,0.2436417,1.713545,-0.0101984,-0.2634735,1.686978,-0.1375493,-0.01180236,1.715843,0.2652239,-0.0418089,1.732841,NA,NA,NotTracked,Unknown,
0.9360352,-0.2890625,0.1606445,0.8808594,0.3935547,0.1533203,-1,-1,-2,-2,-1,-1,-3,0,1,-2,-1,-2,-1,1,-2,0,-0.4375,-0.4375,-0.4375,10.375,10.375,10.375,3.286618,3.057091,7.951838,6.903008,3.241872,6.897658,-0.1016664,-0.3853104,1.618201,0.2410049,-0.3919394,1.609537,0.08877092,0.5310763,1.705787,-0.05341283,-0.3489966,1.599761,0.287484,-0.3963494,1.60644,0.0689001,0.0592195,1.735795,0.07083259,-0.2697092,1.72884,-0.100375,0.2436633,1.71369,-0.01009625,-0.2635099,1.687532,-0.1372733,-0.01203321,1.716375,0.265185,-0.04116324,1.732852,NA,NA,NotTracked,Unknown,
0.9335938,-0.2963867,0.1582031,0.8740234,0.3999023,0.1503906,0,-2,0,0,-1,0,-2,-3,-1,-2,-1,0,-1,0,-1,0,0,0,0,5.6875,5.6875,5.6875,3.285508,3.05255,7.952919,6.913266,3.240483,6.895399,-0.1010059,-0.3878958,1.619086,0.2408455,-0.3912571,1.609255,0.08885917,0.5310904,1.705874,-0.05277315,-0.3730749,1.603,0.289978,-0.3931598,1.611917,0.06896308,0.05916634,1.735965,0.07100271,-0.2698238,1.72996,-0.1003281,0.2435538,1.713953,-0.009934807,-0.2636287,1.68859,-0.1367065,-0.01180165,1.71747,0.2650715,-0.04142568,1.732886,NA,NA,NotTracked,Unknown,
0.9423828,-0.300293,0.1660156,0.8867188,0.3994141,0.1508789,-3,-1,-3,0,-1,-2,-2,-1,0,-1,-1,-2,-1,0,-1,0,0.6875,0.6875,0.6875,-2.25,-2.25,-2.25,3.285791,3.050296,7.953381,6.920591,3.236531,6.888849,-0.1013655,-0.3882416,1.618562,0.2407787,-0.3911598,1.608683,0.08895523,0.5311882,1.705893,-0.05212895,-0.3609802,1.600406,0.2872981,-0.4318126,1.607,0.06898604,0.05917323,1.736008,0.07105098,-0.2697899,1.73031,-0.1003249,0.2435469,1.713981,-0.009867963,-0.2636254,1.689025,-0.1364416,-0.01204238,1.717658,0.2650686,-0.04143726,1.732886,NA,NA,NotTracked,Unknown,
0.9296875,-0.2924805,0.1699219,0.8813477,0.3911133,0.1606445,-1,-1,-3,-1,-1,-2,0,-1,-2,-1,-2,-1,0,0,0,-1,2.875,2.875,2.875,-3.8125,-3.8125,-3.8125,3.28943,3.051145,7.952212,6.918523,3.234342,6.889098,-0.1012525,-0.3882388,1.618699,0.2409219,-0.3905285,1.609289,0.08904484,0.5312102,1.70593,-0.05265839,-0.3812148,1.601266,0.2860991,-0.3893513,1.601897,0.06901671,0.05917542,1.736063,0.07113547,-0.2697839,1.730684,-0.1003111,0.2435403,1.714073,-0.009771484,-0.2636585,1.689465,-0.1360065,-0.01191508,1.718248,0.2650568,-0.04141381,1.732861,NA,NA,NotTracked,Unknown,
0.9331055,-0.2900391,0.1621094,0.8842773,0.4057617,0.1552734,0,-1,0,-2,0,-1,1,0,0,-2,0,-1,0,0,-1,-2,0.3125,0.3125,0.3125,-0.25,-0.25,-0.25,3.289925,3.050833,7.9526,6.921642,3.230208,6.883602,-0.1009318,-0.3880542,1.618241,0.2411172,-0.3904643,1.609273,0.08914884,0.531221,1.705923,-0.05293952,-0.3467742,1.6009,0.2888388,-0.4102511,1.609222,0.06904058,0.059172,1.73608,0.07117683,-0.2697904,1.730907,-0.1002931,0.2435288,1.714157,-0.009729293,-0.2636716,1.689733,-0.1358745,-0.01190628,1.718492,0.2650846,-0.04145457,1.732831,NA,NA,NotTracked,Unknown,
