ALX,ALY,ALZ,ARX,ARY,ARZ,EMG0L,EMG1L,EMG2L,EMG3L,EMG4L,EMG5L,EMG6L,EMG7L,EMG0R,EMG1R,EMG2R,EMG3R,EMG4R,EMG5R,EMG6R,EMG7R,GLX,GLY,GLZ,GRX,GRY,GRZ,ORL,OPL,OYL,ORR,OPR,OYR,LHNX,LHNY,LHNZ,RHNX,RHNY,RHNZ,HX,HY,HZ,LTX,LTY,LTZ,RTX,RTY,RTZ,SpineMidX,SpineMidY,SpineMidZ,SpineBaseX,SpineBaseY,SpineBaseZ,ShoulderLeftX,ShoulderLeftY,ShoulderLeftZ,ShoulderRightX,ShoulderRightY,ShoulderRightZ,ElbowLeftX,ElbowLeftY,ElbowLeftZ,ElbowRightX,ElbowRightY,ElbowRightZ,Myo_Pose_left,Myo_Pose_Right,Kinect_pose_left,Kinect_pose_right
0.940918,-0.2900391,0.1606445,0.8989258,0.3647461,0.08642578,-1,-1,-1,0,-1,-2,-2,-2,-1,-2,0,0,-1,-2,-1,-3,1.4375,1.4375,1.4375,-2.5625,-2.5625,-2.5625,3.2331,3.037066,7.914535,7.099112,3.135372,5.128635,-0.1067695,-0.3978309,1.625977,0.2398194,-0.4119572,1.623692,0.08271366,0.5272028,1.705102,-0.1565226,-0.401023,1.627297,0.1897964,-0.39079,1.605101,0.06820545,0.05620435,1.741431,0.07100032,-0.2724785,1.738387,-0.1040936,0.2373667,1.717326,-0.01076566,-0.2664525,1.696627,-0.1376462,-0.02192254,1.721661,0.2592306,-0.03262166,1.742366,NA,NA,NotTracked,Unknown,
0.940918,-0.2900391,0.1606445,0.9008789,0.362793,0.09521484,-1,-1,-1,0,-1,-2,-2,-2,-1,-1,-1,-1,-2,0,-1,1,1.4375,1.4375,1.4375,0.8125,0.8125,0.8125,3.2331,3.037066,7.914535,7.096077,3.135303,5.13116,-0.1070525,-0.3977903,1.626813,0.2399866,-0.4121173,1.624298,0.08272426,0.5271842,1.70512,-0.1566946,-0.4026541,1.626695,0.1889665,-0.4037438,1.607747,0.06819852,0.05617807,1.741485,0.07099964,-0.2724952,1.738417,-0.1040661,0.2372461,1.717422,-0.01077132,-0.266476,1.696659,-0.137644,-0.02187821,1.721737,0.2591427,-0.03245019,1.742452,NA,NA,NotTracked,Unknown,
0.940918,-0.2900391,0.1606445,0.8984375,0.3618164,0.09130859,-1,-1,-1,0,-1,-2,-2,-2,-1,-2,-3,-1,0,-1,-1,0,1.4375,1.4375,1.4375,0.0625,0.0625,0.0625,3.2331,3.037066,7.914535,7.096077,3.135303,5.13116,-0.1071266,-0.3979411,1.625738,0.2394707,-0.4126384,1.623576,0.08272816,0.5271583,1.705116,-0.1555588,-0.4033389,1.623196,0.1889389,-0.3893465,1.605921,0.06821707,0.0561697,1.741504,0.07101624,-0.2724981,1.738432,-0.1040459,0.2372424,1.717437,-0.01076198,-0.2664806,1.696661,-0.1376342,-0.02184603,1.721888,0.2591412,-0.03258856,1.742466,NA,NA,NotTracked,Unknown,
0.940918,-0.2900391,0.1606445,0.9033203,0.362793,0.09667969,-1,-1,-1,0,-1,-2,-2,-2,-1,0,1,1,-3,-1,-1,0,1.4375,1.4375,1.4375,0.75,0.75,0.75,3.2331,3.037066,7.914535,7.096077,3.135303,5.13116,-0.1067979,-0.395433,1.625378,0.2390095,-0.4126295,1.622712,0.08271715,0.5271636,1.70513,-0.156788,-0.387906,1.626095,0.1893929,-0.3944716,1.605462,0.06820977,0.05616996,1.741502,0.07101377,-0.2725033,1.738428,-0.1039964,0.2372114,1.717426,-0.01077056,-0.2664991,1.696664,-0.1376772,-0.02175462,1.721872,0.2591363,-0.03260338,1.74247,NA,NA,NotTracked,Unknown,
0.940918,-0.2900391,0.1606445,0.8999023,0.3676758,0.08935547,-1,-1,-1,0,-1,-2,-2,-2,0,-2,-1,0,0,-2,-1,0,1.4375,1.4375,1.4375,-0.25,-0.25,-0.25,3.2331,3.037066,7.914535,7.100113,3.135722,5.128906,-0.107154,-0.397733,1.625345,0.2392263,-0.4127169,1.622959,0.08273347,0.5271568,1.705135,-0.1574424,-0.3862377,1.631,0.1896477,-0.395354,1.605798,0.06820787,0.05616704,1.74151,0.07100151,-0.2725056,1.738433,-0.1039756,0.2372026,1.717441,-0.0107856,-0.2665005,1.696681,-0.1376638,-0.02175815,1.721884,0.259119,-0.03280711,1.742486,NA,NA,NotTracked,Unknown,
0.940918,-0.2900391,0.1606445,0.8964844,0.3613281,0.08300781,-1,-1,-1,0,-1,-2,-2,-2,-1,-2,0,-2,-1,-2,-1,1,1.4375,1.4375,1.4375,-1.3125,-1.3125,-1.3125,3.2331,3.037066,7.914535,7.100391,3.136052,5.127604,-0.1070284,-0.3984562,1.625761,0.2396524,-0.4122568,1.623487,0.08270627,0.5271825,1.705239,-0.1558196,-0.3862447,1.625673,0.1889543,-0.3991662,1.604946,0.0682126,0.05616179,1.741526,0.07098754,-0.2725187,1.738446,-0.1039595,0.2372184,1.717508,-0.0108119,-0.2665302,1.696718,-0.1376653,-0.02182758,1.721904,0.2591261,-0.03316693,1.742512,NA,NA,NotTracked,Unknown,
0.940918,-0.2900391,0.1606445,0.9023438,0.3632813,0.08496094,-1,-1,-1,0,-1,-2,-2,-2,-1,-1,0,0,0,0,-1,0,1.4375,1.4375,1.4375,-1.625,-1.625,-1.625,3.2331,3.037066,7.914535,7.101157,3.135644,5.126436,-0.1072273,-0.3984666,1.625559,0.2400809,-0.4120101,1.622918,0.08270808,0.5271991,1.705294,-0.1557437,-0.3845539,1.627255,0.190139,-0.3940101,1.605256,0.06821343,0.05614629,1.741552,0.07097185,-0.2725334,1.738451,-0.1039402,0.2371958,1.717562,-0.01082724,-0.2665398,1.696721,-0.1376635,-0.02185585,1.721919,0.2590719,-0.03340413,1.742597,NA,NA,NotTracked,Unknown,
0.940918,-0.2900391,0.1606445,0.9018555,0.3647461,0.08935547,-1,-1,-1,0,-1,-2,-2,-2,0,1,0,-1,1,0,0,-2,1.4375,1.4375,1.4375,-0.9375,-0.9375,-0.9375,3.2331,3.037066,7.914535,7.100502,3.136006,5.126102,-0.1068988,-0.3980479,1.626054,0.240143,-0.412115,1.623841,0.08272809,0.5272518,1.70539,-0.1541377,-0.3966345,1.619229,0.1911014,-0.3856009,1.604783,0.06821206,0.05615739,1.74163,0.07097095,-0.272525,1.738479,-0.1039867,0.2371476,1.717698,-0.01082265,-0.2665423,1.696773,-0.1376258,-0.02199448,1.722088,0.2590495,-0.03350932,1.74265,NA,NA,NotTracked,Unknown,
0.940918,-0.2900391,0.1606445,0.8984375,0.3696289,0.08837891,-1,-1,-1,0,-1,-2,-2,-2,-1,0,-1,-2,-2,-1,-2,-1,1.4375,1.4375,1.4375,-1.875,-1.875,-1.875,3.2331,3.037066,7.914535,7.097628,3.136697,5.127214,-0.1073601,-0.39813,1.62628,0.2396269,-0.4123364,1.624234,0.08273259,0.5273522,1.705532,-0.1559036,-0.3933711,1.625909,0.1897741,-0.3932389,1.605197,0.06820878,0.05615585,1.741707,0.07097074,-0.2725254,1.73851,-0.1040452,0.2371239,1.71782,-0.01081698,-0.2665488,1.696802,-0.1376395,-0.02199378,1.722128,0.2590638,-0.03352215,1.742677,NA,NA,NotTracked,Unknown,
0.940918,-0.2900391,0.1606445,0.8989258,0.3666992,0.08544922,-1,-1,-1,0,-1,-2,-2,-2,-4,-1,0,-3,-2,-4,-25,3,1.4375,1.4375,1.4375,-2.4375,-2.4375,-2.4375,3.2331,3.037066,7.914535,7.095406,3.137437,5.127407,-0.1069245,-0.3982679,1.625997,0.2391143,-0.4119967,1.624008,0.08274656,0.527369,1.705601,-0.1573036,-0.4178731,1.625556,0.1889838,-0.3765593,1.605,0.0682113,0.05615008,1.741733,0.07097042,-0.2725282,1.738521,-0.1040918,0.237159,1.71793,-0.0108146,-0.2665541,1.696811,-0.1376146,-0.02198916,1.722171,0.2590657,-0.03359093,1.742718,NA,NA,NotTracked,Unknown,
0.940918,-0.2900391,0.1606445,0.9008789,0.3676758,0.09033203,-1,-1,-1,0,-1,-2,-2,-2,0,0,-1,-1,0,2,8,0,1.4375,1.4375,1.4375,-0.25,-0.25,-0.25,3.2331,3.037066,7.914535,7.093761,3.138006,5.127498,-0.1069439,-0.397659,1.626042,0.241169,-0.3983661,1.627096,0.08282789,0.5275734,1.706037,-0.1549795,-0.3818831,1.627375,0.1903262,-0.3570487,1.60627,0.06825777,0.05614312,1.741817,0.07098432,-0.2725268,1.738544,-0.1041312,0.237159,1.718052,-0.01079703,-0.2665519,1.696833,-0.1376481,-0.02188412,1.722239,0.2595303,-0.03212366,1.742849,NA,NA,NotTracked,NotTracked,
0.940918,-0.2900391,0.1606445,0.8984375,0.3662109,0.08544922,-1,-1,-1,0,-1,-2,-2,-2,-1,-2,-2,-1,-1,-1,5,-1,1.4375,1.4375,1.4375,0.5,0.5,0.5,3.2331,3.037066,7.914535,7.094705,3.137503,5.127063,-0.106529,-0.3981837,1.626667,0.2393236,-0.4042954,1.625364,0.08286228,0.5276547,1.706124,-0.1565546,-0.3922924,1.632322,0.1898204,-0.368602,1.605715,0.06823783,0.05618737,1.741904,0.07093168,-0.2724957,1.73861,-0.1041133,0.2371935,1.718138,-0.01084679,-0.2665091,1.696896,-0.1376672,-0.02185038,1.722281,0.2595833,-0.03246888,1.743108,NA,NA,NotTracked,NotTracked,
0.940918,-0.2900391,0.1606445,0.9003906,0.3686523,0.08984375,-1,-1,-1,0,-1,-2,-2,-2,-1,-2,-1,1,-1,0,0,-1,1.4375,1.4375,1.4375,0.5,0.5,0.5,3.2331,3.037066,7.914535,7.093534,3.137943,5.128447,-0.1069226,-0.3975719,1.625433,0.2398362,-0.406556,1.62405,0.08289363,0.52764,1.706189,-0.155428,-0.3954759,1.625423,0.1893012,-0.4107726,1.606615,0.06823981,0.05618678,1.741915,0.07092743,-0.2724957,1.738612,-0.1040438,0.2371889,1.718174,-0.01084908,-0.2665074,1.696897,-0.1376868,-0.02181273,1.722287,0.2595625,-0.03247587,1.7431,NA,NA,NotTracked,NotTracked,
0.940918,-0.2900391,0.1606445,0.9008789,0.3623047,0.09472656,-1,-1,-1,0,-1,-2,-2,-2,1,2,0,0,0,-1,4,0,1.4375,1.4375,1.4375,-0.1875,-0.1875,-0.1875,3.2331,3.037066,7.914535,7.089636,3.137681,5.131855,-0.1070865,-0.3983379,1.625914,0.239722,-0.4089483,1.62474,0.08294566,0.527701,1.706299,-0.1609411,-0.4230047,1.63275,0.1890407,-0.383244,1.603407,0.06824763,0.05617767,1.741943,0.07095938,-0.2725075,1.738643,-0.1040497,0.2371006,1.718268,-0.01080981,-0.2665142,1.696926,-0.1377047,-0.02181763,1.722383,0.2595927,-0.03298971,1.743262,NA,NA,NotTracked,NotTracked,
0.940918,-0.2900391,0.1606445,0.9023438,0.3666992,0.08886719,-1,-1,-1,0,-1,-2,-2,-2,0,-2,-1,-1,-1,-2,-5,-6,1.4375,1.4375,1.4375,1.375,1.375,1.375,3.2331,3.037066,7.914535,7.091386,3.13712,5.130987,-0.1070864,-0.397812,1.626357,0.2393056,-0.4102554,1.624703,0.08295638,0.5277523,1.706391,-0.1542356,-0.3813031,1.625864,0.1884928,-0.3886455,1.603991,0.06826098,0.05619032,1.741996,0.07093934,-0.2724992,1.738669,-0.1040237,0.2370431,1.718347,-0.01082556,-0.2664783,1.696952,-0.1377118,-0.02173594,1.72249,0.2595775,-0.03320484,1.74329,NA,NA,NotTracked,NotTracked,
0.940918,-0.2900391,0.1606445,0.8959961,0.3681641,0.08740234,-1,-1,-1,0,-1,-2,-2,-2,-1,0,-1,-2,-1,-2,-2,-1,1.4375,1.4375,1.4375,1,1,1,3.2331,3.037066,7.914535,7.093198,3.136409,5.131017,-0.1070045,-0.3977791,1.627572,0.2388148,-0.411377,1.62515,0.08309826,0.5277808,1.706797,-0.1562765,-0.3839198,1.631365,0.1879731,-0.3812113,1.604428,0.06832246,0.05624045,1.742213,0.07097953,-0.2724224,1.738837,-0.1040014,0.2371559,1.718755,-0.01078637,-0.2664162,1.697147,-0.1377398,-0.02176216,1.722601,0.2595825,-0.03251356,1.743476,NA,NA,NotTracked,NotTracked,
0.940918,-0.2900391,0.1606445,0.8979492,0.3647461,0.09814453,-1,-1,-1,0,-1,-2,-2,-2,-2,-1,-1,-2,-1,0,-4,-1,1.4375,1.4375,1.4375,-0.25,-0.25,-0.25,3.2331,3.037066,7.914535,7.087319,3.136238,5.137509,-0.1071163,-0.3987385,1.627317,0.2386241,-0.4120203,1.624285,0.08317003,0.5277107,1.707056,-0.1572522,-0.405683,1.628,0.1888156,-0.3915597,1.60589,0.06834085,0.05618547,1.742356,0.07099008,-0.272494,1.738964,-0.1038821,0.2370837,1.718995,-0.01076425,-0.26648,1.697309,-0.1376875,-0.02182094,1.722637,0.2595685,-0.03264975,1.74361,NA,NA,NotTracked,NotTracked,
0.940918,-0.2900391,0.1606445,0.8979492,0.3686523,0.09375,-1,-1,-1,0,-1,-2,-2,-2,1,-2,-2,-1,-2,0,-1,-1,1.4375,1.4375,1.4375,-0.125,-0.125,-0.125,3.2331,3.037066,7.914535,7.084461,3.136548,5.140227,-0.107155,-0.3978032,1.627012,0.2386636,-0.4123929,1.624259,0.08322004,0.5276596,1.707173,-0.1564535,-0.4265854,1.617,0.1883021,-0.381175,1.604607,0.06837875,0.05615746,1.742459,0.07099203,-0.2724955,1.739021,-0.1037873,0.2371241,1.719105,-0.01076519,-0.2664734,1.697435,-0.1376301,-0.02177732,1.722723,0.2596501,-0.03278597,1.743739,NA,NA,NotTracked,NotTracked,
0.940918,-0.2900391,0.1606445,0.8999023,0.3657227,0.08886719,-1,-1,-1,0,-1,-2,-2,-2,-1,-1,-2,0,0,0,0,0,1.4375,1.4375,1.4375,-0.875,-0.875,-0.875,3.2331,3.037066,7.914535,7.083652,3.136638,5.141021,-0.1069925,-0.3974728,1.627614,0.2394471,-0.4092659,1.62557,0.08332048,0.5276051,1.707451,-0.1572194,-0.3965713,1.631833,0.1878507,-0.3585176,1.6045,0.06842115,0.05614109,1.742571,0.07102357,-0.2724997,1.739109,-0.103787,0.237122,1.719178,-0.01073303,-0.2664807,1.697544,-0.1376112,-0.02196451,1.722837,0.2596928,-0.03320306,1.74392,NA,NA,NotTracked,NotTracked,
0.940918,-0.2900391,0.1606445,0.8955078,0.3696289,0.09765625,-1,-1,-1,0,-1,-2,-2,-2,-2,-1,-1,0,-1,-1,-1,-1,1.4375,1.4375,1.4375,-0.3125,-0.3125,-0.3125,3.2331,3.037066,7.914535,7.080651,3.138564,5.14285,-0.1071931,-0.398471,1.627097,0.2389539,-0.4120408,1.62509,0.08344332,0.5276202,1.707521,-0.15663,-0.4073655,1.625111,0.1881532,-0.3707234,1.604448,0.06845092,0.0561759,1.742723,0.0710167,-0.2724788,1.739196,-0.1037622,0.2371297,1.719249,-0.01074001,-0.2664552,1.697655,-0.1376414,-0.02162428,1.722975,0.2596766,-0.03328176,1.744003,NA,NA,NotTracked,NotTracked,
0.940918,-0.2900391,0.1606445,0.8984375,0.3696289,0.09912109,-1,-1,-1,0,-1,-2,-2,-2,0,-1,-2,0,0,-1,0,-2,1.4375,1.4375,1.4375,-1.4375,-1.4375,-1.4375,3.2331,3.037066,7.914535,7.079839,3.139092,5.142745,-0.1071864,-0.397575,1.627451,0.2388303,-0.4119104,1.624961,0.08349295,0.5276421,1.707681,-0.1567248,-0.3939682,1.628091,0.188404,-0.4048387,1.606,0.06848925,0.05619827,1.742855,0.07099207,-0.2724623,1.739271,-0.103696,0.2371482,1.719411,-0.01076974,-0.2664393,1.697751,-0.1376359,-0.02157504,1.722991,0.2596492,-0.03336315,1.744082,NA,NA,NotTracked,NotTracked,
0.940918,-0.2900391,0.1606445,0.8989258,0.3632813,0.09521484,-1,-1,-1,0,-1,-2,-2,-2,-2,0,-1,0,-1,-1,-2,-3,1.4375,1.4375,1.4375,0.25,0.25,0.25,3.2331,3.037066,7.914535,7.078279,3.139018,5.143904,-0.1065704,-0.3980037,1.628226,0.2389584,-0.4126811,1.625529,0.0836941,0.5277348,1.708034,-0.1532544,-0.4013199,1.620379,0.1885065,-0.3933461,1.605932,0.06861773,0.05617298,1.743311,0.07107569,-0.272463,1.739605,-0.1036252,0.2370943,1.719785,-0.01070106,-0.2664725,1.697997,-0.1376015,-0.02177189,1.723462,0.2596393,-0.03320704,1.74463,NA,NA,NotTracked,NotTracked,
0.940918,-0.2900391,0.1606445,0.8945313,0.3676758,0.1000977,-1,-1,-1,0,-1,-2,-2,-2,0,-1,-1,1,1,0,0,-2,1.4375,1.4375,1.4375,-0.125,-0.125,-0.125,3.2331,3.037066,7.914535,7.074391,3.138325,5.148211,-0.1071734,-0.3982694,1.628252,0.2391585,-0.4120924,1.62513,0.08375473,0.5277345,1.708193,-0.156396,-0.404905,1.629745,0.1890174,-0.3958411,1.606336,0.06860985,0.05613851,1.743409,0.0710319,-0.2724938,1.739691,-0.103514,0.2370999,1.719912,-0.01073676,-0.2664554,1.698061,-0.1376224,-0.02147303,1.723724,0.2596625,-0.03378845,1.744851,NA,NA,NotTracked,NotTracked,
0.940918,-0.2900391,0.1606445,0.8891602,0.3623047,0.1088867,-1,-1,-1,0,-1,-2,-2,-2,-3,-1,-1,-1,-2,-1,-2,0,1.4375,1.4375,1.4375,-0.6875,-0.6875,-0.6875,3.2331,3.037066,7.914535,7.070789,3.138474,5.151288,-0.1069745,-0.3978941,1.628308,0.2389965,-0.4121996,1.625319,0.08390239,0.5276356,1.708426,-0.1573469,-0.4060774,1.629754,0.1888421,-0.3924861,1.606501,0.06870929,0.05610776,1.743562,0.0710526,-0.2725241,1.739766,-0.1034256,0.2370547,1.720118,-0.0107207,-0.2664927,1.698163,-0.1375605,-0.02153107,1.723806,0.259658,-0.03407387,1.744911,NA,NA,NotTracked,NotTracked,
0.940918,-0.2900391,0.1606445,0.8862305,0.3706055,0.09716797,-1,-1,-1,0,-1,-2,-2,-2,0,0,-1,-1,-1,-1,-2,0,1.4375,1.4375,1.4375,-1.6875,-1.6875,-1.6875,3.2331,3.037066,7.914535,7.069444,3.13975,5.152041,-0.1065328,-0.3978598,1.62783,0.2392041,-0.4118786,1.625282,0.0840834,0.5276105,1.70869,-0.1569409,-0.3836263,1.636333,0.1887028,-0.3970967,1.606738,0.06874436,0.05609764,1.743687,0.07104218,-0.2725196,1.73984,-0.1034005,0.2371249,1.720294,-0.01072275,-0.2664859,1.698194,-0.1374488,-0.02165692,1.723989,0.25967,-0.03423873,1.745018,NA,NA,NotTracked,Unknown,
0.940918,-0.2900391,0.1606445,0.890625,0.3813477,0.1108398,-1,-1,-1,0,-1,-2,-2,-2,0,0,0,0,0,0,0,-8,1.4375,1.4375,1.4375,-3.1875,-3.1875,-3.1875,3.2331,3.037066,7.914535,7.060746,3.143794,5.156954,-0.106464,-0.3983991,1.629149,0.2390514,-0.4118776,1.626298,0.08421072,0.5277719,1.708929,-0.152182,-0.3940434,1.622442,0.1894012,-0.3807293,1.605515,0.06876861,0.05615212,1.743908,0.07101913,-0.2724553,1.740001,-0.1032458,0.237167,1.720746,-0.01074491,-0.2664065,1.698347,-0.1372503,-0.02114533,1.724529,0.2596342,-0.03434515,1.74518,NA,NA,NotTracked,Unknown,
0.940918,-0.2900391,0.1606445,0.8891602,0.3808594,0.1049805,-1,-1,-1,0,-1,-2,-2,-2,-5,-2,-2,-2,-2,-1,2,9,1.4375,1.4375,1.4375,-4.375,-4.375,-4.375,3.2331,3.037066,7.914535,7.055581,3.145986,5.160266,-0.1066945,-0.3981628,1.627995,0.2391996,-0.4116509,1.624643,0.08447047,0.5277736,1.70917,-0.1568538,-0.3888581,1.634419,0.1885255,-0.3969136,1.605307,0.06888932,0.05619117,1.744109,0.07104735,-0.27241,1.74013,-0.1028345,0.2375865,1.721194,-0.01071902,-0.2663475,1.698454,-0.1371039,-0.02077565,1.72477,0.2598676,-0.03478372,1.745231,NA,NA,NotTracked,NotTracked,
0.940918,-0.2900391,0.1606445,0.8808594,0.3720703,0.109375,-1,-1,-1,0,-1,-2,-2,-2,6,1,3,1,2,1,1,-17,1.4375,1.4375,1.4375,0,0,0,3.2331,3.037066,7.914535,7.046263,3.150505,5.167899,-0.1066915,-0.3981483,1.627466,0.2402919,-0.3927035,1.628384,0.08469386,0.5277779,1.709417,-0.156231,-0.3811776,1.631316,0.1872464,-0.3744537,1.606098,0.06893183,0.05615663,1.744214,0.07103106,-0.2724356,1.740162,-0.1027778,0.2375572,1.721273,-0.0107324,-0.266364,1.69848,-0.1370402,-0.0207353,1.724846,0.2600077,-0.03521412,1.745177,NA,NA,NotTracked,NotTracked,
0.940918,-0.2900391,0.1606445,0.8798828,0.3618164,0.1020508,-1,-1,-1,0,-1,-2,-2,-2,48,12,9,2,0,-1,-6,-6,1.4375,1.4375,1.4375,15.8125,15.8125,15.8125,3.2331,3.037066,7.914535,7.03063,3.160171,5.203124,-0.1070394,-0.3979262,1.627476,0.2395754,-0.3921913,1.627569,0.08488442,0.5277719,1.709626,-0.1558046,-0.392278,1.628505,0.1870902,-0.3836219,1.60495,0.06893501,0.05617316,1.744277,0.07100116,-0.2724102,1.740174,-0.1026285,0.2376779,1.72147,-0.01077125,-0.2662942,1.698511,-0.1370157,-0.02067683,1.724912,0.2600937,-0.03551721,1.745214,NA,NA,NotTracked,NotTracked,
0.940918,-0.2900391,0.1606445,0.8740234,0.387207,0.1152344,-1,-1,-1,0,-1,-2,-2,-2,52,-4,-14,-8,-5,-6,-1,34,1.4375,1.4375,1.4375,15.0625,15.0625,15.0625,3.2331,3.037066,7.914535,7.019321,3.164523,5.224519,-0.1068639,-0.3980013,1.628477,0.2400623,-0.3925881,1.62732,0.08518186,0.527871,1.710406,-0.1562641,-0.3982939,1.628129,0.1842886,-0.394111,1.607833,0.06903876,0.0561501,1.744506,0.07097154,-0.2724337,1.740232,-0.1024757,0.2376683,1.721741,-0.01079785,-0.2663103,1.698632,-0.1369928,-0.02069326,1.724963,0.2602111,-0.03580352,1.745248,NA,NA,NotTracked,NotTracked,
0.940918,-0.2900391,0.1606445,0.8305664,0.3901367,0.1381836,-1,-1,-1,0,-1,-2,-2,-2,18,0,-5,-3,-11,-31,3,-63,1.4375,1.4375,1.4375,25.125,25.125,25.125,3.2331,3.037066,7.914535,7.004891,3.170447,5.284178,-0.106377,-0.3983125,1.625893,0.2407182,-0.3922512,1.622258,0.08531598,0.5278324,1.710718,-0.1551165,-0.4163862,1.615905,0.1840405,-0.402178,1.605833,0.06904697,0.05611074,1.744562,0.0709772,-0.2724738,1.740218,-0.1024745,0.237598,1.721854,-0.01078977,-0.26635,1.698612,-0.1369309,-0.02064973,1.725028,0.2603862,-0.0361248,1.745013,NA,NA,NotTracked,NotTracked,
0.940918,-0.2900391,0.1606445,0.9047852,0.6191406,0.1352539,-1,-1,-1,0,-1,-2,-2,-2,-4,3,13,2,41,5,4,29,1.4375,1.4375,1.4375,7.625,7.625,7.625,3.2331,3.037066,7.914535,7.023883,3.193235,5.279256,-0.1069561,-0.3975395,1.624971,0.2430337,-0.4078971,1.603528,0.08557089,0.5277983,1.712027,-0.1561895,-0.3982739,1.62615,0.2463372,-0.4215235,1.532744,0.06915338,0.05603117,1.744811,0.07101721,-0.2725655,1.740208,-0.1024892,0.2375909,1.722461,-0.0107384,-0.2664247,1.698571,-0.1369188,-0.02056434,1.725091,0.260686,-0.03699921,1.744548,NA,NA,NotTracked,Unknown,
0.940918,-0.2900391,0.1606445,0.9736328,0.7949219,0.1660156,-1,-1,-1,0,-1,-2,-2,-2,-112,-8,-10,-2,-11,0,-5,-53,1.4375,1.4375,1.4375,-43.1875,-43.1875,-43.1875,3.2331,3.037066,7.914535,7.017294,3.28297,5.256925,-0.107388,-0.3980684,1.625381,0.2460046,-0.4006704,1.588036,0.08568174,0.5279802,1.713188,-0.1557876,-0.4002056,1.623464,0.2482604,-0.4093289,1.518984,0.0691798,0.05598933,1.745034,0.0710217,-0.2726166,1.740201,-0.1025394,0.2375841,1.723273,-0.01072625,-0.2664594,1.698546,-0.1368799,-0.02072779,1.725245,0.2611516,-0.03804359,1.743943,NA,NA,NotTracked,Unknown,
0.940918,-0.2900391,0.1606445,0.8891602,0.574707,0.1655273,-1,-1,-1,0,-1,-2,-2,-2,17,3,16,4,5,-12,-8,-10,1.4375,1.4375,1.4375,-60.3125,-60.3125,-60.3125,3.2331,3.037066,7.914535,6.974142,3.326,5.268592,-0.1065774,-0.3973365,1.623409,0.2514321,-0.3868571,1.565288,0.08582783,0.5279528,1.714286,-0.1568322,-0.3920617,1.622387,0.2163113,-0.3898869,1.518059,0.06920456,0.05595691,1.745169,0.07097232,-0.2726923,1.740144,-0.1026025,0.2375134,1.723432,-0.01075937,-0.2664829,1.698494,-0.1368425,-0.02087072,1.725311,0.2615746,-0.03840797,1.743264,NA,NA,NotTracked,Unknown,
0.940918,-0.2900391,0.1606445,0.7050781,1.272949,0.3134766,-1,-1,-1,0,-1,-2,-2,-2,-17,-7,-5,-13,-1,-27,0,-9,1.4375,1.4375,1.4375,-63.875,-63.875,-63.875,3.2331,3.037066,7.914535,6.939721,3.409769,5.268402,-0.1070706,-0.397397,1.623032,0.2585965,-0.3682792,1.527255,0.0858233,0.5281085,1.714867,-0.1560117,-0.4065619,1.613533,0.2205618,-0.3671133,1.489057,0.06918899,0.05595541,1.745339,0.07088494,-0.2727848,1.740082,-0.1026659,0.2376002,1.723688,-0.01082761,-0.2664941,1.698433,-0.1368739,-0.02067112,1.725319,0.2625638,-0.03921889,1.741533,NA,NA,NotTracked,Unknown,
0.940918,-0.2900391,0.1606445,1.186035,0.9575195,0.1552734,-1,-1,-1,0,-1,-2,-2,-2,6,6,4,-7,8,4,-13,-23,1.4375,1.4375,1.4375,-58.4375,-58.4375,-58.4375,3.2331,3.037066,7.914535,6.809963,3.598597,5.305075,-0.1062946,-0.3986998,1.621503,0.2611766,-0.3307843,1.505646,0.08579648,0.5280947,1.716042,-0.1530483,-0.4192142,1.603656,0.2225129,-0.3383117,1.468222,0.06918709,0.0559184,1.745559,0.07082301,-0.2728803,1.740034,-0.1026801,0.2375641,1.723894,-0.01087402,-0.2665082,1.698364,-0.1368688,-0.02066776,1.725303,0.2635301,-0.04028226,1.738148,NA,NA,NotTracked,Unknown,
0.940918,-0.2900391,0.1606445,0.6884766,0.7397461,0.5561523,-1,-1,-1,0,-1,-2,-2,-2,-83,-8,-18,-4,-12,20,9,42,1.4375,1.4375,1.4375,21.3125,21.3125,21.3125,3.2331,3.037066,7.914535,6.710281,3.898973,5.357465,-0.1063433,-0.3990872,1.620526,0.2544225,-0.2604358,1.435779,0.08575088,0.5283591,1.717749,-0.1546258,-0.4160904,1.608307,0.2194949,-0.2637973,1.394,0.06898555,0.05592429,1.745955,0.07036509,-0.272985,1.739742,-0.102797,0.2376261,1.724168,-0.01133213,-0.2664895,1.697931,-0.1370085,-0.02145452,1.725101,0.2648392,-0.03043023,1.729531,NA,NA,NotTracked,Unknown,
0.940918,-0.2900391,0.1606445,0.6733398,1.055664,0.5454102,-1,-1,-1,0,-1,-2,-2,-2,0,-27,-2,-6,2,19,0,-63,1.4375,1.4375,1.4375,8.0625,8.0625,8.0625,3.2331,3.037066,7.914535,6.704966,4.018835,5.373991,-0.1062344,-0.3992232,1.619805,0.2521055,-0.2263349,1.378702,0.08566555,0.5283178,1.718946,-0.1540881,-0.4194059,1.607379,0.2117841,-0.2179148,1.329308,0.06883371,0.05602149,1.746318,0.07003646,-0.2729086,1.739677,-0.1029024,0.2376195,1.724456,-0.01167632,-0.2663573,1.697864,-0.1371332,-0.02121637,1.725054,0.2627521,-0.01712121,1.724049,NA,NA,NotTracked,Unknown,
0.940918,-0.2900391,0.1606445,0.3769531,0.96875,0.6557617,-1,-1,-1,0,-1,-2,-2,-2,42,1,-6,3,6,51,-7,16,1.4375,1.4375,1.4375,-2.3125,-2.3125,-2.3125,3.2331,3.037066,7.914535,6.669049,4.429928,5.426012,-0.1059657,-0.3988625,1.620021,0.2519551,-0.1825362,1.335052,0.08571492,0.5282453,1.720561,-0.1545542,-0.4160551,1.609198,0.2172003,-0.1506398,1.288833,0.06862447,0.05610993,1.746801,0.06968573,-0.2728137,1.739621,-0.1029394,0.2376234,1.72484,-0.01205795,-0.2661884,1.697764,-0.1371413,-0.02121796,1.725059,0.2609441,-0.009767587,1.719156,NA,NA,NotTracked,Unknown,
0.940918,-0.2900391,0.1606445,0.1918945,1.018555,0.6044922,-1,-1,-1,0,-1,-2,-2,-2,-75,6,-4,-1,2,-5,-13,-71,1.4375,1.4375,1.4375,20.4375,20.4375,20.4375,3.2331,3.037066,7.914535,6.678611,4.721283,5.459436,-0.1056994,-0.3988205,1.618488,0.2458944,-0.1201485,1.325133,0.08590125,0.5284945,1.722325,-0.1536811,-0.4157781,1.604267,0.2083047,-0.07554422,1.2815,0.06841348,0.0561345,1.747473,0.06940768,-0.2728192,1.739645,-0.1028282,0.2375736,1.725177,-0.01232245,-0.2661715,1.697798,-0.1373037,-0.02103283,1.725017,0.2583006,0.001632209,1.713274,NA,NA,NotTracked,Unknown,
0.940918,-0.2900391,0.1606445,0.1074219,1.082031,0.5893555,-1,-1,-1,0,-1,-2,-2,-2,56,20,12,-5,14,42,3,-38,1.4375,1.4375,1.4375,18.5,18.5,18.5,3.2331,3.037066,7.914535,6.687054,4.868928,5.475459,-0.105579,-0.3986837,1.618127,0.2374378,-0.04727078,1.301359,0.08625155,0.528499,1.723513,-0.1538149,-0.4144493,1.606986,0.2013261,-0.01221999,1.271714,0.06828324,0.05623105,1.748128,0.06911131,-0.2728051,1.739618,-0.1024252,0.2375521,1.722726,-0.0125555,-0.2661358,1.697816,-0.137399,-0.02095359,1.724989,0.262698,0.01825631,1.666388,NA,NA,NotTracked,Unknown,
0.940918,-0.2900391,0.1606445,0.03808594,1.048828,0.5605469,-1,-1,-1,0,-1,-2,-2,-2,29,-30,-9,-8,-17,18,-15,-5,1.4375,1.4375,1.4375,16.8125,16.8125,16.8125,3.2331,3.037066,7.914535,6.708817,5.159665,5.509638,-0.1054331,-0.3978917,1.616445,0.2228615,0.09960072,1.27278,0.08658665,0.5280582,1.725477,-0.15399,-0.4132022,1.605339,0.1929862,0.1283654,1.2805,0.06813905,0.05620242,1.749668,0.06846257,-0.2728708,1.739596,-0.1025158,0.2377664,1.723659,-0.01314444,-0.2661066,1.697878,-0.1378353,-0.02011405,1.72507,0.2392117,0.01670752,1.67749,NA,NA,NotTracked,Unknown,
0.940918,-0.2900391,0.1606445,-0.05712891,0.9990234,0.5703125,-1,-1,-1,0,-1,-2,-2,-2,24,-3,-5,1,-13,-17,11,-19,1.4375,1.4375,1.4375,14.5625,14.5625,14.5625,3.2331,3.037066,7.914535,6.719658,5.305472,5.530068,-0.105573,-0.3973099,1.616652,0.216304,0.167964,1.26994,0.086854,0.5278343,1.72635,-0.1540717,-0.4144408,1.602769,0.1846147,0.1890224,1.286647,0.06789093,0.05609915,1.750545,0.06795222,-0.2729962,1.739586,-0.10277,0.2381026,1.72572,-0.01365972,-0.2661633,1.69795,-0.138383,-0.01839409,1.725511,0.2593838,0.002591965,1.607893,NA,NA,NotTracked,Open,
0.940918,-0.2900391,0.1606445,-0.2412109,0.9360352,0.5356445,-1,-1,-1,0,-1,-2,-2,-2,124,-2,-12,-7,5,2,9,27,1.4375,1.4375,1.4375,31.875,31.875,31.875,3.2331,3.037066,7.914535,6.761629,5.585133,5.578113,-0.105235,-0.3972605,1.615385,0.2087001,0.2353463,1.276229,0.08687547,0.5278718,1.726764,-0.1538893,-0.4132236,1.602899,0.1802322,0.2549131,1.299389,0.06798737,0.0562199,1.751214,0.06762442,-0.2727194,1.739513,-0.1028059,0.238704,1.728172,-0.01428289,-0.2655296,1.698043,-0.1385636,-0.01778455,1.725726,0.2580323,0.03979621,1.576832,NA,NA,NotTracked,Open,
0.940918,-0.2900391,0.1606445,-0.3901367,0.8588867,0.4135742,-1,-1,-1,0,-1,-2,-2,-2,55,-6,-26,-7,-1,12,-9,51,1.4375,1.4375,1.4375,24.875,24.875,24.875,3.2331,3.037066,7.914535,6.856446,5.963759,5.678459,-0.1075708,-0.3915013,1.615699,0.2021999,0.2919514,1.288357,0.08682403,0.5274382,1.72771,-0.1488795,-0.3999561,1.591143,0.1722977,0.3120026,1.323375,0.06950612,0.05697379,1.751018,0.067274,-0.2715845,1.739405,-0.1026258,0.2387383,1.729965,-0.01500008,-0.2636692,1.698278,-0.1389393,-0.01474444,1.726379,0.2672653,0.05258345,1.494484,NA,NA,NotTracked,Open,
0.940918,-0.2900391,0.1606445,-0.4082031,0.7822266,0.3842773,-1,-1,-1,0,-1,-2,-2,-2,-40,-5,3,3,-58,-31,-8,4,1.4375,1.4375,1.4375,29.625,29.625,29.625,3.2331,3.037066,7.914535,6.897227,6.07502,5.71959,-0.1082395,-0.3888016,1.616218,0.195788,0.3386627,1.306752,0.08656854,0.5267513,1.729317,-0.1562441,-0.3974612,1.608462,0.1689806,0.3601268,1.345786,0.07061889,0.05754896,1.750875,0.06672782,-0.2699173,1.739111,-0.1013456,0.2388547,1.727333,-0.0158113,-0.2615747,1.698732,-0.1393979,-0.01178491,1.726623,0.2645514,0.07558261,1.488457,NA,NA,NotTracked,Open,
0.940918,-0.2900391,0.1606445,-0.4853516,0.6557617,0.2719727,-1,-1,-1,0,-1,-2,-2,-2,-36,-13,-16,20,82,32,36,-54,1.4375,1.4375,1.4375,28.375,28.375,28.375,3.2331,3.037066,7.914535,7.062259,6.368205,5.882524,-0.110071,-0.3878674,1.616576,0.1808539,0.4163142,1.348056,0.08600011,0.5258136,1.730701,-0.1595629,-0.382915,1.614862,0.1540292,0.4443258,1.391111,0.07209092,0.05832876,1.750314,0.06560306,-0.2680983,1.738182,-0.09916756,0.23983,1.724803,-0.01722259,-0.259612,1.699054,-0.1407696,-0.00480242,1.727963,0.2686827,0.1153165,1.480366,NA,NA,NotTracked,Open,
0.940918,-0.2900391,0.1606445,-0.4853516,0.6557617,0.2719727,-1,-1,-1,0,-1,-2,-2,-2,-33,-5,-16,0,-24,-15,-20,-3,1.4375,1.4375,1.4375,28.375,28.375,28.375,3.2331,3.037066,7.914535,7.062259,6.368205,5.882524,-0.1106889,-0.3880246,1.617865,0.1760536,0.440817,1.369307,0.08588493,0.5254604,1.730904,-0.1588324,-0.3967612,1.612514,0.1462133,0.4486431,1.397588,0.07302523,0.05903006,1.750092,0.06539531,-0.2669024,1.737893,-0.09846099,0.2401096,1.724296,-0.01751664,-0.2585171,1.699617,-0.1416019,-0.00103388,1.729468,0.2686125,0.1573225,1.466988,NA,NA,NotTracked,Open,
0.940918,-0.2900391,0.1606445,-0.5541992,0.5761719,0.2250977,-1,-1,-1,0,-1,-2,-2,-2,51,1,-10,-10,17,45,-27,47,1.4375,1.4375,1.4375,25.5625,25.5625,25.5625,3.2331,3.037066,7.914535,7.204465,6.536751,6.026607,-0.1114537,-0.3876154,1.617607,0.1707706,0.4568543,1.391921,0.08555143,0.5248286,1.730748,-0.1583142,-0.3974231,1.605033,0.1446201,0.4583789,1.41988,0.07382054,0.05987046,1.749722,0.06507394,-0.2654474,1.737557,-0.09775913,0.2404851,1.723858,-0.01783086,-0.2571916,1.700052,-0.1417832,-0.0002021038,1.729846,0.266426,0.165856,1.46614,NA,NA,NotTracked,Open,
0.940918,-0.2900391,0.1606445,-0.7270508,0.4589844,0.03857422,-1,-1,-1,0,-1,-2,-2,-2,5,-17,-17,-9,12,52,39,69,1.4375,1.4375,1.4375,22.4375,22.4375,22.4375,3.2331,3.037066,7.914535,7.627432,6.811789,6.451851,-0.1122524,-0.3875604,1.617763,0.1641338,0.4915995,1.410228,0.08503289,0.5242216,1.730541,-0.1570601,-0.3962196,1.600898,0.1355235,0.4759407,1.442733,0.07416985,0.06061847,1.749309,0.06458846,-0.264042,1.736995,-0.0973089,0.2408238,1.723537,-0.01823041,-0.25611,1.700063,-0.1418276,0.0009224469,1.730377,0.2645391,0.1817961,1.461525,NA,NA,NotTracked,Open,
0.940918,-0.2900391,0.1606445,-0.3891602,0.3491211,-0.1791992,-1,-1,-1,0,-1,-2,-2,-2,-15,0,-3,-5,-14,79,-44,-83,1.4375,1.4375,1.4375,11.0625,11.0625,11.0625,3.2331,3.037066,7.914535,8.068448,6.938809,6.906567,-0.1136536,-0.3881243,1.620174,0.1613994,0.4920886,1.432357,0.08472663,0.5237268,1.730208,-0.1609361,-0.3961232,1.61107,0.1336237,0.4878354,1.464692,0.07440626,0.06129191,1.748967,0.0643343,-0.2632203,1.736752,-0.0968943,0.241168,1.723319,-0.01851106,-0.2554726,1.700155,-0.142136,0.001686866,1.731082,0.2632999,0.1925253,1.462163,NA,NA,NotTracked,Open,
0.940918,-0.2900391,0.1606445,-0.3891602,0.3491211,-0.1791992,-1,-1,-1,0,-1,-2,-2,-2,-15,0,-3,-5,-14,79,-44,-83,1.4375,1.4375,1.4375,11.0625,11.0625,11.0625,3.2331,3.037066,7.914535,8.068448,6.938809,6.906567,-0.1133761,-0.3881456,1.620581,0.158798,0.4956812,1.450234,0.08430492,0.522455,1.729108,-0.1615444,-0.4039815,1.612259,0.1286853,0.5074204,1.473937,0.07451589,0.06168522,1.748738,0.0639565,-0.2625847,1.7365,-0.09657849,0.2415601,1.723184,-0.01896083,-0.2547472,1.700178,-0.1422794,0.001973862,1.731372,0.2601371,0.206553,1.460469,NA,NA,NotTracked,Open,
0.940918,-0.2900391,0.1606445,-1.490723,0.2280273,-0.2944336,-1,-1,-1,0,-1,-2,-2,-2,-52,-14,-19,-13,6,-7,4,62,1.4375,1.4375,1.4375,2.125,2.125,2.125,3.2331,3.037066,7.914535,8.461723,6.988182,7.305246,-0.1139574,-0.3861487,1.623351,0.153048,0.5120512,1.471245,0.08335552,0.5218572,1.727594,-0.1627741,-0.3772335,1.624,0.126374,0.5153087,1.50719,0.07284606,0.06380554,1.749387,0.06350002,-0.2613526,1.736179,-0.09425104,0.2470531,1.735154,-0.01943401,-0.2534024,1.700329,-0.1425231,0.004075362,1.732177,0.2600229,0.2124952,1.462692,NA,NA,NotTracked,Open,
0.940918,-0.2900391,0.1606445,-1.114746,0.3598633,-0.4365234,-1,-1,-1,0,-1,-2,-2,-2,-59,-27,-14,-13,-1,-109,0,-10,1.4375,1.4375,1.4375,-7.0625,-7.0625,-7.0625,3.2331,3.037066,7.914535,8.633554,6.983702,7.489307,-0.1141839,-0.3863113,1.624128,0.1437747,0.5178339,1.496014,0.08270951,0.5206212,1.726524,-0.1592236,-0.4014069,1.612353,0.1012902,0.5075027,1.570533,0.07190551,0.06451253,1.749667,0.06302655,-0.2606528,1.735725,-0.09382284,0.2483597,1.737749,-0.01997843,-0.2525561,1.700113,-0.1426059,0.004586712,1.732391,0.2544869,0.236089,1.466837,NA,NA,NotTracked,Open,
0.940918,-0.2900391,0.1606445,-0.6337891,0.144043,-0.1235352,-1,-1,-1,0,-1,-2,-2,-2,2,-2,-1,-3,2,-36,-31,-45,1.4375,1.4375,1.4375,1.625,1.625,1.625,3.2331,3.037066,7.914535,9.112219,6.963915,8.008825,-0.114454,-0.3865559,1.625062,0.1350343,0.52258,1.522243,0.08258256,0.5199959,1.72535,-0.1616373,-0.4203918,1.615546,0.0871844,0.505985,1.57385,0.07077892,0.06507713,1.749883,0.06243513,-0.2602229,1.735445,-0.09364391,0.2488259,1.739006,-0.02068872,-0.2519644,1.700149,-0.1424903,0.005031451,1.732811,0.2507414,0.2471847,1.463424,NA,NA,NotTracked,Open,
0.940918,-0.2900391,0.1606445,-0.6850586,0.1674805,-0.284668,-1,-1,-1,0,-1,-2,-2,-2,24,-4,-4,-2,6,19,-4,16,1.4375,1.4375,1.4375,-6.875,-6.875,-6.875,3.2331,3.037066,7.914535,9.402924,6.91768,8.318753,-0.1143508,-0.3869286,1.623054,0.1073206,0.5339152,1.567337,0.08187374,0.5197799,1.723263,-0.1603886,-0.405744,1.613364,0.04147074,0.5083317,1.593391,0.06910107,0.0654301,1.750156,0.06180099,-0.2598073,1.734865,-0.09393971,0.2488563,1.7405,-0.02132293,-0.2514575,1.69981,-0.1423833,0.005861426,1.733674,0.2436,0.2609856,1.469763,NA,NA,NotTracked,Open,
0.940918,-0.2900391,0.1606445,-0.8408203,0.04394531,-0.5166016,-1,-1,-1,0,-1,-2,-2,-2,-22,-4,-6,-7,6,-11,7,9,1.4375,1.4375,1.4375,-16,-16,-16,3.2331,3.037066,7.914535,9.507211,6.892436,8.4383,-0.1141242,-0.386999,1.621457,0.1270418,0.5018445,1.55934,0.08148573,0.5195662,1.722356,-0.1598896,-0.4020964,1.617472,0.09387703,0.4660291,1.603325,0.06837291,0.06527605,1.750231,0.06148212,-0.2598831,1.734462,-0.09411518,0.2488769,1.741008,-0.02160429,-0.25142,1.699531,-0.1423674,0.005863564,1.733685,0.2374039,0.2683818,1.4768,NA,NA,NotTracked,Unknown,
0.940918,-0.2900391,0.1606445,-1.041016,0.1796875,-0.3457031,-1,-1,-1,0,-1,-2,-2,-2,-56,-13,-6,-5,3,-11,-7,-6,1.4375,1.4375,1.4375,34.9375,34.9375,34.9375,3.2331,3.037066,7.914535,9.479191,6.931841,8.403225,-0.1141886,-0.3869335,1.620287,0.1142905,0.5268788,1.559866,0.08135531,0.5193968,1.722167,-0.1600614,-0.3977309,1.617478,0.05397752,0.4999082,1.5908,0.06782819,0.06532095,1.750303,0.0611747,-0.2598124,1.734025,-0.09422532,0.2489221,1.741411,-0.02189908,-0.2513025,1.69914,-0.1423689,0.00588119,1.733676,0.2373835,0.2683401,1.47679,NA,NA,NotTracked,Unknown,
0.940918,-0.2900391,0.1606445,-0.8896484,0.2792969,-0.2036133,-1,-1,-1,0,-1,-2,-2,-2,8,3,2,6,-14,-56,-8,-55,1.4375,1.4375,1.4375,-43.375,-43.375,-43.375,3.2331,3.037066,7.914535,9.256866,6.933155,8.188227,-0.1140225,-0.3868141,1.619388,0.1160816,0.5276181,1.555009,0.08118036,0.5193146,1.721575,-0.1586518,-0.3929898,1.611378,0.06068312,0.5003769,1.587439,0.06752975,0.06550773,1.750343,0.06108866,-0.2596465,1.733652,-0.09432621,0.2489517,1.741825,-0.02200873,-0.2511621,1.698874,-0.1423847,0.006001801,1.733654,0.2374519,0.2679624,1.476579,NA,NA,NotTracked,Open,
0.940918,-0.2900391,0.1606445,-0.9287109,0.1142578,-0.2333984,-1,-1,-1,0,-1,-2,-2,-2,84,11,2,1,3,-11,11,-13,1.4375,1.4375,1.4375,-21.8125,-21.8125,-21.8125,3.2331,3.037066,7.914535,9.199264,6.943142,8.139543,-0.1129986,-0.3858146,1.616696,0.1297421,0.5105014,1.544983,0.08069756,0.5187634,1.721059,-0.1579279,-0.4224327,1.605692,0.09236923,0.4731323,1.601218,0.06683301,0.06577903,1.750446,0.06095388,-0.2594755,1.73316,-0.09445696,0.2490653,1.742396,-0.02220441,-0.2508655,1.69849,-0.1423994,0.00610612,1.733646,0.2434492,0.2542319,1.472698,NA,NA,NotTracked,Open,
0.940918,-0.2900391,0.1606445,-0.8808594,0.3369141,-0.1630859,-1,-1,-1,0,-1,-2,-2,-2,37,-4,-10,-7,12,0,8,48,1.4375,1.4375,1.4375,6.4375,6.4375,6.4375,3.2331,3.037066,7.914535,9.168383,6.926702,8.095038,-0.1132476,-0.3855546,1.616648,0.1185327,0.5222864,1.553038,0.08037092,0.5186253,1.720864,-0.1597709,-0.387122,1.62,0.0704833,0.4937697,1.589808,0.0664931,0.06590039,1.750486,0.06088863,-0.2593898,1.732963,-0.09459942,0.2491149,1.742614,-0.02228465,-0.2507332,1.698326,-0.1424573,0.006353129,1.733545,0.2440646,0.2521018,1.472477,NA,NA,NotTracked,Open,
0.940918,-0.2900391,0.1606445,-0.918457,0.1220703,-0.3237305,-1,-1,-1,0,-1,-2,-2,-2,71,-6,-3,-3,8,25,7,21,1.4375,1.4375,1.4375,-12.625,-12.625,-12.625,3.2331,3.037066,7.914535,9.271527,6.900301,8.222642,-0.1134263,-0.3838653,1.617058,0.1064943,0.5363209,1.570923,0.08012453,0.5183527,1.720637,-0.1590934,-0.3966994,1.615211,0.04669157,0.5016872,1.597518,0.06602215,0.06568912,1.750568,0.06079113,-0.2593748,1.732633,-0.0946741,0.2490611,1.742706,-0.02244075,-0.2507018,1.697984,-0.1424401,0.006433938,1.733488,0.2414352,0.2584761,1.473956,NA,NA,NotTracked,Unknown,
0.940918,-0.2900391,0.1606445,-0.9350586,0.05078125,-0.3793945,-1,-1,-1,0,-1,-2,-2,-2,1,-5,-6,-6,-14,-39,13,9,1.4375,1.4375,1.4375,-1.5625,-1.5625,-1.5625,3.2331,3.037066,7.914535,9.345715,6.885254,8.301886,-0.1131171,-0.3838444,1.616712,0.1103043,0.5202304,1.57038,0.07987297,0.5182491,1.720132,-0.1593014,-0.3818781,1.616613,0.05401301,0.4884081,1.597888,0.06553086,0.06558875,1.750594,0.06068449,-0.2593452,1.732353,-0.09483072,0.2489718,1.742782,-0.02260232,-0.2506062,1.697607,-0.1423543,0.006319358,1.73335,0.240848,0.2596673,1.475422,NA,NA,NotTracked,Unknown,
0.940918,-0.2900391,0.1606445,-0.9599609,0.1298828,-0.3603516,-1,-1,-1,0,-1,-2,-2,-2,-35,-6,-3,-5,-3,9,6,-66,1.4375,1.4375,1.4375,13.5625,13.5625,13.5625,3.2331,3.037066,7.914535,9.382318,6.902455,8.32365,-0.1131624,-0.3859709,1.617618,0.1122836,0.5214107,1.569366,0.07982781,0.5182765,1.719912,-0.1591157,-0.4032266,1.616412,0.05465708,0.491344,1.597869,0.06537015,0.06560738,1.750606,0.06062346,-0.2592992,1.73222,-0.09491697,0.2489797,1.742896,-0.02268705,-0.250557,1.697433,-0.1423369,0.006306586,1.733262,0.2408751,0.2598018,1.475426,NA,NA,NotTracked,Open,
0.940918,-0.2900391,0.1606445,-0.8256836,0.125,-0.246582,-1,-1,-1,0,-1,-2,-2,-2,-33,1,2,2,-4,35,0,-23,1.4375,1.4375,1.4375,-4.8125,-4.8125,-4.8125,3.2331,3.037066,7.914535,9.271613,6.917233,8.201531,-0.1131753,-0.3859338,1.617815,0.1177168,0.5244283,1.560556,0.07970956,0.5183425,1.719689,-0.159075,-0.4007577,1.615131,0.05894699,0.4946593,1.589441,0.06506149,0.0656464,1.750779,0.06060983,-0.2592753,1.732076,-0.09501402,0.2490146,1.743075,-0.02272945,-0.2504454,1.697166,-0.1423918,0.00627138,1.733057,0.2411229,0.2602049,1.47546,NA,NA,NotTracked,Open,
0.940918,-0.2900391,0.1606445,-0.9086914,0.1845703,-0.2373047,-1,-1,-1,0,-1,-2,-2,-2,39,4,2,2,-3,2,8,66,1.4375,1.4375,1.4375,3.4375,3.4375,3.4375,3.2331,3.037066,7.914535,9.252866,6.918185,8.180165,-0.1131307,-0.384616,1.618388,0.1171437,0.5230914,1.561744,0.07969833,0.5184079,1.719518,-0.1587504,-0.4022145,1.613037,0.06455202,0.4898577,1.594069,0.06476854,0.06584717,1.750743,0.06053278,-0.259153,1.731951,-0.0950532,0.2490453,1.743192,-0.02281167,-0.2503068,1.697019,-0.1424284,0.006457681,1.73294,0.2424395,0.2588525,1.477882,NA,NA,NotTracked,Open,
0.940918,-0.2900391,0.1606445,-0.894043,0.152832,-0.2768555,-1,-1,-1,0,-1,-2,-2,-2,7,3,2,0,-2,22,3,9,1.4375,1.4375,1.4375,1,1,1,3.2331,3.037066,7.914535,9.250949,6.917963,8.177535,-0.1239775,-0.3090518,1.641797,0.1179926,0.5239981,1.562473,0.07967354,0.5189115,1.719341,-0.163472,-0.3089663,1.634923,0.062075,0.4898064,1.594565,0.06465632,0.06594184,1.750745,0.06052429,-0.2590817,1.731908,-0.09506474,0.2490457,1.743253,-0.02282406,-0.2502592,1.696951,-0.1424214,0.006260198,1.732959,0.2431545,0.2587447,1.477448,NA,NA,NotTracked,Open,
0.940918,-0.2900391,0.1606445,-0.894043,0.152832,-0.2768555,-1,-1,-1,0,-1,-2,-2,-2,37,9,4,3,1,-19,-10,25,1.4375,1.4375,1.4375,1,1,1,3.2331,3.037066,7.914535,9.250949,6.917963,8.177535,-0.1143703,-0.3837383,1.620042,0.1279955,0.5081048,1.556322,0.07982108,0.5188848,1.719128,-0.1583416,-0.4105394,1.607885,0.09422681,0.4685937,1.604953,0.06460208,0.06599022,1.750734,0.06050621,-0.2590218,1.731883,-0.0950829,0.2490927,1.743321,-0.02282571,-0.2502199,1.696906,-0.1425099,0.006547965,1.732905,0.2485792,0.250569,1.47393,NA,NA,NotTracked,Open,
0.940918,-0.2900391,0.1606445,-0.9174805,0.1342773,-0.3051758,-1,-1,-1,0,-1,-2,-2,-2,-62,-4,0,2,8,44,-49,76,1.4375,1.4375,1.4375,-0.125,-0.125,-0.125,3.2331,3.037066,7.914535,9.243368,6.918707,8.168731,-0.1142886,-0.3838905,1.621631,0.1298843,0.5092574,1.544627,0.07991806,0.5187368,1.719089,-0.1567393,-0.3952138,1.609289,0.0936791,0.4715258,1.604064,0.06449171,0.06608329,1.750838,0.06050245,-0.2589176,1.731915,-0.09512648,0.2491763,1.743476,-0.022821,-0.2501328,1.696831,-0.1426505,0.007041831,1.732896,0.2529383,0.2410669,1.473951,NA,NA,NotTracked,Open,
0.940918,-0.2900391,0.1606445,-0.9189453,0.1416016,-0.331543,-1,-1,-1,0,-1,-2,-2,-2,-7,4,0,-1,-16,8,-14,17,1.4375,1.4375,1.4375,1.4375,1.4375,1.4375,3.2331,3.037066,7.914535,9.22643,6.92112,8.149266,-0.1142933,-0.3848611,1.621027,0.1312042,0.5103197,1.529434,0.07993069,0.518608,1.718993,-0.162497,-0.4199365,1.618778,0.08878201,0.4813718,1.595909,0.06444044,0.06608593,1.750901,0.06049141,-0.2589073,1.731949,-0.09512369,0.2492342,1.743564,-0.0228195,-0.2501275,1.696829,-0.1426632,0.007021581,1.732881,0.2551652,0.2321657,1.477682,NA,NA,NotTracked,Open,
0.940918,-0.2900391,0.1606445,-0.9189453,0.1416016,-0.331543,-1,-1,-1,0,-1,-2,-2,-2,-24,3,4,3,7,-3,-4,-29,1.4375,1.4375,1.4375,1.4375,1.4375,1.4375,3.2331,3.037066,7.914535,9.22643,6.92112,8.149266,-0.1139969,-0.3839951,1.620948,0.1398601,0.5031979,1.501454,0.07986379,0.5184882,1.718961,-0.15833,-0.3974054,1.614634,0.09881291,0.493122,1.58295,0.06599301,0.06602128,1.75005,0.06046612,-0.2588514,1.731994,-0.09507472,0.2493154,1.743628,-0.02283119,-0.2500975,1.696826,-0.1428043,0.007022327,1.732848,0.2567592,0.2247757,1.479542,NA,NA,NotTracked,Open,
0.940918,-0.2900391,0.1606445,-0.9189453,0.1416016,-0.331543,-1,-1,-1,0,-1,-2,-2,-2,53,1,-1,0,-3,-8,6,3,1.4375,1.4375,1.4375,1.4375,1.4375,1.4375,3.2331,3.037066,7.914535,9.22643,6.92112,8.149266,-0.1136659,-0.384465,1.621898,0.1436218,0.4981039,1.478533,0.07973097,0.5183502,1.719082,-0.1601956,-0.3964208,1.619667,0.09983213,0.5043247,1.568154,0.06708127,0.06573264,1.74971,0.06047059,-0.2588761,1.732138,-0.09507602,0.2494187,1.743802,-0.02282127,-0.2500969,1.69686,-0.1428844,0.007051237,1.73291,0.2592857,0.2121521,1.48202,NA,NA,NotTracked,Open,
0.940918,-0.2900391,0.1606445,-0.7792969,0.2856445,-0.1157227,-1,-1,-1,0,-1,-2,-2,-2,21,-1,-2,-2,-4,-16,22,48,1.4375,1.4375,1.4375,-10.9375,-10.9375,-10.9375,3.2331,3.037066,7.914535,8.187277,6.891348,7.063172,-0.113937,-0.3842792,1.621859,0.1504848,0.4793423,1.444599,0.07955541,0.5183935,1.719274,-0.1588882,-0.3890812,1.618611,0.1239928,0.4927468,1.466571,0.06804639,0.06559596,1.749407,0.06046852,-0.258835,1.732272,-0.09504041,0.2494994,1.743913,-0.02280897,-0.2500725,1.696868,-0.1429874,0.007158494,1.732985,0.2608025,0.2010596,1.481338,NA,NA,NotTracked,Open,
0.940918,-0.2900391,0.1606445,-0.7319336,0.3764648,-0.06005859,-1,-1,-1,0,-1,-2,-2,-2,36,1,0,0,8,-16,-4,-10,1.4375,1.4375,1.4375,-36,-36,-36,3.2331,3.037066,7.914535,7.691384,6.710515,6.568229,-0.113893,-0.3835931,1.623575,0.1520623,0.4538222,1.389691,0.0785289,0.5185842,1.720967,-0.1602108,-0.3987882,1.620551,0.1262524,0.4511566,1.413423,0.06942921,0.06512403,1.748959,0.06029888,-0.2590715,1.732564,-0.09506422,0.249443,1.743984,-0.02290888,-0.2501933,1.696947,-0.1432589,0.007293269,1.733083,0.2626834,0.1717372,1.482319,NA,NA,NotTracked,Open,
0.940918,-0.2900391,0.1606445,-0.7578125,0.3588867,-0.03662109,-1,-1,-1,0,-1,-2,-2,-2,24,-3,-2,-2,-1,25,0,6,1.4375,1.4375,1.4375,-36.0625,-36.0625,-36.0625,3.2331,3.037066,7.914535,7.565156,6.632533,6.445718,-0.1134102,-0.3840753,1.622566,0.153767,0.4227921,1.358426,0.0783242,0.518913,1.72142,-0.1595815,-0.3958024,1.61916,0.1280681,0.4202571,1.383684,0.06899905,0.06451408,1.749662,0.05999148,-0.2594017,1.732724,-0.09496424,0.2494518,1.744054,-0.02319188,-0.250462,1.697011,-0.1435113,0.007238329,1.733094,0.2694604,0.1342979,1.485968,NA,NA,NotTracked,Open,
0.940918,-0.2900391,0.1606445,-0.5688477,0.6186523,0.2026367,-1,-1,-1,0,-1,-2,-2,-2,-6,-5,-1,-1,-3,-43,1,24,1.4375,1.4375,1.4375,-44.6875,-44.6875,-44.6875,3.2331,3.037066,7.914535,7.27641,6.328561,6.165931,-0.1129615,-0.3839292,1.623628,0.1557635,0.3767646,1.335616,0.07810324,0.5193908,1.722686,-0.1595493,-0.3780114,1.627773,0.1291318,0.3846838,1.357783,0.0684221,0.06342296,1.750727,0.05954242,-0.2605084,1.733022,-0.09465594,0.2485968,1.744108,-0.02361463,-0.2516855,1.697076,-0.1437561,0.007241567,1.733352,0.2721558,0.1215252,1.487756,NA,NA,NotTracked,Open,
