ALX,ALY,ALZ,ARX,ARY,ARZ,EMG0L,EMG1L,EMG2L,EMG3L,EMG4L,EMG5L,EMG6L,EMG7L,EMG0R,EMG1R,EMG2R,EMG3R,EMG4R,EMG5R,EMG6R,EMG7R,GLX,GLY,GLZ,GRX,GRY,GRZ,ORL,OPL,OYL,ORR,OPR,OYR,LHNX,LHNY,LHNZ,RHNX,RHNY,RHNZ,HX,HY,HZ,LTX,LTY,LTZ,RTX,RTY,RTZ,SpineMidX,SpineMidY,SpineMidZ,SpineBaseX,SpineBaseY,SpineBaseZ,ShoulderLeftX,ShoulderLeftY,ShoulderLeftZ,ShoulderRightX,ShoulderRightY,ShoulderRightZ,ElbowLeftX,ElbowLeftY,ElbowLeftZ,ElbowRightX,ElbowRightY,ElbowRightZ,Myo_Pose_left,Myo_Pose_Right,Kinect_pose_left,Kinect_pose_right
0.9277344,-0.3007813,0.1850586,-0.3134766,0.6704102,0.140625,-3,0,-1,-1,-1,-1,-1,-1,-25,-5,-7,-5,-1,-4,-4,-13,1.25,1.25,1.25,-22.125,-22.125,-22.125,3.22036,3.051887,5.895183,7.041746,5.713759,5.640865,-0.1263573,-0.3971788,1.620167,0.1883419,0.1532749,1.384355,0.06817445,0.5308217,1.704521,-0.07583829,-0.3669343,1.596147,0.1413327,0.1662955,1.315,0.0494484,0.06021548,1.735447,0.0478839,-0.2683681,1.727482,-0.125073,0.2450787,1.723549,-0.03323127,-0.2612399,1.690215,-0.1521553,-0.02681201,1.727223,0.2414854,-0.01675368,1.597708,NA,NA,NotTracked,Open,
0.9316406,-0.2988281,0.1713867,-0.3251953,0.6357422,0.1542969,-1,-4,-1,-2,-2,-2,-1,-2,14,14,-3,-11,3,-1,0,-42,1.5,1.5,1.5,-28.125,-28.125,-28.125,3.220024,3.051239,5.896956,7.027546,5.770253,5.679686,-0.126746,-0.3977731,1.621922,0.1854884,0.1655148,1.393892,0.06796481,0.5308636,1.704854,-0.07558459,-0.3696137,1.596397,0.1395174,0.1730681,1.338294,0.04936934,0.06035895,1.735588,0.04784062,-0.2678434,1.727526,-0.1251376,0.2450585,1.723912,-0.03322928,-0.2609,1.690598,-0.1523014,-0.02647571,1.727519,0.2406262,-0.01120049,1.597141,NA,NA,NotTracked,Open,
0.9355469,-0.2915039,0.1508789,-0.3085938,0.7529297,0.2661133,-1,-4,-1,0,-1,-1,1,-1,90,14,6,-1,-6,-7,-5,27,6.3125,6.3125,6.3125,-4.6875,-4.6875,-4.6875,3.21793,3.047727,5.905612,7.024034,5.771209,5.702774,-0.1265329,-0.3975467,1.621834,0.1840932,0.1688154,1.398302,0.06774112,0.5307398,1.705101,-0.07573052,-0.3687991,1.596609,0.1373446,0.1745527,1.345778,0.04920913,0.06058948,1.735656,0.04773352,-0.2668081,1.727407,-0.1253691,0.2451082,1.724267,-0.03316215,-0.260187,1.690866,-0.1523624,-0.02645342,1.727549,0.2386218,0.001379629,1.595915,NA,NA,NotTracked,Open,
0.9345703,-0.2890625,0.1435547,-0.4604492,0.8632813,0.2392578,-2,-5,-2,-1,-1,-1,0,-1,-74,7,1,-1,4,-4,-3,24,6.8125,6.8125,6.8125,0.875,0.875,0.875,3.217037,3.045321,5.910679,7.029622,5.758886,5.712974,-0.1261829,-0.3976583,1.622012,0.182113,0.1722241,1.400498,0.06746508,0.5306398,1.705388,-0.07597652,-0.367954,1.595657,0.137657,0.1752009,1.347546,0.04913976,0.06074218,1.73575,0.04763225,-0.266313,1.727375,-0.1254968,0.2450975,1.724537,-0.03318346,-0.2598408,1.691122,-0.1524958,-0.02643121,1.727651,0.2380953,0.002026372,1.595507,NA,NA,NotTracked,Open,
0.9389648,-0.3110352,0.152832,-0.3959961,0.8432617,0.2890625,0,-2,-1,-1,-1,-1,0,-1,51,-1,-2,-8,3,12,4,20,6.6875,6.6875,6.6875,-4.75,-4.75,-4.75,3.218154,3.04324,5.916821,7.024113,5.72837,5.716696,-0.1265478,-0.3979802,1.622043,0.1808767,0.1741586,1.400236,0.06710639,0.530602,1.70572,-0.07577732,-0.3689738,1.596035,0.1338318,0.1876179,1.3322,0.04900823,0.06097807,1.73584,0.04752964,-0.2652186,1.727272,-0.1248284,0.2462397,1.723637,-0.03314413,-0.2589953,1.691273,-0.1519967,-0.02829765,1.727785,0.2376758,0.003975451,1.594972,NA,NA,NotTracked,Open,
0.9350586,-0.309082,0.1674805,-0.4589844,0.8662109,0.2592773,-3,-2,-1,-2,0,-2,0,1,-6,5,-3,-2,1,-1,2,-12,2.0625,2.0625,2.0625,2.6875,2.6875,2.6875,3.232296,3.046955,5.909153,7.026904,5.707023,5.721108,-0.127773,-0.3978926,1.62095,0.1782957,0.1702615,1.398051,0.06636782,0.5304375,1.706343,-0.076941,-0.3667138,1.595777,0.132797,0.1808528,1.332932,0.0488035,0.06113662,1.735895,0.0474318,-0.2647631,1.727091,-0.1259046,0.2461474,1.724847,-0.03315799,-0.2588961,1.691311,-0.152706,-0.02635748,1.728475,0.2365606,0.003555726,1.595619,NA,NA,NotTracked,Open,
0.9262695,-0.3032227,0.1879883,-0.3964844,0.8945313,0.2939453,-1,0,2,-1,-1,-1,0,-1,58,10,2,4,0,-9,-7,1,-0.5,-0.5,-0.5,5.25,5.25,5.25,3.247145,3.053716,5.89681,7.0243,5.666915,5.723334,-0.127792,-0.3980949,1.621321,0.1777983,0.1661452,1.395686,0.06548545,0.5308703,1.707384,-0.07816269,-0.360107,1.597155,0.1299266,0.1699647,1.334067,0.04837774,0.06145474,1.736063,0.0472977,-0.2642184,1.727116,-0.1267046,0.2458007,1.725785,-0.03321014,-0.2586147,1.691529,-0.1533581,-0.02433338,1.729383,0.2333827,0.01486143,1.597458,NA,NA,Unknown,Open,
0.9379883,-0.2910156,0.1645508,-0.4306641,0.8774414,0.2714844,-1,-1,-1,0,-2,-1,-1,-1,44,6,4,-1,1,3,1,5,-7.1875,-7.1875,-7.1875,-6.4375,-6.4375,-6.4375,3.245741,3.050297,5.890472,7.02282,5.656168,5.724908,-0.1286626,-0.3953746,1.620582,0.177105,0.1634109,1.39301,0.06492437,0.5306825,1.707962,-0.07930988,-0.3571272,1.595051,0.1298925,0.1668953,1.327462,0.04816072,0.06159202,1.736157,0.04732509,-0.2638684,1.727133,-0.1271233,0.245492,1.72594,-0.03309454,-0.2585147,1.691694,-0.1524871,-0.03061097,1.728464,0.2321214,0.01666886,1.598073,NA,NA,Unknown,Open,
0.9418945,-0.2944336,0.1469727,-0.3911133,0.9145508,0.2626953,-2,-1,-2,0,-2,-2,0,-3,-6,-1,-3,-3,1,3,2,-1,-5.5,-5.5,-5.5,1.9375,1.9375,1.9375,3.237484,3.044956,5.8871,7.023539,5.645834,5.721992,-0.1280843,-0.3978555,1.62113,0.1769721,0.1615798,1.391947,0.06422734,0.5306336,1.708502,-0.07855629,-0.3608997,1.595909,0.1268266,0.1644107,1.325111,0.04784758,0.06174083,1.736167,0.04736512,-0.2636986,1.727125,-0.1276655,0.2451358,1.725921,-0.03300871,-0.2584913,1.691718,-0.1525705,-0.03246734,1.727663,0.2315112,0.01798707,1.598711,NA,NA,Unknown,Open,
0.9399414,-0.2978516,0.1538086,-0.3950195,0.8579102,0.2792969,0,-1,-1,-2,-1,-1,1,-1,34,10,4,1,2,6,12,16,-2.3125,-2.3125,-2.3125,-3.625,-3.625,-3.625,3.23766,3.042772,5.877486,7.019269,5.641932,5.720932,-0.1281831,-0.3978976,1.621002,0.1777656,0.1621968,1.390961,0.06401081,0.5306973,1.708721,-0.07784443,-0.3622705,1.59629,0.1285094,0.1636792,1.325805,0.0473983,0.06204207,1.736346,0.04730356,-0.2634054,1.727226,-0.128196,0.2452482,1.725976,-0.03300686,-0.2583766,1.691851,-0.1541767,-0.0303093,1.72757,0.2317327,0.01882277,1.59709,NA,NA,Unknown,Open,
0.9414063,-0.2890625,0.1660156,-0.3828125,0.8837891,0.2866211,0,0,-1,-1,0,0,-2,0,-14,-2,-4,4,1,-1,2,-7,-2.125,-2.125,-2.125,-5.1875,-5.1875,-5.1875,3.238475,3.041665,5.873169,7.017003,5.628533,5.718761,-0.1291801,-0.3933112,1.620849,0.1773508,0.1605731,1.388289,0.06339932,0.5308908,1.708595,-0.07816796,-0.3637925,1.595631,0.1269441,0.1631391,1.318111,0.04702617,0.06227823,1.736296,0.04722916,-0.2631713,1.727158,-0.1286157,0.2453427,1.725753,-0.03301835,-0.2583196,1.691847,-0.1552636,-0.02645445,1.727153,0.2310395,0.01818323,1.598201,NA,NA,Unknown,Open,
0.9394531,-0.2910156,0.15625,-0.3110352,0.8208008,0.2783203,0,-3,1,1,-1,-1,0,-2,-4,-7,-3,0,12,66,3,-7,-3.3125,-3.3125,-3.3125,-2.125,-2.125,-2.125,3.236017,3.039072,5.870927,7.006102,5.606431,5.71461,-0.1288015,-0.3981603,1.620949,0.1764845,0.1560513,1.38628,0.0631018,0.530874,1.708364,-0.07832162,-0.3631994,1.596652,0.1259655,0.1561231,1.315889,0.04683816,0.06236296,1.736309,0.04724078,-0.2631167,1.727217,-0.128884,0.2452017,1.72559,-0.0329518,-0.2583198,1.691916,-0.1556295,-0.02676858,1.726827,0.2311582,0.01867914,1.596808,NA,NA,Unknown,Open,
0.949707,-0.2836914,0.1484375,-0.1591797,0.8120117,0.2045898,0,-1,-1,-2,-1,-2,-2,-1,-13,3,2,1,0,4,1,0,-2.375,-2.375,-2.375,-9.875,-9.875,-9.875,3.233094,3.034631,5.869713,6.998776,5.5214,5.70753,-0.1286079,-0.3986335,1.620585,0.1749324,0.1442911,1.372688,0.06273861,0.5310093,1.708059,-0.07820398,-0.3626772,1.596345,0.1229997,0.1336071,1.313667,0.04643217,0.06249528,1.73628,0.04722906,-0.2631029,1.727238,-0.1292437,0.2448589,1.725258,-0.03293014,-0.2583528,1.691908,-0.1554209,-0.02926256,1.725872,0.231308,0.01529723,1.596765,NA,NA,Unknown,Open,
0.949707,-0.2836914,0.1484375,-0.05615234,0.9042969,0.3081055,-1,-1,-3,-1,-1,0,0,-1,4,-5,-4,-4,-5,8,2,-1,-2.375,-2.375,-2.375,-2.625,-2.625,-2.625,3.233094,3.034631,5.869713,6.98003,5.276548,5.69679,-0.1286048,-0.3976234,1.621503,0.1671091,0.09051257,1.354939,0.06231349,0.5311928,1.707825,-0.07859079,-0.3591842,1.596187,0.1223657,0.08186066,1.303063,0.04590097,0.062393,1.736211,0.04697841,-0.2634536,1.727287,-0.1294864,0.2444831,1.724808,-0.03319189,-0.2587158,1.691899,-0.1559727,-0.0289975,1.725873,0.2353127,-0.01271865,1.593138,NA,NA,NotTracked,Open,
0.9467773,-0.2792969,0.1572266,-0.1030273,0.9609375,0.3198242,0,-2,-1,-2,0,-1,-1,0,-1,-1,0,1,1,-5,-1,0,5.875,5.875,5.875,-14.75,-14.75,-14.75,3.240499,3.032493,5.870091,6.963831,5.05276,5.668768,-0.1289638,-0.3977785,1.62203,0.1521263,0.001861727,1.319521,0.06168096,0.5311541,1.707717,-0.07858703,-0.3592021,1.596254,0.1104121,-0.008815981,1.282429,0.04523963,0.06203916,1.736041,0.0459186,-0.2643639,1.727298,-0.1299516,0.2444295,1.724683,-0.03435873,-0.2593143,1.69169,-0.1564016,-0.02881084,1.725813,0.2526431,0.02120442,1.661653,NA,NA,NotTracked,Closed,
0.934082,-0.2768555,0.1518555,0.2319336,0.5424805,0.3505859,-1,0,-2,0,0,-2,-1,0,-16,-16,-2,-4,-1,0,2,-7,7.75,7.75,7.75,-46.125,-46.125,-46.125,3.245186,3.031644,5.878838,6.861469,4.614424,5.635384,-0.1286086,-0.3984447,1.622483,0.1589605,-0.1229303,1.338433,0.06087298,0.5316261,1.707315,-0.07860895,-0.3606391,1.596333,0.1422443,-0.09498774,1.314643,0.0438684,0.06174017,1.735738,0.04349276,-0.2657733,1.727132,-0.1303091,0.2443897,1.724579,-0.0366953,-0.2599381,1.690987,-0.1563096,-0.02825705,1.726156,0.2812542,-0.01125823,1.652894,NA,NA,NotTracked,Unknown,
0.9418945,-0.2949219,0.1787109,0.644043,0.7827148,0.4326172,-1,-3,-1,0,-2,-2,-2,-1,-4,-4,-2,-2,-2,-1,2,-2,-1.125,-1.125,-1.125,31.3125,31.3125,31.3125,3.24919,3.029611,5.878446,6.879148,4.20381,5.639884,-0.1284258,-0.3985128,1.624776,0.1664678,-0.2434303,1.401701,0.06005749,0.5315146,1.707494,-0.07883883,-0.3603663,1.597424,0.1472249,-0.2112945,1.372783,0.04139795,0.06098469,1.735677,0.03787569,-0.267897,1.72689,-0.1307741,0.2441563,1.724686,-0.04343511,-0.2600255,1.689874,-0.1566281,-0.02806828,1.726324,0.2767289,-0.03017546,1.667757,NA,NA,NotTracked,Unknown,
0.9492188,-0.2871094,0.1621094,0.668457,0.9785156,0.3798828,-1,0,-2,0,-1,1,-1,-1,0,2,-1,-3,-3,-1,4,2,3.625,3.625,3.625,-26.875,-26.875,-26.875,3.25375,3.029373,5.878378,6.88556,3.851251,5.633499,-0.1288259,-0.3990586,1.622924,0.1770822,-0.324493,1.478872,0.05937457,0.5315223,1.707561,-0.07856501,-0.3597338,1.596625,0.199165,-0.2948821,1.436857,0.04097959,0.06064596,1.735499,0.03752889,-0.2684,1.726637,-0.1312568,0.243535,1.724729,-0.04397343,-0.2603592,1.689451,-0.1563567,-0.03215995,1.726384,0.2575266,-0.01909729,1.692267,NA,NA,NotTracked,Unknown,
0.9423828,-0.2827148,0.1538086,0.793457,0.6313477,0.2753906,0,-2,-2,0,0,-3,0,-2,0,1,1,0,-1,-1,-1,1,-1.125,-1.125,-1.125,-63.875,-63.875,-63.875,3.242625,3.034353,5.898447,6.844422,3.488524,5.483741,-0.1288836,-0.3976838,1.62306,0.2022011,-0.3651716,1.530018,0.05884505,0.5316827,1.707487,-0.07889926,-0.3589997,1.59712,0.2340677,-0.3496716,1.508658,0.04104149,0.06057895,1.735368,0.03864085,-0.2685255,1.72671,-0.1313894,0.2434668,1.724694,-0.04274714,-0.2609124,1.689452,-0.1558997,-0.03376202,1.726838,0.2538933,-0.02920324,1.701087,NA,NA,NotTracked,Unknown,
0.9458008,-0.2890625,0.1621094,1.007813,0.4145508,0.269043,-1,-2,0,-1,-2,-1,-1,-1,-1,-1,0,-1,0,-1,-2,-1,-2.6875,-2.6875,-2.6875,-86.25,-86.25,-86.25,3.237981,3.033658,5.901883,6.904964,3.262849,5.299797,-0.1289813,-0.3980597,1.624177,0.2174653,-0.3832313,1.59092,0.05874982,0.5317197,1.707398,-0.07875203,-0.362372,1.597281,0.2648471,-0.3987983,1.583125,0.04144398,0.06039135,1.73524,0.0407998,-0.2689039,1.727121,-0.1314462,0.2434019,1.72467,-0.04018601,-0.2620875,1.689667,-0.1559621,-0.03478899,1.726703,0.2503186,-0.03514454,1.707834,NA,NA,NotTracked,Unknown,
0.9438477,-0.3022461,0.1533203,0.980957,0.4121094,0.02880859,-2,-1,-2,0,1,-1,-1,0,-1,-1,0,-1,-1,-1,-1,-1,-4.875,-4.875,-4.875,-172.375,-172.375,-172.375,3.197117,3.026334,5.924838,6.95261,3.190088,5.036072,-0.1293316,-0.3987406,1.626013,0.2337825,-0.4006215,1.626103,0.0588287,0.5318317,1.707287,-0.07869583,-0.3612942,1.598127,0.2837712,-0.4165713,1.624667,0.04215068,0.06008337,1.735337,0.04306886,-0.2696089,1.727952,-0.131396,0.2433871,1.724646,-0.03794841,-0.262944,1.690228,-0.1563753,-0.03343331,1.727196,0.2467802,-0.03751088,1.712434,NA,NA,NotTracked,Unknown,
0.9467773,-0.2729492,0.1435547,0.9829102,0.3544922,0.1166992,-1,-1,0,-3,-1,-1,0,-1,-2,-1,-1,0,-1,2,-8,0,-5.4375,-5.4375,-5.4375,-51.1875,-51.1875,-51.1875,3.19085,3.026821,5.926742,6.965092,3.149797,4.859014,-0.1292195,-0.3987224,1.625152,0.2409413,-0.4023131,1.635457,0.0596078,0.5314924,1.706991,-0.07928348,-0.3634501,1.599711,0.2894956,-0.4068163,1.635421,0.04304569,0.05964177,1.735403,0.04498404,-0.2703175,1.728657,-0.1312523,0.2433985,1.724485,-0.03606611,-0.2637044,1.690549,-0.1567947,-0.03239093,1.727185,0.2443332,-0.04081127,1.717698,NA,NA,NotTracked,NotTracked,
0.9301758,-0.2885742,0.1459961,0.8735352,0.5249023,0.1723633,1,-2,-1,0,0,-2,1,-2,-3,-1,0,0,-2,-6,7,-8,-9.625,-9.625,-9.625,44.0625,44.0625,44.0625,3.18678,3.025246,5.908673,6.991765,3.15432,4.934149,-0.1288203,-0.3961965,1.62467,0.2413941,-0.4042286,1.632359,0.06058447,0.5312257,1.706665,-0.07791745,-0.3828405,1.598455,0.291136,-0.4116966,1.632896,0.04383367,0.05931203,1.735543,0.04620767,-0.2707143,1.729473,-0.1308325,0.2435179,1.723859,-0.03484951,-0.2640822,1.691004,-0.1563506,-0.03328844,1.726716,0.2437063,-0.0426153,1.723582,NA,NA,NotTracked,NotTracked,
0.9370117,-0.2788086,0.1430664,0.8671875,0.4282227,0.1933594,0,-1,0,-2,0,-1,1,1,-1,-3,-2,-1,-1,3,2,-6,-11.4375,-11.4375,-11.4375,7.4375,7.4375,7.4375,3.182601,3.018865,5.89294,6.918527,3.199304,5.031199,-0.1287041,-0.3966034,1.627389,0.2388617,-0.4059378,1.626612,0.06163891,0.5313955,1.706028,-0.07833153,-0.3706882,1.599486,0.2874234,-0.4060842,1.625967,0.04464446,0.05925023,1.735799,0.04753572,-0.2707527,1.730517,-0.1305104,0.2438544,1.723299,-0.03364331,-0.2641734,1.691427,-0.1566689,-0.03147553,1.726275,0.243777,-0.04356682,1.72875,NA,NA,NotTracked,NotTracked,
0.9443359,-0.277832,0.1401367,0.8618164,0.4130859,0.1376953,-2,-1,0,-1,-1,-1,0,-2,-1,0,-1,-2,-4,-2,-5,-4,-7,-7,-7,26.3125,26.3125,26.3125,3.179641,3.01341,5.881326,6.921417,3.224219,5.059469,-0.1281213,-0.3965949,1.627432,0.2312039,-0.3974786,1.619274,0.06242717,0.5313755,1.70575,-0.07812212,-0.3847219,1.601936,0.2750868,-0.4132527,1.6116,0.04518377,0.05933971,1.736052,0.04846413,-0.2705114,1.731371,-0.1299649,0.2439857,1.72243,-0.03277168,-0.2640458,1.691933,-0.1567805,-0.0311348,1.726142,0.2433045,-0.04330518,1.73211,NA,NA,NotTracked,NotTracked,
0.9477539,-0.2749023,0.1357422,0.8779297,0.4111328,0.03662109,-2,0,-3,-2,-1,-1,-1,-4,0,-2,-1,-2,-1,-1,-2,-1,-0.875,-0.875,-0.875,38.9375,38.9375,38.9375,3.18986,3.012124,5.867108,7.103383,3.211045,4.972571,-0.1272444,-0.3960252,1.627107,0.2228743,-0.3952575,1.614588,0.06289119,0.5314025,1.705438,-0.0785408,-0.3914509,1.601787,0.2681475,-0.4209044,1.610765,0.04567951,0.05943026,1.736481,0.04921344,-0.2702815,1.732106,-0.1297476,0.2439734,1.722143,-0.03217761,-0.2640173,1.692336,-0.1570094,-0.02992112,1.725992,0.2425655,-0.04248293,1.733563,NA,NA,NotTracked,NotTracked,
0.9560547,-0.2734375,0.1333008,0.8813477,0.4160156,0.05859375,-1,-2,-1,0,-1,0,0,0,0,0,-1,-2,0,0,-4,0,0.5625,0.5625,0.5625,17.8125,17.8125,17.8125,3.197008,3.011898,5.860874,7.130378,3.212073,4.972763,-0.1269269,-0.3963546,1.627266,0.2214084,-0.3944775,1.612963,0.06302909,0.5313788,1.705316,-0.07792331,-0.3618729,1.60306,0.2650481,-0.4299774,1.606333,0.045804,0.05944521,1.736617,0.04941899,-0.2701479,1.732454,-0.1296395,0.2439892,1.722017,-0.03200046,-0.2639797,1.692575,-0.1569877,-0.02942413,1.726128,0.2419334,-0.04172075,1.734227,NA,NA,NotTracked,NotTracked,
0.9560547,-0.2734375,0.1333008,0.8764648,0.3999023,0.08349609,-1,-1,-1,-1,2,0,-1,-1,-2,0,-3,-1,-1,0,0,0,0.5625,0.5625,0.5625,9.4375,9.4375,9.4375,3.197008,3.011898,5.860874,7.121367,3.208781,4.996438,-0.126914,-0.3961472,1.628103,0.2195993,-0.3933923,1.613416,0.06314352,0.5313402,1.70527,-0.07815106,-0.3796128,1.60337,0.2658333,-0.4293889,1.611545,0.04594151,0.05947034,1.736792,0.04962736,-0.2699505,1.732922,-0.1295855,0.2440636,1.722012,-0.03178766,-0.2638589,1.692931,-0.1569562,-0.02928653,1.726196,0.2418614,-0.04164292,1.734668,NA,NA,NotTracked,NotTracked,
0.9428711,-0.2792969,0.1235352,0.8798828,0.4003906,0.1137695,-2,-2,-1,-1,-1,-2,0,-2,-1,0,2,-1,0,0,-1,-1,4.0625,4.0625,4.0625,2.9375,2.9375,2.9375,3.197685,3.010148,5.864257,7.099867,3.200532,5.025848,-0.1271242,-0.3959892,1.629229,0.2200946,-0.3915322,1.614393,0.06323551,0.5313361,1.705231,-0.07827083,-0.3554258,1.605,0.2665156,-0.4004813,1.612,0.04610705,0.05941694,1.736982,0.04988097,-0.2699248,1.733367,-0.1295108,0.2440166,1.72205,-0.0315461,-0.2639009,1.693377,-0.156899,-0.02896049,1.72638,0.2418488,-0.04156011,1.734889,NA,NA,NotTracked,NotTracked,
0.9516602,-0.2822266,0.1474609,0.878418,0.394043,0.1010742,-2,0,0,-3,0,-2,-2,-1,0,-1,-1,-2,0,-1,0,-1,2.6875,2.6875,2.6875,-2.9375,-2.9375,-2.9375,3.193457,3.009669,5.877606,7.088992,3.191671,5.036026,-0.1270478,-0.3960726,1.628116,0.2202591,-0.3928575,1.613113,0.06335166,0.5310728,1.705134,-0.07770492,-0.4110214,1.602074,0.2658516,-0.4079592,1.607216,0.04616127,0.05940527,1.737054,0.04999704,-0.269875,1.733518,-0.1295076,0.244016,1.722025,-0.03146532,-0.2638812,1.693474,-0.1568393,-0.02900312,1.726419,0.2417803,-0.04136053,1.734958,NA,NA,NotTracked,NotTracked,
0.9394531,-0.284668,0.1518555,0.8896484,0.3730469,0.09570313,1,-3,-2,0,0,0,-1,-1,0,-2,1,1,-1,-3,-1,-1,2.25,2.25,2.25,-8.25,-8.25,-8.25,3.192195,3.010063,5.88185,7.08643,3.183222,5.029894,-0.126465,-0.3965386,1.629759,0.2221032,-0.4040239,1.613714,0.0634776,0.5310677,1.705029,-0.07776568,-0.3644039,1.604989,0.2685755,-0.4118708,1.609884,0.04642729,0.05939887,1.73735,0.05039347,-0.2698188,1.73404,-0.1294672,0.2440246,1.722021,-0.0310911,-0.2639063,1.693895,-0.1568767,-0.02835309,1.726911,0.2418185,-0.04124611,1.735036,NA,NA,NotTracked,NotTracked,
0.9418945,-0.2792969,0.1586914,0.8896484,0.3730469,0.09667969,0,0,-1,-1,0,0,-1,-1,-2,0,-1,-3,1,-1,-1,-1,2.4375,2.4375,2.4375,-9.375,-9.375,-9.375,3.193555,3.010352,5.882284,7.086776,3.179561,5.023889,-0.1264732,-0.3963146,1.630519,0.2232734,-0.4029446,1.615654,0.06351536,0.5310411,1.70501,-0.07533818,-0.374135,1.604513,0.270099,-0.4131712,1.610455,0.04652301,0.05938889,1.737467,0.05061626,-0.2697893,1.734326,-0.1293519,0.2440419,1.721966,-0.03084102,-0.2639297,1.694208,-0.1567559,-0.0285162,1.72719,0.2418205,-0.04124725,1.735052,NA,NA,NotTracked,NotTracked,
0.9458008,-0.2827148,0.168457,0.9189453,0.3569336,0.09814453,-1,1,0,0,-2,-1,-1,-2,-2,0,-1,-1,0,-2,-2,-2,-0.3125,-0.3125,-0.3125,-6.8125,-6.8125,-6.8125,3.197128,3.010757,5.880053,7.091415,3.16756,5.003601,-0.1268202,-0.3943001,1.632295,0.2263376,-0.4011584,1.619254,0.06357209,0.5310587,1.704968,-0.07527046,-0.4010633,1.60475,0.2762635,-0.4078388,1.61575,0.04669736,0.05938618,1.73778,0.05071447,-0.2697795,1.734745,-0.1293525,0.2440195,1.72204,-0.03071492,-0.2639847,1.694854,-0.1559189,-0.03106809,1.727912,0.241804,-0.0410524,1.735108,NA,NA,NotTracked,NotTracked,
0.9399414,-0.2861328,0.1606445,0.9033203,0.3583984,0.09667969,0,-1,-2,-1,-2,-2,-2,-1,1,-1,-2,0,0,0,-1,-1,-0.5,-0.5,-0.5,-2.875,-2.875,-2.875,3.19891,3.010838,5.87824,7.096793,3.163052,4.993012,-0.1260857,-0.3946756,1.631614,0.2275903,-0.4015035,1.620043,0.0636315,0.5310329,1.704947,-0.0749878,-0.3965318,1.604664,0.2778091,-0.3877491,1.620548,0.04674975,0.05939564,1.737913,0.05084706,-0.2697425,1.734987,-0.1293114,0.244119,1.72208,-0.03055343,-0.263961,1.695087,-0.1558523,-0.03094676,1.728166,0.2418085,-0.04099676,1.735137,NA,NA,NotTracked,NotTracked,
0.9365234,-0.2817383,0.1494141,0.9033203,0.3662109,0.09521484,-1,-1,0,-3,-1,-1,0,-1,-1,-2,0,0,-1,-1,0,-1,-0.375,-0.375,-0.375,-1.4375,-1.4375,-1.4375,3.199467,3.010931,5.877647,7.101511,3.162187,4.986899,-0.1255287,-0.3966991,1.631552,0.2276936,-0.4008835,1.621273,0.06368537,0.5310023,1.704908,-0.07531583,-0.392653,1.604604,0.2754555,-0.4009304,1.616873,0.04689287,0.05942706,1.738168,0.05110749,-0.2696484,1.735374,-0.12927,0.2441768,1.722162,-0.03025806,-0.2639035,1.695541,-0.155812,-0.0306283,1.728451,0.2418807,-0.0406617,1.735202,NA,NA,NotTracked,NotTracked,
0.940918,-0.2783203,0.1464844,0.8945313,0.3793945,0.08496094,-1,-1,-1,-1,-1,-1,-1,0,0,-1,0,-1,-2,1,-1,-1,-2.125,-2.125,-2.125,2.125,2.125,2.125,3.203367,3.011431,5.872156,7.124278,3.164314,4.963833,-0.1257494,-0.3943905,1.63185,0.227924,-0.398767,1.621895,0.06379306,0.5309894,1.704833,-0.07522593,-0.3927931,1.604867,0.277151,-0.3910586,1.618749,0.04711114,0.0594058,1.738437,0.0512123,-0.2696589,1.735574,-0.1292026,0.244179,1.722189,-0.03017765,-0.2639422,1.695722,-0.1559808,-0.03033691,1.728707,0.2419283,-0.04053658,1.735189,NA,NA,NotTracked,NotTracked,
0.9428711,-0.277832,0.1464844,0.8979492,0.3798828,0.08544922,-2,-1,-2,0,-1,-1,0,-2,-2,-2,-3,0,0,0,-2,-2,-3.3125,-3.3125,-3.3125,4.0625,4.0625,4.0625,3.205228,3.011741,5.866864,7.138119,3.167372,4.953312,-0.1255324,-0.3943627,1.632069,0.2281766,-0.3990342,1.622128,0.06412546,0.530696,1.704809,-0.07532567,-0.3947271,1.604782,0.2790944,-0.3860995,1.623273,0.04759562,0.05933609,1.738873,0.0518252,-0.2696845,1.736054,-0.1290572,0.244143,1.722297,-0.02952858,-0.2640287,1.696283,-0.1559896,-0.0300571,1.728902,0.2420773,-0.04060515,1.735197,NA,NA,NotTracked,NotTracked,
0.940918,-0.2832031,0.1523438,0.8945313,0.3745117,0.078125,-1,-1,-1,-1,-2,-2,0,0,-1,-1,-2,-2,0,2,5,0,-4.5,-4.5,-4.5,5.5,5.5,5.5,3.205471,3.012456,5.861846,7.145313,3.168122,4.948907,-0.1249054,-0.3945207,1.631951,0.2281819,-0.3990555,1.621769,0.0642166,0.5306533,1.704918,-0.07427079,-0.3823309,1.608205,0.277347,-0.3944821,1.619424,0.04772026,0.05936743,1.739067,0.05202099,-0.2696759,1.736277,-0.1290042,0.2442055,1.722369,-0.02934711,-0.2640377,1.696432,-0.1559965,-0.03000065,1.728957,0.2421066,-0.04052403,1.735281,NA,NA,NotTracked,NotTracked,
0.9472656,-0.2802734,0.1455078,0.8935547,0.3793945,0.08251953,-2,-1,-1,-1,-1,-1,-1,-1,0,0,-1,-1,-1,-4,-1,-1,-4.8125,-4.8125,-4.8125,5.125,5.125,5.125,3.205775,3.012029,5.856635,7.154409,3.168776,4.9457,-0.1248396,-0.3940354,1.631356,0.2285849,-0.3986855,1.620739,0.06428642,0.5306415,1.704898,-0.07410451,-0.3799306,1.606974,0.2775102,-0.4230218,1.615062,0.04804967,0.05940197,1.739361,0.05215346,-0.2696474,1.736377,-0.1289468,0.244256,1.722389,-0.02918224,-0.2640056,1.696564,-0.1559796,-0.02998975,1.728964,0.2421331,-0.04046047,1.735305,NA,NA,NotTracked,NotTracked,
0.9472656,-0.2841797,0.1479492,0.8955078,0.3833008,0.08300781,-1,-3,0,-2,-2,-2,-2,-1,1,0,0,0,0,0,0,-1,-4.9375,-4.9375,-4.9375,6.4375,6.4375,6.4375,3.205358,3.012165,5.8543,7.169425,3.168662,4.940016,-0.1244427,-0.3940549,1.630517,0.2282018,-0.3981299,1.619152,0.06445613,0.5304932,1.704932,-0.0758462,-0.3667511,1.606954,0.2774866,-0.4077374,1.615648,0.04830726,0.05940568,1.739442,0.05240199,-0.269619,1.736454,-0.1288443,0.2443468,1.722364,-0.02892845,-0.2640004,1.696662,-0.1559522,-0.02979172,1.728985,0.2422594,-0.04041195,1.735337,NA,NA,NotTracked,NotTracked,
0.9453125,-0.2788086,0.1381836,0.890625,0.3813477,0.07275391,0,1,-2,-1,-1,-2,-1,1,-1,0,-1,-1,-2,-2,-1,0,-3.3125,-3.3125,-3.3125,4.3125,4.3125,4.3125,3.20513,3.012215,5.850331,7.180079,3.167742,4.934427,-0.123771,-0.3946486,1.630757,0.2289229,-0.398922,1.618972,0.06493349,0.5303407,1.70499,-0.0750189,-0.3756044,1.606164,0.282875,-0.4362376,1.6266,0.04875454,0.05942511,1.739695,0.05292483,-0.2695968,1.73661,-0.1287245,0.2443326,1.722375,-0.02835225,-0.2640931,1.696829,-0.1558757,-0.02962042,1.728879,0.2425889,-0.04050675,1.735217,NA,NA,NotTracked,NotTracked,
0.9467773,-0.2792969,0.1479492,0.8959961,0.3833008,0.0703125,-2,0,-2,-1,-1,-1,-1,-1,1,-1,-2,-1,-1,-2,0,0,-3.5,-3.5,-3.5,2.9375,2.9375,2.9375,3.205998,3.013106,5.843727,7.18696,3.166413,4.930941,-0.1245273,-0.3941484,1.630514,0.2289646,-0.3988499,1.618208,0.06529137,0.5302452,1.705154,-0.07493259,-0.3772857,1.606018,0.2792638,-0.4210174,1.613583,0.04899686,0.05944921,1.739801,0.05315419,-0.269567,1.736631,-0.1286045,0.2443095,1.722353,-0.02814769,-0.2640954,1.696836,-0.1557681,-0.02938838,1.728766,0.2427754,-0.04041437,1.735057,NA,NA,NotTracked,NotTracked,
0.9472656,-0.2783203,0.1479492,0.8901367,0.378418,0.06591797,-2,0,0,-2,-1,-1,-2,-2,-1,-1,-1,0,0,1,0,0,-2.25,-2.25,-2.25,0.1875,0.1875,0.1875,3.206391,3.013447,5.842419,7.189502,3.165644,4.929527,-0.1237887,-0.3945316,1.630047,0.2289298,-0.3983318,1.618544,0.06557316,0.5302781,1.705243,-0.07452914,-0.3795919,1.605958,0.2780475,-0.4034349,1.613037,0.0491596,0.05949468,1.739904,0.05331564,-0.2695233,1.736679,-0.1285606,0.2443228,1.722339,-0.02798382,-0.2640655,1.6969,-0.1556783,-0.02936911,1.728748,0.2429793,-0.04042257,1.734912,NA,NA,NotTracked,NotTracked,
0.9467773,-0.2749023,0.1420898,0.8945313,0.375,0.06347656,-2,0,-1,-1,-1,-1,-4,-1,-1,-1,0,0,0,-1,-1,0,-1.5625,-1.5625,-1.5625,-1.3125,-1.3125,-1.3125,3.204895,3.012799,5.841159,7.189149,3.165334,4.929404,-0.1239912,-0.3940934,1.630058,0.2293715,-0.3986402,1.618088,0.06587347,0.5302507,1.70529,-0.07444697,-0.3610927,1.605464,0.2791245,-0.4153323,1.614452,0.04936913,0.05946418,1.739996,0.05353359,-0.2695772,1.736707,-0.1284883,0.2443292,1.722323,-0.02773889,-0.2641278,1.696849,-0.1556303,-0.02938666,1.728694,0.2433459,-0.04058602,1.734733,NA,NA,NotTracked,NotTracked,
0.9492188,-0.277832,0.1484375,0.8935547,0.3793945,0.07470703,-2,-2,0,-1,-1,0,-1,0,1,-1,-3,0,-1,-1,-2,0,-1.4375,-1.4375,-1.4375,-1.3125,-1.3125,-1.3125,3.204123,3.012852,5.84126,7.18729,3.164809,4.930036,-0.1241352,-0.3949049,1.630241,0.22946,-0.3993515,1.618709,0.06611912,0.5302726,1.705539,-0.07361174,-0.3808199,1.604572,0.2797105,-0.4009853,1.614609,0.04957302,0.05943597,1.740132,0.05379604,-0.2696104,1.736762,-0.1281908,0.2442228,1.722368,-0.02744303,-0.2641918,1.696975,-0.155562,-0.02940019,1.728681,0.2436215,-0.0405587,1.734676,NA,NA,NotTracked,NotTracked,
0.9433594,-0.2695313,0.1469727,0.8930664,0.3774414,0.07421875,0,0,1,1,-2,-1,0,-1,0,-1,-1,-1,0,-3,-3,0,-0.125,-0.125,-0.125,-0.8125,-0.8125,-0.8125,3.205235,3.012463,5.840252,7.186652,3.164855,4.93004,-0.1237249,-0.3938576,1.629469,0.2299623,-0.3990272,1.61801,0.06649062,0.5302652,1.705524,-0.07447405,-0.3703395,1.605548,0.2783974,-0.3921261,1.613655,0.04980324,0.05945312,1.740202,0.05403587,-0.2696243,1.73677,-0.1278333,0.2441371,1.722244,-0.02724684,-0.2642263,1.697002,-0.1553985,-0.029055,1.728651,0.2438804,-0.04044426,1.734543,NA,NA,NotTracked,NotTracked,
0.9384766,-0.277832,0.1425781,0.8984375,0.3818359,0.078125,-1,-1,-1,-1,-1,1,1,0,-1,-1,1,-1,0,0,0,0,-0.4375,-0.4375,-0.4375,1.3125,1.3125,1.3125,3.205856,3.012919,5.839734,7.186935,3.164567,4.930257,-0.1235089,-0.3939,1.630117,0.2310146,-0.4001935,1.619032,0.06733611,0.530256,1.705888,-0.07311644,-0.3862617,1.605154,0.2801321,-0.4075875,1.616389,0.05023016,0.05945906,1.740347,0.05454199,-0.2696015,1.736878,-0.1274616,0.2441705,1.722209,-0.02671005,-0.2641888,1.697009,-0.155166,-0.02887957,1.72862,0.2445955,-0.04069898,1.734372,NA,NA,NotTracked,NotTracked,
0.9399414,-0.2817383,0.144043,0.8955078,0.3779297,0.06738281,1,-1,-1,-1,0,0,-1,1,-1,0,-1,-1,-1,0,-2,-1,0.5625,0.5625,0.5625,2.3125,2.3125,2.3125,3.206452,3.012455,5.839038,7.189776,3.16312,4.929853,-0.1229183,-0.3934019,1.630968,0.2308763,-0.3991587,1.618977,0.06772511,0.5302022,1.705971,-0.07384748,-0.4046848,1.605593,0.2795032,-0.4028981,1.614688,0.05046795,0.05955881,1.740491,0.05476347,-0.2695167,1.736961,-0.1271529,0.2441953,1.722262,-0.026454,-0.2641205,1.697126,-0.1548896,-0.02841496,1.728796,0.2448093,-0.04050454,1.734415,NA,NA,NotTracked,NotTracked,
0.9438477,-0.2822266,0.1459961,0.8930664,0.3779297,0.06591797,-4,-2,-2,-1,-1,-1,-2,-1,-2,-2,-1,-1,1,0,0,0,0.9375,0.9375,0.9375,1.6875,1.6875,1.6875,3.206242,3.012859,5.840204,7.192605,3.162224,4.929493,-0.1230127,-0.3933898,1.631066,0.2311113,-0.3993592,1.619327,0.06813283,0.5303267,1.706047,-0.07352769,-0.3591558,1.607674,0.278889,-0.3997845,1.613153,0.05080599,0.05965923,1.740635,0.0550772,-0.2694336,1.73704,-0.1270074,0.2442043,1.722296,-0.02620275,-0.2640666,1.697188,-0.1547074,-0.02831824,1.728896,0.2451284,-0.04036999,1.734458,NA,NA,NotTracked,NotTracked,
0.9453125,-0.2817383,0.1469727,0.8945313,0.3793945,0.06738281,-1,-2,-1,-1,-1,-1,0,-1,1,-1,-3,-1,1,0,-2,-1,0.3125,0.3125,0.3125,1.375,1.375,1.375,3.205361,3.013366,5.842001,7.192749,3.16187,4.931343,-0.1228065,-0.3932487,1.631247,0.2312773,-0.3994273,1.619295,0.06835303,0.5303677,1.70617,-0.07374199,-0.3592164,1.607973,0.2801321,-0.423427,1.612334,0.05094094,0.05969444,1.740727,0.05523473,-0.2694311,1.737098,-0.1268698,0.2442059,1.722385,-0.02602475,-0.2640809,1.697242,-0.154477,-0.02816868,1.729002,0.2454301,-0.0404795,1.734418,NA,NA,NotTracked,NotTracked,
0.9458008,-0.2792969,0.152832,0.8994141,0.3793945,0.07617188,-1,-1,-1,-2,-1,-1,0,0,-1,-2,-2,-1,-1,-1,1,0,0.25,0.25,0.25,-1.125,-1.125,-1.125,3.205956,3.012901,5.841306,7.18745,3.161744,4.936338,-0.1222601,-0.393618,1.630913,0.2314651,-0.3998504,1.618608,0.06950644,0.5305171,1.706685,-0.07324038,-0.359264,1.607077,0.2801857,-0.4005894,1.61369,0.05139278,0.05973411,1.740946,0.05560865,-0.2693417,1.737243,-0.1260856,0.2443984,1.722747,-0.02563003,-0.2640048,1.697374,-0.1541205,-0.02799601,1.729084,0.2457203,-0.04026116,1.734485,NA,NA,NotTracked,NotTracked,
0.9428711,-0.2851563,0.1386719,0.8999023,0.378418,0.07373047,0,-3,0,-1,-1,-1,-1,0,0,0,-1,1,-1,-4,0,-2,1.3125,1.3125,1.3125,-0.0625,-0.0625,-0.0625,3.206575,3.013289,5.84183,7.187402,3.161884,4.935835,-0.1218948,-0.3945392,1.631148,0.2319728,-0.3999339,1.61882,0.07003992,0.5303882,1.706968,-0.07197864,-0.3918046,1.605333,0.2802012,-0.4095927,1.614213,0.05159598,0.05968733,1.741091,0.05578706,-0.2693825,1.737328,-0.1258276,0.2443755,1.722909,-0.02540351,-0.2640414,1.697538,-0.1539605,-0.02796482,1.729226,0.2458961,-0.04022512,1.734512,NA,NA,NotTracked,NotTracked,
0.9453125,-0.2768555,0.1474609,0.8911133,0.3793945,0.06445313,-2,0,-2,-2,0,0,0,-1,-2,-1,-2,0,-2,0,-1,-1,1.4375,1.4375,1.4375,-2.5625,-2.5625,-2.5625,3.207349,3.013498,5.842038,7.187083,3.162149,4.934265,-0.1207671,-0.3936788,1.630383,0.2319292,-0.3992309,1.617957,0.07038732,0.530431,1.707078,-0.0710969,-0.3909583,1.605091,0.2811566,-0.4048733,1.61512,0.0517989,0.05968157,1.741118,0.05603257,-0.269353,1.737345,-0.1255639,0.2444325,1.72306,-0.02514357,-0.2640166,1.697576,-0.1537842,-0.02808414,1.729297,0.2462283,-0.04012632,1.734381,NA,NA,NotTracked,NotTracked,
0.9414063,-0.2832031,0.1469727,0.8994141,0.3793945,0.07470703,1,-1,-2,-1,-1,-2,0,-1,-1,2,-1,1,-1,-1,0,-1,0.3125,0.3125,0.3125,-5.6875,-5.6875,-5.6875,3.206856,3.014273,5.843569,7.17747,3.163026,4.939214,-0.1206092,-0.3940996,1.632166,0.232452,-0.399445,1.619347,0.07091435,0.5304509,1.707307,-0.07061937,-0.39622,1.607932,0.2808723,-0.3934925,1.613437,0.05212422,0.05974893,1.741297,0.0563525,-0.2692572,1.737486,-0.1252589,0.2444975,1.723423,-0.0248184,-0.2639018,1.697743,-0.1533515,-0.02814424,1.729598,0.2465246,-0.04026407,1.734425,NA,NA,NotTracked,NotTracked,
0.9423828,-0.2827148,0.1484375,0.8979492,0.3740234,0.08251953,-2,-2,-1,0,-2,-1,0,-1,-1,-1,0,0,-1,1,-1,0,1.125,1.125,1.125,-4.875,-4.875,-4.875,3.205354,3.015409,5.847674,7.165518,3.163987,4.945716,-0.120226,-0.394391,1.632481,0.2329219,-0.399406,1.619628,0.07178442,0.530453,1.707669,-0.07034513,-0.3818069,1.606941,0.2821725,-0.414158,1.615718,0.05281459,0.05965038,1.741593,0.05707529,-0.2693386,1.737682,-0.1244685,0.2445117,1.72389,-0.0241562,-0.2640007,1.697891,-0.1502154,-0.03373337,1.729903,0.2471009,-0.04052237,1.734742,NA,NA,NotTracked,NotTracked,
0.9414063,-0.2783203,0.1430664,0.8955078,0.3818359,0.07958984,-1,-2,0,0,-2,0,-1,-1,-1,-2,-1,-1,-1,0,0,-1,1.5,1.5,1.5,-2.5625,-2.5625,-2.5625,3.205036,3.015425,5.849045,7.158724,3.163999,4.949296,-0.1201234,-0.3939805,1.631906,0.2329303,-0.3992779,1.61916,0.07213124,0.5305001,1.707719,-0.06983797,-0.3858174,1.606349,0.2818615,-0.3977952,1.615692,0.05308547,0.05968609,1.741692,0.05729786,-0.2693268,1.737731,-0.1240927,0.2446118,1.724067,-0.02396353,-0.2639915,1.697895,-0.1502769,-0.03287124,1.730218,0.2472189,-0.04052114,1.734801,NA,NA,NotTracked,NotTracked,
0.9438477,-0.2880859,0.1489258,0.8945313,0.387207,0.08056641,0,-1,-1,-1,0,0,-1,0,1,-1,0,-1,-3,0,0,-2,0.9375,0.9375,0.9375,-2.875,-2.875,-2.875,3.202525,3.015829,5.853927,7.15633,3.16456,4.949358,-0.1197086,-0.3947063,1.631401,0.2332317,-0.3995911,1.619011,0.07256804,0.5303811,1.707774,-0.06881201,-0.3931094,1.602767,0.2816844,-0.4224194,1.610813,0.05339568,0.05967332,1.74173,0.05749933,-0.2693447,1.737745,-0.1238733,0.2446466,1.724191,-0.02377127,-0.2639917,1.697898,-0.1500943,-0.0327257,1.730368,0.2476709,-0.04085191,1.734814,NA,NA,NotTracked,NotTracked,
0.9384766,-0.28125,0.1503906,0.8935547,0.3823242,0.08496094,0,0,0,-1,-1,-2,-1,-1,0,-2,-1,-1,-1,-1,-1,-1,1.4375,1.4375,1.4375,-5.3125,-5.3125,-5.3125,3.204137,3.016589,5.854409,7.148045,3.165479,4.952726,-0.1199496,-0.3940791,1.632027,0.2337953,-0.3993544,1.619491,0.07293247,0.5303423,1.708,-0.06995755,-0.3841633,1.605761,0.2817537,-0.4146008,1.613219,0.05383416,0.05972736,1.741788,0.05780245,-0.2693106,1.737786,-0.1235559,0.2445805,1.724327,-0.02351897,-0.2639597,1.697961,-0.1499762,-0.03221327,1.730361,0.2479854,-0.04115393,1.735015,NA,NA,NotTracked,NotTracked,
0.9394531,-0.2890625,0.1445313,0.8901367,0.3862305,0.09033203,-1,-1,0,-1,-1,0,-2,-2,0,-1,-2,0,1,-1,-2,-1,-0.375,-0.375,-0.375,-2.75,-2.75,-2.75,3.202,3.016496,5.856765,7.141177,3.166116,4.955945,-0.1195235,-0.3938896,1.631837,0.2333052,-0.3992386,1.61919,0.07334233,0.5303351,1.707983,-0.07007688,-0.4096322,1.605269,0.2827765,-0.408941,1.613991,0.05412751,0.05967011,1.741872,0.05801472,-0.2693322,1.737822,-0.1232473,0.2445519,1.724448,-0.02335439,-0.2639588,1.69793,-0.1498153,-0.03187801,1.73053,0.2482579,-0.04131278,1.735086,NA,NA,NotTracked,NotTracked,
0.9384766,-0.2841797,0.1430664,0.8920898,0.3828125,0.07421875,-1,-3,-1,-1,-1,-2,2,-1,-1,-1,1,-1,-1,-1,-1,0,0.625,0.625,0.625,-2.5625,-2.5625,-2.5625,3.200731,3.016723,5.858818,7.141314,3.166649,4.952994,-0.1197006,-0.3946718,1.631252,0.2339152,-0.4001152,1.619029,0.07385662,0.5302871,1.708063,-0.06971351,-0.3814104,1.6065,0.2822667,-0.4183129,1.611829,0.05428769,0.05965897,1.741947,0.05809729,-0.269336,1.73787,-0.1230324,0.2445926,1.724623,-0.0232788,-0.2639501,1.69795,-0.1496352,-0.03154481,1.730684,0.2485295,-0.04152461,1.735153,NA,NA,NotTracked,NotTracked,
0.9345703,-0.2827148,0.1469727,0.9003906,0.3837891,0.08398438,0,-2,0,-1,1,0,-2,0,-2,-1,-2,-1,0,-1,0,0,0.75,0.75,0.75,-1.5625,-1.5625,-1.5625,3.20137,3.016858,5.858768,7.140671,3.166102,4.951782,-0.1188214,-0.3939954,1.632152,0.2342534,-0.4000849,1.619238,0.07457075,0.5303456,1.707951,-0.06931455,-0.3870453,1.606102,0.2818721,-0.4173082,1.610682,0.05481455,0.05957993,1.742122,0.05851724,-0.2693809,1.73801,-0.1223457,0.2447134,1.72481,-0.02288889,-0.2639834,1.698079,-0.1492959,-0.03090223,1.730946,0.248983,-0.04164172,1.735327,NA,NA,NotTracked,NotTracked,
0.940918,-0.2763672,0.1469727,0.8896484,0.3867188,0.08203125,0,1,-1,0,0,-2,0,-1,0,0,0,0,-1,-2,0,-1,-0.125,-0.125,-0.125,1.5625,1.5625,1.5625,3.201354,3.016518,5.859512,7.143892,3.165721,4.949439,-0.1188792,-0.394995,1.633223,0.2348945,-0.3999015,1.620923,0.07499832,0.5302531,1.708028,-0.0697489,-0.3563453,1.609697,0.2849895,-0.429684,1.6185,0.05495394,0.05954663,1.742307,0.05866836,-0.2693991,1.73816,-0.1217991,0.2449016,1.725151,-0.02276547,-0.2639658,1.698176,-0.1490317,-0.03068442,1.731148,0.2491645,-0.0416624,1.735507,NA,NA,NotTracked,NotTracked,
