ALX,ALY,ALZ,ARX,ARY,ARZ,EMG0L,EMG1L,EMG2L,EMG3L,EMG4L,EMG5L,EMG6L,EMG7L,EMG0R,EMG1R,EMG2R,EMG3R,EMG4R,EMG5R,EMG6R,EMG7R,GLX,GLY,GLZ,GRX,GRY,GRZ,ORL,OPL,OYL,ORR,OPR,OYR,LHNX,LHNY,LHNZ,RHNX,RHNY,RHNZ,HX,HY,HZ,LTX,LTY,LTZ,RTX,RTY,RTZ,SpineMidX,SpineMidY,SpineMidZ,SpineBaseX,SpineBaseY,SpineBaseZ,ShoulderLeftX,ShoulderLeftY,ShoulderLeftZ,ShoulderRightX,ShoulderRightY,ShoulderRightZ,ElbowLeftX,ElbowLeftY,ElbowLeftZ,ElbowRightX,ElbowRightY,ElbowRightZ,Myo_Pose_left,Myo_Pose_Right,Kinect_pose_left,Kinect_pose_right
0.9521484,-0.2993164,0.04980469,0.07421875,0.8100586,0.5761719,0,-1,-2,-1,1,0,1,-2,15,7,7,3,1,-11,-7,-1,-21.4375,-21.4375,-21.4375,-77.25,-77.25,-77.25,2.683797,2.982309,6.595747,6.531547,4.520929,3.903552,-0.1201059,-0.4020989,1.635543,0.2278818,-0.147066,1.437002,0.07772602,0.5286614,1.717405,-0.1668345,-0.4001065,1.628316,0.1836312,-0.1888273,1.4206,0.05953177,0.05506939,1.747383,0.05802967,-0.2748641,1.742179,-0.1153985,0.2355324,1.727294,-0.02374178,-0.2683976,1.702261,-0.1467388,-0.04045612,1.736547,0.2606405,0.004793466,1.759342,NA,NA,NotTracked,Unknown,
0.9472656,-0.3012695,0.04394531,-0.3652344,0.6723633,0.6000977,-3,-1,-4,-1,-1,0,-2,-1,18,-3,-11,-15,-20,-20,5,11,-18.5,-18.5,-18.5,-64.0625,-64.0625,-64.0625,2.665919,2.981732,6.6041,6.442532,4.889881,3.940387,-0.1212588,-0.3982145,1.637336,0.2233648,-0.06876907,1.434139,0.07825912,0.5285834,1.717696,-0.1689297,-0.4079395,1.630754,0.1740545,-0.09966356,1.4486,0.05936183,0.05513581,1.747427,0.05770348,-0.2747466,1.74208,-0.115164,0.2357024,1.727262,-0.02403819,-0.268198,1.702162,-0.146716,-0.03978656,1.736134,0.2692762,0.01322575,1.75547,NA,NA,NotTracked,Unknown,
0.9453125,-0.2958984,0.04248047,-0.3618164,0.5878906,0.6430664,0,-1,-1,-2,0,-1,0,0,-106,-16,-8,-8,-5,18,1,-28,-17.1875,-17.1875,-17.1875,-28.625,-28.625,-28.625,2.642315,2.97983,6.609482,6.404092,5.23237,3.981252,-0.1216902,-0.3951446,1.635967,0.2283604,0.01076205,1.445044,0.07904726,0.5285428,1.718299,-0.1714082,-0.39711,1.636,0.2090853,-0.01018723,1.402667,0.05932894,0.05518971,1.747414,0.05740189,-0.2744854,1.741877,-0.1146111,0.2358298,1.726876,-0.02423108,-0.2679563,1.702076,-0.1469201,-0.03905644,1.735245,0.255575,-0.0652598,1.667326,NA,NA,NotTracked,Unknown,
0.9521484,-0.2802734,0.04541016,-0.4501953,0.6826172,0.625,2,-2,-1,-2,-1,-2,-2,-1,-10,1,-3,-4,-4,1,6,16,-17.9375,-17.9375,-17.9375,-19.3125,-19.3125,-19.3125,2.628323,2.977647,6.5941,6.393197,5.551654,4.028358,-0.1217506,-0.395285,1.636621,0.2287816,0.07037834,1.459271,0.07979429,0.5285447,1.718716,-0.17257,-0.3973787,1.640063,0.1982321,0.05259104,1.421,0.05928553,0.05525493,1.747456,0.05736558,-0.2744398,1.741829,-0.1135506,0.2357317,1.72659,-0.02423928,-0.2679243,1.702039,-0.1470744,-0.03875851,1.734839,0.2629837,-0.0376868,1.690774,NA,NA,NotTracked,Unknown,
0.9584961,-0.2890625,0.04638672,-0.4130859,0.5844727,0.6889648,-2,2,-1,-1,1,-2,-1,1,-6,2,6,1,1,11,-3,-4,-15.875,-15.875,-15.875,-33.875,-33.875,-33.875,2.623616,2.978707,6.580138,6.374469,5.81658,4.071618,-0.1204142,-0.4023209,1.63389,0.2196806,0.1287778,1.464444,0.08070347,0.5284096,1.719349,-0.1685033,-0.4230582,1.623538,0.1805077,0.1139346,1.45,0.05924393,0.05511946,1.747586,0.05747399,-0.2748104,1.74175,-0.1130333,0.2355788,1.726415,-0.02407384,-0.2683091,1.701974,-0.1471498,-0.03765371,1.734282,0.2633999,-0.01767841,1.677431,NA,NA,NotTracked,Unknown,
0.956543,-0.2871094,0.03076172,-0.3457031,0.5761719,0.6962891,-3,-1,0,-1,-1,0,1,1,11,5,8,7,4,22,15,22,-11.625,-11.625,-11.625,-20.4375,-20.4375,-20.4375,2.616196,2.984388,6.573537,6.372182,6.031504,4.118585,-0.1192033,-0.4020481,1.629487,0.2048012,0.220441,1.484167,0.08074769,0.5281512,1.720345,-0.1674263,-0.394964,1.631572,0.1267483,0.2202959,1.516667,0.05921263,0.05494063,1.747737,0.05758325,-0.2758414,1.741215,-0.1119441,0.2356379,1.726197,-0.02404246,-0.2692041,1.701857,-0.1468198,-0.03660263,1.73291,0.2615367,-0.003252484,1.663492,NA,NA,NotTracked,Unknown,
0.9506836,-0.2773438,0.01025391,-0.449707,0.5249023,0.5708008,0,0,1,-1,-2,-1,-2,-2,18,-6,-12,-6,-9,-5,-6,-11,-7.25,-7.25,-7.25,-32.875,-32.875,-32.875,2.614716,2.991928,6.564997,6.363549,6.193614,4.160081,-0.1186963,-0.4016612,1.628758,0.1936272,0.2606299,1.493956,0.08069862,0.5280097,1.720997,-0.1657117,-0.4151835,1.622577,0.1640119,0.2321661,1.492857,0.05947662,0.05524447,1.74795,0.05748271,-0.2753786,1.740989,-0.1123645,0.2358311,1.726523,-0.02417668,-0.2687586,1.701875,-0.1470229,-0.03102563,1.732369,0.2590318,0.002618069,1.655667,NA,NA,NotTracked,Unknown,
0.9541016,-0.2724609,0.006347656,-0.4443359,0.5234375,0.5214844,0,-3,-2,-1,-3,-1,-1,1,-18,3,0,1,6,12,9,7,-4,-4,-4,-23.875,-23.875,-23.875,2.616447,2.995491,6.560778,6.349378,6.27467,4.188743,-0.117584,-0.4011343,1.626153,0.1912696,0.2752022,1.49774,0.0804078,0.5284321,1.722191,-0.1660018,-0.4026182,1.621256,0.1609593,0.2413182,1.497833,0.06008364,0.05609679,1.748221,0.05739916,-0.2746385,1.740565,-0.1117676,0.2361891,1.7268,-0.02434966,-0.2680582,1.701808,-0.1475076,-0.02599524,1.731715,0.2549042,0.009372387,1.637182,NA,NA,NotTracked,Unknown,
0.9570313,-0.2744141,0.009765625,-0.5029297,0.5527344,0.4370117,-1,1,0,-2,-1,0,-2,-1,-32,-1,1,6,2,8,5,5,-1.375,-1.375,-1.375,-26.3125,-26.3125,-26.3125,2.618636,3.000156,6.557525,6.339456,6.315546,4.211911,-0.117038,-0.400239,1.623689,0.1875084,0.2856272,1.49597,0.08018851,0.5282452,1.723014,-0.163835,-0.4210664,1.611552,0.15269,0.2699057,1.4952,0.06059603,0.05651631,1.748595,0.05744804,-0.2743593,1.740193,-0.1114745,0.2362591,1.727193,-0.02441452,-0.2677084,1.701751,-0.1472239,-0.02435604,1.731637,0.251297,0.01270693,1.632567,NA,NA,NotTracked,Unknown,
0.9487305,-0.2958984,0.0234375,-0.5341797,0.5087891,0.4765625,-3,-1,-2,0,-1,-1,-2,-1,61,8,4,0,2,-1,5,14,8,8,8,-19.6875,-19.6875,-19.6875,2.634826,3.017808,6.552086,6.319434,6.326476,4.218719,-0.1159403,-0.4000822,1.622857,0.1846452,0.2936005,1.494626,0.07991336,0.52833,1.724283,-0.1628211,-0.3907664,1.615846,0.1454579,0.2871073,1.499813,0.06099093,0.05701624,1.748952,0.05740159,-0.2738934,1.739829,-0.11218,0.2364236,1.727816,-0.02449056,-0.2673146,1.701755,-0.147151,-0.0234259,1.731588,0.250329,0.01393132,1.604641,NA,NA,NotTracked,Unknown,
0.9506836,-0.3051758,0.02539063,-0.6845703,0.5668945,0.4228516,0,-1,-1,0,-1,-1,0,-3,36,-1,-2,2,2,3,-16,-5,11.5,11.5,11.5,-12.9375,-12.9375,-12.9375,2.639317,3.023795,6.559705,6.302208,6.335966,4.210553,-0.1165099,-0.4016705,1.623513,0.1808016,0.2970811,1.487794,0.07952414,0.5281617,1.725887,-0.1637982,-0.4162539,1.612362,0.1442534,0.2840411,1.500444,0.06136093,0.05754428,1.749318,0.05702166,-0.2732464,1.739051,-0.1134569,0.236633,1.729308,-0.02494664,-0.2665446,1.701872,-0.1470917,-0.0215329,1.732272,0.2470655,0.01123063,1.602516,NA,NA,NotTracked,Unknown,
0.9511719,-0.3061523,0.02099609,-0.8442383,0.5078125,0.359375,-3,1,-1,1,0,-1,-2,2,9,9,9,5,4,1,-9,-6,15.8125,15.8125,15.8125,-18.3125,-18.3125,-18.3125,2.643124,3.025938,6.564739,6.276684,6.351804,4.196776,-0.1169237,-0.4001718,1.623597,0.1773763,0.3012396,1.48518,0.07937678,0.5281856,1.726509,-0.1630155,-0.4238496,1.603968,0.1441378,0.2864407,1.501267,0.06146127,0.05769615,1.749414,0.05673235,-0.2729142,1.738645,-0.1139588,0.2367034,1.729918,-0.02520036,-0.2663131,1.701984,-0.1470381,-0.02023987,1.733334,0.2466576,-0.005858158,1.55847,NA,NA,NotTracked,Unknown,
0.9433594,-0.3261719,0.04003906,-1.033203,0.4526367,0.3173828,-1,0,-2,0,0,-1,-1,0,22,-3,-7,-11,-12,-3,44,13,32.3125,32.3125,32.3125,-12.1875,-12.1875,-12.1875,2.677448,3.031861,6.575065,6.22959,6.358343,4.148966,-0.1169272,-0.4023807,1.62451,0.1777238,0.3013634,1.477614,0.07935082,0.5281375,1.726748,-0.1633103,-0.4155647,1.60917,0.1366752,0.2995803,1.4931,0.06157476,0.05789525,1.749446,0.0566066,-0.2726528,1.738124,-0.1130901,0.2365633,1.731601,-0.02528426,-0.2661723,1.701918,-0.1468295,-0.01970311,1.733953,0.2451901,-0.004244222,1.559454,NA,NA,NotTracked,Unknown,
0.940918,-0.3300781,0.05371094,-1.301758,0.440918,0.2407227,0,-2,-1,-2,-3,0,-1,-1,-13,0,3,4,2,3,-3,-20,41.3125,41.3125,41.3125,-10.875,-10.875,-10.875,2.725941,3.034071,6.570835,6.119098,6.250923,4.006302,-0.1180781,-0.4007659,1.62763,0.1795534,0.3009952,1.467308,0.0793086,0.528276,1.727764,-0.1678472,-0.415737,1.616472,0.1459492,0.2862789,1.480692,0.06163799,0.05804095,1.749509,0.05641513,-0.2724004,1.737799,-0.113759,0.2367758,1.732215,-0.02549416,-0.2659693,1.701966,-0.146612,-0.01946815,1.734756,0.243686,-0.0009713738,1.555532,NA,NA,NotTracked,Unknown,
0.9394531,-0.2705078,0.05859375,-1.101563,0.4052734,0.4135742,-5,1,-1,-2,-1,0,-2,-1,25,2,3,4,-2,53,36,4,31.75,31.75,31.75,-3.0625,-3.0625,-3.0625,2.768421,3.027922,6.567915,6.088592,6.165693,3.963725,-0.1188773,-0.4032795,1.629658,0.1868943,0.2899189,1.442583,0.07922309,0.5283675,1.728635,-0.1690335,-0.4104104,1.623572,0.1355756,0.2969496,1.4802,0.06171655,0.05832268,1.749603,0.05610809,-0.2717057,1.737315,-0.1143506,0.2369818,1.732869,-0.02589522,-0.2651337,1.701962,-0.1464501,-0.01915103,1.73561,0.2394016,0.01215844,1.550649,NA,NA,NotTracked,Unknown,
0.925293,-0.2929688,0.08544922,-0.6264648,0.5566406,0.5737305,-2,-4,-2,0,-1,-3,-2,0,3,3,1,10,53,42,-15,21,8.25,8.25,8.25,17.125,17.125,17.125,2.768748,3.018271,6.585296,6.070104,5.957646,3.907482,-0.1196848,-0.3995313,1.632333,0.2008503,0.2657685,1.399866,0.07921234,0.5286242,1.72913,-0.168062,-0.4028754,1.624606,0.1412003,0.3105666,1.460715,0.06196726,0.0586892,1.74969,0.05595727,-0.2713734,1.737018,-0.1146906,0.2371401,1.733328,-0.02610856,-0.2647415,1.702005,-0.1462608,-0.01862936,1.736558,0.2303923,0.05493362,1.559934,NA,NA,NotTracked,Unknown,
0.925293,-0.2929688,0.08544922,-0.6264648,0.5566406,0.5737305,-2,-4,-2,0,-1,-3,-2,0,3,3,1,10,53,42,-15,21,8.25,8.25,8.25,17.125,17.125,17.125,2.768748,3.018271,6.585296,6.070104,5.957646,3.907482,-0.1215468,-0.3970014,1.635973,0.2107741,0.2554431,1.352521,0.07966954,0.5286499,1.730676,-0.1687521,-0.3966639,1.629222,0.1552045,0.3134025,1.403286,0.06231247,0.05907442,1.750233,0.05596942,-0.2707326,1.736865,-0.115016,0.2373402,1.733875,-0.02615556,-0.2637165,1.701995,-0.1460943,-0.0185621,1.737179,0.2306621,0.0576399,1.554865,NA,NA,NotTracked,Unknown,
0.9389648,-0.3452148,0.07324219,-0.2011719,0.78125,0.6499023,-2,-1,0,-1,-1,-1,-1,0,3,1,2,3,-74,-22,-12,26,-6.625,-6.625,-6.625,-97.0625,-97.0625,-97.0625,2.745968,3.016196,6.603909,6.019741,5.644342,3.933093,-0.1224833,-0.3927215,1.638662,0.2214198,0.2411839,1.296852,0.08044863,0.5282641,1.732647,-0.1687403,-0.3906542,1.635703,0.1805565,0.312502,1.326357,0.06235153,0.05888889,1.750661,0.0560324,-0.2706421,1.736737,-0.1152806,0.2372802,1.734294,-0.02606988,-0.2635635,1.701962,-0.1458016,-0.02133972,1.738626,0.2180151,0.0636172,1.569916,NA,NA,NotTracked,Unknown,
0.9472656,-0.359375,0.06005859,0.07324219,0.2802734,0.534668,2,-4,1,-2,-1,-3,0,-2,0,-5,-4,-8,11,-3,20,-29,2.625,2.625,2.625,-85.9375,-85.9375,-85.9375,2.736939,3.018935,6.610837,5.96646,5.54408,3.919853,-0.1226145,-0.3917347,1.638951,0.231028,0.2326744,1.24071,0.08123039,0.5282208,1.734418,-0.1717914,-0.3836899,1.647929,0.1986862,0.2906133,1.243714,0.06240232,0.05831171,1.751517,0.05609033,-0.2708207,1.736669,-0.1155389,0.2372487,1.734802,-0.02593627,-0.2637322,1.702025,-0.1429993,-0.03753898,1.74226,0.2446368,0.07928707,1.455693,NA,NA,NotTracked,Unknown,
0.9443359,-0.3212891,0.03955078,0.6923828,0.5019531,0.793457,2,-5,0,-3,-2,0,-2,-1,2,10,0,-1,27,16,4,-4,5.5625,5.5625,5.5625,42.25,42.25,42.25,2.736894,3.031144,6.618003,5.959767,5.389756,3.872295,-0.1226151,-0.392354,1.63916,0.2401146,0.2226275,1.211792,0.08171769,0.5281503,1.736362,-0.1705194,-0.3965941,1.641824,0.2065692,0.29753,1.225,0.06233403,0.05801061,1.751898,0.05607118,-0.2713062,1.736607,-0.1139535,0.2367961,1.740445,-0.02583052,-0.2641654,1.702191,-0.1433984,-0.0364937,1.742837,0.2401507,0.05371562,1.471522,NA,NA,NotTracked,Closed,
0.9614258,-0.2817383,0.02539063,-0.1777344,0.4086914,0.9365234,0,-1,-2,0,0,0,0,-2,1,0,6,7,6,46,3,-3,0.6875,0.6875,0.6875,-6.9375,-6.9375,-6.9375,2.721103,3.037979,6.635419,5.924393,5.36914,3.847383,-0.122472,-0.3919871,1.636665,0.2446937,0.2141974,1.198341,0.08211731,0.528067,1.738116,-0.1694266,-0.3723149,1.637773,0.211926,0.2817266,1.213545,0.06208013,0.05738252,1.752591,0.05599174,-0.27185,1.736559,-0.1138129,0.2365886,1.743248,-0.02578876,-0.2646813,1.70241,-0.144096,-0.03424576,1.744235,0.2396307,0.05374413,1.470192,NA,NA,NotTracked,Closed,
0.9550781,-0.3183594,0.05273438,-0.2670898,0.5078125,0.9116211,-3,0,0,-2,-1,0,-1,-1,12,7,6,4,1,-50,-14,-9,16.5625,16.5625,16.5625,15.125,15.125,15.125,2.725424,3.045992,6.644029,5.927786,5.383347,3.838897,-0.1225732,-0.3906687,1.634741,0.2463733,0.2135522,1.202378,0.0820775,0.5281265,1.739856,-0.1681977,-0.395606,1.62741,0.2136221,0.2895499,1.215182,0.06192904,0.0571639,1.75292,0.05582586,-0.2724106,1.736567,-0.1140228,0.2367235,1.74777,-0.02577007,-0.2654276,1.703158,-0.1435778,-0.03682578,1.74728,0.2408708,0.08885553,1.464254,NA,NA,NotTracked,Unknown,
0.9555664,-0.3530273,0.07470703,-0.3818359,0.565918,0.8125,-3,-3,-1,-2,-2,-1,0,-1,1,0,-5,-5,7,-6,-3,-10,25.875,25.875,25.875,-12.125,-12.125,-12.125,2.745624,3.052406,6.638113,5.929043,5.425533,3.848816,-0.1221809,-0.390832,1.634539,0.2441639,0.2156898,1.206874,0.08205989,0.5281674,1.740149,-0.1679988,-0.4018089,1.621265,0.2085523,0.2887206,1.232111,0.06186647,0.05712049,1.752987,0.05571193,-0.272583,1.736533,-0.1139098,0.2367553,1.749187,-0.02584521,-0.2656859,1.703474,-0.1435892,-0.03602033,1.74811,0.2407261,0.08880638,1.463843,NA,NA,NotTracked,Closed,
0.9013672,-0.3735352,0.1005859,-0.378418,0.5478516,0.8061523,-1,-3,-3,1,-1,-2,-3,0,-5,-3,-5,-6,10,6,0,-17,16.25,16.25,16.25,8.1875,8.1875,8.1875,2.784993,3.062343,6.621134,5.933327,5.444431,3.850332,-0.1219449,-0.3897573,1.635975,0.2422766,0.2169206,1.209576,0.08199181,0.5281218,1.740479,-0.1684773,-0.3990359,1.625984,0.2082257,0.2893347,1.225831,0.06181601,0.05708118,1.753062,0.05559186,-0.2727113,1.736534,-0.113867,0.2366714,1.750167,-0.02590407,-0.2658259,1.703665,-0.1429363,-0.04020317,1.749794,0.2401146,0.0869638,1.460398,NA,NA,NotTracked,Closed,
0.8945313,-0.3706055,0.1015625,-0.3007813,0.6088867,0.8178711,0,-1,-3,0,-1,-1,-1,-2,-3,-6,0,1,3,-7,5,8,-3.875,-3.875,-3.875,7.75,7.75,7.75,2.790106,3.062665,6.616447,5.940748,5.445773,3.854694,-0.1218622,-0.3903698,1.636691,0.2393171,0.2182725,1.210696,0.08198924,0.5281118,1.740578,-0.1695909,-0.3896041,1.636615,0.2036222,0.2945524,1.244571,0.06179854,0.0570502,1.753074,0.05549545,-0.2728299,1.736421,-0.1137516,0.2367476,1.750519,-0.02593015,-0.2659012,1.703771,-0.1432643,-0.03725358,1.750522,0.2352895,0.05908045,1.462645,NA,NA,NotTracked,Closed,
0.9296875,-0.3393555,0.08105469,-0.2900391,0.5615234,0.7885742,-2,-1,-2,-1,-2,-3,1,-1,-5,-6,4,7,37,6,0,5,-2.375,-2.375,-2.375,-5.4375,-5.4375,-5.4375,2.774143,3.054245,6.629548,5.942513,5.450663,3.864892,-0.122028,-0.3899018,1.6385,0.2385648,0.2157733,1.2111,0.08203487,0.5280864,1.740618,-0.169288,-0.4072297,1.63175,0.2030951,0.2873767,1.233743,0.06176848,0.05697555,1.753098,0.05542566,-0.2729935,1.736335,-0.1137127,0.2367323,1.750795,-0.02593793,-0.2660401,1.70385,-0.1433512,-0.03679058,1.750646,0.2351972,0.09696797,1.439374,NA,NA,NotTracked,Closed,
0.9458008,-0.3208008,0.046875,-0.3032227,0.578125,0.7670898,1,-1,-2,-1,-1,-1,0,0,-7,-1,0,0,6,2,-4,8,11.9375,11.9375,11.9375,5.4375,5.4375,5.4375,2.773265,3.04523,6.648438,5.954842,5.455956,3.86661,-0.1232801,-0.3914278,1.640085,0.2366459,0.2171171,1.212926,0.08228496,0.5281352,1.74126,-0.1729897,-0.4007171,1.642765,0.2040359,0.289912,1.231545,0.0616759,0.05673273,1.753353,0.0552593,-0.2731599,1.736278,-0.1133136,0.2367393,1.751604,-0.0260174,-0.2661771,1.704027,-0.142054,-0.04048534,1.751403,0.241515,0.09934552,1.437994,NA,NA,NotTracked,Closed,
0.9458008,-0.3198242,0.05371094,-0.3110352,0.546875,0.7802734,-2,-2,0,-3,0,0,0,-1,-3,-4,1,2,-20,-19,-1,-11,0.5,0.5,0.5,-0.125,-0.125,-0.125,2.797966,3.04749,6.626795,5.956498,5.456414,3.867218,-0.1234517,-0.3920708,1.639076,0.2367246,0.2179447,1.213884,0.08235843,0.5280681,1.741361,-0.1731739,-0.3884992,1.647846,0.1997864,0.2879731,1.243,0.0616626,0.05670577,1.75338,0.05515841,-0.2732525,1.736198,-0.1131505,0.2368181,1.752053,-0.0260633,-0.2662105,1.704043,-0.1425998,-0.03869595,1.75129,0.2394068,0.0997302,1.43739,NA,NA,NotTracked,Closed,
0.9487305,-0.3056641,0.08349609,-0.296875,0.543457,0.7426758,-1,0,-3,0,-2,0,-2,-1,2,0,1,0,7,10,0,3,-18.625,-18.625,-18.625,2.4375,2.4375,2.4375,2.819981,3.044102,6.587328,5.958919,5.456509,3.867317,-0.1234874,-0.3919884,1.638722,0.2365206,0.2182385,1.21483,0.08248015,0.5280399,1.741667,-0.1703643,-0.4042744,1.632808,0.2038335,0.2918918,1.234985,0.06163803,0.0564522,1.753539,0.05508528,-0.2733955,1.736139,-0.1131514,0.2368243,1.752251,-0.0260925,-0.2662755,1.704091,-0.142353,-0.04088283,1.75119,0.2382027,0.09522474,1.474028,NA,NA,NotTracked,Closed,
0.925293,-0.3256836,0.09423828,-0.2592773,0.5527344,0.7241211,-3,-2,-2,-1,-1,-2,0,-5,-3,-2,0,-1,-10,-5,-4,0,-26.0625,-26.0625,-26.0625,11.25,11.25,11.25,2.818033,3.044264,6.574347,5.971042,5.447491,3.866608,-0.1233144,-0.3910859,1.638145,0.237258,0.216647,1.215283,0.082595,0.5279863,1.74172,-0.1712162,-0.3822107,1.640965,0.2000146,0.2881901,1.243544,0.06161588,0.05641266,1.753569,0.05505498,-0.2734995,1.736114,-0.113129,0.2368231,1.752331,-0.02609094,-0.2663465,1.704117,-0.1430271,-0.03848053,1.751322,0.2435688,0.09721346,1.43873,NA,NA,NotTracked,Closed,
0.9404297,-0.3203125,0.07275391,-0.1928711,0.5117188,0.6787109,3,1,-2,-2,-1,0,-3,0,-2,-4,-4,-1,5,-9,0,-16,-25.5625,-25.5625,-25.5625,14.0625,14.0625,14.0625,2.787699,3.04086,6.576672,5.987733,5.426915,3.866499,-0.1228448,-0.3914644,1.63817,0.2378956,0.216169,1.215277,0.08261363,0.5280272,1.741846,-0.1698091,-0.4009978,1.635012,0.2025278,0.2845959,1.233709,0.06154491,0.05631262,1.753658,0.05502297,-0.2735251,1.7361,-0.1130642,0.2368581,1.752422,-0.02609751,-0.2663602,1.70415,-0.1427455,-0.03978565,1.75124,0.2381132,0.04974993,1.467759,NA,NA,NotTracked,Closed,
0.9433594,-0.309082,0.03369141,0.1484375,0.4619141,0.6879883,-3,-1,0,-1,-1,-2,-1,-1,-1,-1,1,1,3,0,-2,-15,-10.5,-10.5,-10.5,16.1875,16.1875,16.1875,2.72782,3.029017,6.609093,6.005129,5.370517,3.869687,-0.1229895,-0.390922,1.637273,0.2378179,0.2137582,1.215408,0.08271635,0.5280609,1.742082,-0.1710337,-0.3979964,1.637269,0.1992166,0.283952,1.25,0.06152362,0.05621023,1.753708,0.05501428,-0.2735853,1.736041,-0.1130062,0.2369037,1.752416,-0.026092,-0.2663838,1.704142,-0.1434068,-0.0379991,1.750967,0.2446901,0.09300804,1.440804,NA,NA,NotTracked,Unknown,
0.9433594,-0.309082,0.03369141,0.1484375,0.4619141,0.6879883,-3,-1,0,-1,-1,-2,-1,-1,-1,-1,1,1,3,0,-2,-15,-10.5,-10.5,-10.5,16.1875,16.1875,16.1875,2.72782,3.029017,6.609093,6.005129,5.370517,3.869687,-0.123072,-0.3907896,1.637601,0.2394591,0.2085919,1.216963,0.08274477,0.528029,1.742176,-0.1708215,-0.4137353,1.629063,0.203378,0.2815187,1.238426,0.06152231,0.05620657,1.753708,0.0550086,-0.2736527,1.735982,-0.1130006,0.2369143,1.752433,-0.02608508,-0.2664223,1.704159,-0.1436075,-0.03710271,1.750946,0.2447822,0.09331904,1.4406,NA,NA,NotTracked,Unknown,
0.9487305,-0.3139648,0.03613281,-0.5268555,0.2529297,0.7729492,0,-3,-1,0,-2,-3,-2,-2,-5,0,-2,-3,1,-4,1,-8,-2.875,-2.875,-2.875,40.5625,40.5625,40.5625,2.722516,3.026584,6.612887,6.040165,5.347355,3.868513,-0.1225272,-0.3903206,1.637475,0.2391488,0.2014248,1.21755,0.08273481,0.5280127,1.742202,-0.1711035,-0.3733211,1.644154,0.19818,0.2628172,1.249,0.06146996,0.05609131,1.753746,0.05499922,-0.273715,1.735985,-0.1129958,0.2368988,1.75243,-0.02607081,-0.2664929,1.704205,-0.1437372,-0.03705087,1.750725,0.2467211,0.06541929,1.457196,NA,NA,NotTracked,Unknown,
0.9516602,-0.2880859,0.04882813,-0.7602539,0.3320313,0.3203125,-3,-3,-3,-2,-2,0,-1,0,2,-4,-2,-5,-2,-1,-1,-11,16.1875,16.1875,16.1875,63,63,63,2.759046,3.019682,6.593712,6.077889,5.336047,3.871848,-0.1228443,-0.3915619,1.638338,0.2386693,0.1872995,1.217537,0.08263081,0.5281065,1.742283,-0.1726056,-0.4099739,1.638,0.1957702,0.250766,1.2319,0.06142823,0.05604913,1.753737,0.05495701,-0.2737854,1.735947,-0.1130376,0.2368733,1.75239,-0.02609014,-0.2665508,1.704208,-0.1432159,-0.03927292,1.750327,0.2480064,0.06163074,1.459846,NA,NA,NotTracked,Unknown,
0.9516602,-0.2880859,0.04882813,0.03955078,0.7143555,0.6669922,-1,-1,0,-1,0,0,-2,-1,-1,3,-8,-4,-2,-1,-2,-12,16.1875,16.1875,16.1875,64.75,64.75,64.75,2.759046,3.019682,6.593712,6.148945,5.227406,3.880007,-0.1228901,-0.3910866,1.637847,0.23761,0.1638778,1.215876,0.08258134,0.5281163,1.74228,-0.1679783,-0.4004035,1.630083,0.1921704,0.2228241,1.2212,0.06136457,0.05591478,1.753672,0.05491952,-0.2739376,1.735905,-0.1130625,0.2368707,1.7523,-0.02609345,-0.2667544,1.704191,-0.1437529,-0.03835678,1.750112,0.2518612,0.01324393,1.501449,NA,NA,NotTracked,Unknown,
0.9477539,-0.3081055,0.07470703,0.1225586,0.5874023,0.6391602,-2,-1,-1,0,0,-2,0,-2,-3,-5,20,-5,-5,-1,-1,1,14.125,14.125,14.125,70.6875,70.6875,70.6875,2.797074,3.016762,6.571952,6.246965,5.011163,3.899314,-0.1227386,-0.3938965,1.639634,0.2352015,0.1351371,1.215522,0.08224812,0.5282142,1.742313,-0.1718331,-0.380608,1.644963,0.2023063,0.2011154,1.226,0.06121339,0.05577836,1.753704,0.05462466,-0.2742577,1.736047,-0.1130869,0.2368837,1.752299,-0.02635727,-0.2671603,1.704446,-0.1437281,-0.04166505,1.750289,0.2548875,0.001860319,1.512442,NA,NA,NotTracked,Unknown,
0.9428711,-0.300293,0.06347656,0.1831055,0.7114258,0.7314453,-2,-3,0,1,0,-1,0,-2,-1,-6,-8,6,2,0,0,-6,7.375,7.375,7.375,79.875,79.875,79.875,2.803503,3.009687,6.579647,6.290687,4.920438,3.904537,-0.12237,-0.3925294,1.640747,0.2295042,0.04988877,1.214721,0.08132578,0.528572,1.741966,-0.1713132,-0.3905329,1.643525,0.1898869,0.09013911,1.215778,0.06076512,0.05565909,1.753464,0.05437914,-0.2744325,1.736052,-0.1134788,0.2367522,1.751738,-0.02654565,-0.26739,1.704362,-0.1435753,-0.04290891,1.750146,0.2537006,-0.04069054,1.579267,NA,NA,NotTracked,Closed,
0.9375,-0.3261719,0.08447266,0.355957,0.7075195,0.6342773,-1,-2,-2,-1,-4,-1,-1,-2,-2,-8,-6,-2,-1,-1,-2,13,1.3125,1.3125,1.3125,62.0625,62.0625,62.0625,2.806045,3.00558,6.581779,6.391676,4.618275,3.926713,-0.12282,-0.3912596,1.641559,0.2258834,-0.0057739,1.216744,0.08041518,0.5290864,1.741407,-0.1700451,-0.3704751,1.645636,0.1729126,0.005817149,1.2135,0.06050806,0.0556408,1.753134,0.05433077,-0.2744583,1.736068,-0.1136748,0.2364211,1.751084,-0.02657748,-0.267432,1.704347,-0.1433543,-0.04439288,1.750092,0.2376497,-0.05794024,1.622357,NA,NA,NotTracked,Unknown,
0.934082,-0.2924805,0.05419922,0.4365234,0.8266602,0.7866211,-2,-3,-2,-1,0,-1,-2,1,-1,1,-4,-2,-1,-2,0,-17,-7.125,-7.125,-7.125,57.6875,57.6875,57.6875,2.764333,2.992066,6.61681,6.453171,4.411221,3.942463,-0.1232856,-0.3916058,1.642977,0.2185679,-0.06693435,1.222663,0.07915165,0.529371,1.740896,-0.1684115,-0.4008267,1.632314,0.163452,-0.05144961,1.20675,0.06020166,0.055685,1.752983,0.05414791,-0.2744431,1.736235,-0.1140114,0.2363684,1.750565,-0.02668488,-0.2674241,1.704419,-0.1438636,-0.04165719,1.75049,0.2565111,0.01793189,1.657226,NA,NA,NotTracked,Unknown,
0.9711914,-0.2983398,0.06396484,0.3979492,0.8173828,0.7324219,-2,-1,-1,-4,-1,-3,0,-1,3,3,0,1,1,0,0,-23,-12.5625,-12.5625,-12.5625,57.625,57.625,57.625,2.722644,2.983454,6.647732,6.479362,4.313115,3.955114,-0.1233901,-0.3925113,1.643861,0.2227184,-0.1240758,1.245698,0.07772111,0.5300243,1.740334,-0.1752595,-0.4176323,1.642222,0.1806336,-0.121536,1.231,0.05996498,0.05571354,1.752679,0.05398111,-0.2744529,1.736333,-0.1142299,0.2362544,1.750162,-0.02680443,-0.2674529,1.704435,-0.14421,-0.0400259,1.750371,0.2674031,-0.0280085,1.622138,NA,NA,NotTracked,Unknown,
0.953125,-0.2675781,0.03027344,0.6083984,0.8344727,0.5688477,0,-2,-1,0,-1,1,-4,1,1,-3,2,2,1,-1,-2,-2,-13.1875,-13.1875,-13.1875,43.3125,43.3125,43.3125,2.670706,2.972956,6.688215,6.5465,4.002083,3.987351,-0.1233763,-0.3905987,1.645704,0.2282759,-0.1800828,1.281546,0.07638187,0.5306065,1.739618,-0.1706285,-0.3800924,1.649,0.1995307,-0.1469656,1.264455,0.05974828,0.05582095,1.752497,0.05366008,-0.2744042,1.736617,-0.1143594,0.2365719,1.749632,-0.02705194,-0.2673826,1.704567,-0.1440067,-0.04329829,1.750233,0.2602402,0.01502645,1.67423,NA,NA,NotTracked,Unknown,
0.9536133,-0.2832031,0.03662109,0.6323242,0.7509766,0.5366211,-2,-2,-1,-3,-1,-2,0,-1,-2,-2,1,-2,-1,-1,-1,7,-13.3125,-13.3125,-13.3125,20.75,20.75,20.75,2.649054,2.969463,6.703008,6.560806,3.804658,4.010704,-0.1238993,-0.3918019,1.646188,0.2385833,-0.2760544,1.362878,0.07420141,0.5311201,1.737255,-0.171124,-0.3786577,1.649812,0.2230345,-0.2472753,1.347364,0.05953938,0.05580631,1.751326,0.05364458,-0.2745524,1.736728,-0.1150849,0.2367017,1.747688,-0.02708645,-0.2675537,1.704608,-0.1434589,-0.04853423,1.749724,0.2642386,-0.00169816,1.676916,NA,NA,NotTracked,Unknown,
0.9458008,-0.3032227,0.03662109,0.8681641,0.6972656,0.4213867,-1,-1,-2,-1,0,-1,-2,-3,0,-3,-2,0,0,-2,-2,5,-8.4375,-8.4375,-8.4375,34.8125,34.8125,34.8125,2.618409,2.963576,6.723893,6.600728,3.60844,4.001802,-0.1237401,-0.3912441,1.647379,0.2440841,-0.3110853,1.407471,0.07334997,0.531361,1.736097,-0.1718366,-0.3947194,1.644577,0.2660356,-0.2990214,1.356636,0.0593868,0.05571257,1.750875,0.05369234,-0.274723,1.737,-0.1151474,0.2368925,1.746354,-0.02707347,-0.2676425,1.704646,-0.1432227,-0.04967088,1.74944,0.2660277,-0.006697367,1.680502,NA,NA,NotTracked,Unknown,
0.9506836,-0.3012695,0.04248047,0.8710938,0.734375,0.3452148,-2,0,-1,-1,-4,-2,0,-2,-2,-2,-1,0,0,-1,0,6,-13.625,-13.625,-13.625,15.6875,15.6875,15.6875,2.577527,2.953981,6.749771,6.613559,3.441444,4.020267,-0.1239537,-0.3917459,1.647755,0.2474687,-0.3391101,1.447355,0.07261416,0.5314612,1.734772,-0.1711948,-0.4167197,1.641421,0.260848,-0.336809,1.397842,0.05936264,0.05567843,1.750137,0.05384782,-0.2749249,1.737168,-0.1152862,0.2365899,1.744436,-0.02694287,-0.2678803,1.704677,-0.1432126,-0.05103967,1.749181,0.2677013,-0.01384508,1.68571,NA,NA,NotTracked,Unknown,
0.9594727,-0.284668,0.02539063,0.9003906,0.5498047,0.40625,-1,-2,-3,-3,-1,-1,-1,-3,2,3,0,-2,0,-1,-1,1,-15.9375,-15.9375,-15.9375,-0.6875,-0.6875,-0.6875,2.551702,2.950233,6.767753,6.619466,3.321268,4.00825,-0.1243683,-0.3908904,1.647943,0.2522934,-0.3562579,1.481134,0.07202078,0.5316315,1.733135,-0.1741389,-0.3901355,1.654444,0.2785629,-0.3844774,1.4484,0.05946412,0.05571391,1.749492,0.05418436,-0.2751044,1.737499,-0.1154116,0.2362471,1.7425,-0.02667877,-0.2681259,1.70483,-0.1431358,-0.05158589,1.748808,0.2676236,-0.01703404,1.690934,NA,NA,NotTracked,Unknown,
0.956543,-0.2749023,0.004882813,0.8745117,0.5610352,0.2866211,1,-4,-3,-2,-1,-2,-1,-3,5,-2,0,-2,0,-2,-1,-1,-8.0625,-8.0625,-8.0625,13.875,13.875,13.875,2.516517,2.946427,6.793001,6.665415,3.231938,3.971031,-0.1238676,-0.3913381,1.647745,0.2534354,-0.3786258,1.510377,0.0717697,0.5319334,1.731764,-0.1724584,-0.3967908,1.650796,0.2608739,-0.3691259,1.47,0.05974508,0.05589321,1.748611,0.05457054,-0.2752139,1.737801,-0.1150829,0.2366295,1.74053,-0.02636995,-0.2683257,1.704976,-0.1433471,-0.05228608,1.747933,0.267319,-0.01901954,1.696144,NA,NA,NotTracked,Unknown,
0.956543,-0.2749023,0.004882813,0.8745117,0.5610352,0.2866211,1,-4,-3,-2,-1,-2,-1,-3,5,-2,0,-2,0,-2,-1,-1,-8.0625,-8.0625,-8.0625,13.875,13.875,13.875,2.516517,2.946427,6.793001,6.665415,3.231938,3.971031,-0.1240937,-0.390834,1.648402,0.2556535,-0.3898791,1.537884,0.07153143,0.5325767,1.730279,-0.1739275,-0.3987399,1.653881,0.2626212,-0.3922778,1.491873,0.05990769,0.05600561,1.747971,0.05507373,-0.2753759,1.738393,-0.1153103,0.2366312,1.738971,-0.02595537,-0.2685939,1.70524,-0.1433543,-0.05274633,1.747619,0.2671854,-0.02007335,1.702176,NA,NA,NotTracked,Unknown,
0.9487305,-0.2802734,0.02148438,0.8666992,0.4833984,0.2700195,-1,-2,1,-1,0,-1,-3,-2,1,0,1,-1,-1,-1,-1,1,-3.6875,-3.6875,-3.6875,26.375,26.375,26.375,2.522069,2.9439,6.777115,6.707006,3.161525,3.954149,-0.1239558,-0.3914248,1.648075,0.2572156,-0.3975129,1.564177,0.0714975,0.5329033,1.729315,-0.1729167,-0.4020874,1.646133,0.2666094,-0.4089435,1.514088,0.06017078,0.05621887,1.747311,0.05560738,-0.2753204,1.739038,-0.1148163,0.2370077,1.736828,-0.02556729,-0.2686064,1.705487,-0.143263,-0.05302875,1.747389,0.2665664,-0.02140587,1.708171,NA,NA,NotTracked,Unknown,
0.9511719,-0.2568359,0.01660156,0.8935547,0.4453125,0.2441406,-1,-1,-3,0,-1,-2,-2,-3,7,2,-3,-2,0,-2,0,3,0.3125,0.3125,0.3125,24.5,24.5,24.5,2.535422,2.943308,6.763665,6.747584,3.105843,3.942406,-0.1223148,-0.4026552,1.644164,0.2546079,-0.3994961,1.591654,0.07145616,0.5332135,1.727582,-0.1724018,-0.3985713,1.646003,0.2755297,-0.4156149,1.541333,0.06041954,0.05635849,1.746359,0.05609902,-0.27532,1.739281,-0.1144478,0.2373246,1.734387,-0.0251596,-0.2686705,1.705521,-0.143134,-0.05355982,1.746669,0.2662757,-0.02322226,1.712969,NA,NA,NotTracked,Lasso,
0.9487305,-0.2788086,0.03125,0.9130859,0.3857422,0.1767578,0,-4,-1,-2,-1,0,-1,-2,0,-1,0,1,-1,-1,-1,-1,-7.0625,-7.0625,-7.0625,-5.5625,-5.5625,-5.5625,2.55813,2.938653,6.735402,6.782927,3.061631,3.908726,-0.1222566,-0.4015331,1.645794,0.253237,-0.3979695,1.615908,0.07168278,0.5335462,1.726247,-0.1721156,-0.399551,1.645377,0.2951822,-0.391916,1.59824,0.0605252,0.05646836,1.746032,0.05666516,-0.275264,1.739941,-0.1142147,0.237368,1.732574,-0.02475233,-0.2687171,1.705744,-0.1438362,-0.05127285,1.745365,0.2657357,-0.02388344,1.717028,NA,NA,NotTracked,Lasso,
0.9555664,-0.2416992,0.02636719,0.9492188,0.3081055,0.1645508,-1,-1,-1,0,-1,-2,-1,-3,-2,-2,-1,1,-3,-2,-1,-2,-10.625,-10.625,-10.625,-32.75,-32.75,-32.75,2.572069,2.930016,6.704696,6.785486,3.028304,3.873435,-0.1224814,-0.4011019,1.645529,0.2524064,-0.4023941,1.628805,0.07183661,0.5336214,1.725205,-0.172981,-0.4019773,1.64682,0.2988471,-0.4044153,1.616571,0.06071892,0.05650999,1.745632,0.05718396,-0.2753672,1.7404,-0.113772,0.237329,1.730286,-0.02430243,-0.2688927,1.705909,-0.1438954,-0.05235388,1.744267,0.2650573,-0.02566111,1.720785,NA,NA,NotTracked,NotTracked,
0.9526367,-0.2666016,0.02441406,0.9379883,0.2915039,0.1328125,-1,-2,-1,0,-2,-2,-3,0,-1,-2,0,-1,-2,1,1,-2,-13.75,-13.75,-13.75,-40.8125,-40.8125,-40.8125,2.571105,2.926744,6.697889,6.762032,3.009869,3.850991,-0.1221564,-0.4023579,1.645661,0.2510063,-0.4063746,1.643243,0.07242662,0.5337438,1.723683,-0.1723635,-0.3985788,1.648721,0.2969387,-0.4145595,1.631684,0.06092364,0.05652519,1.745245,0.05840148,-0.275421,1.741516,-0.1132869,0.2374255,1.72729,-0.02326931,-0.2691193,1.706202,-0.1438268,-0.05393123,1.742744,0.2625118,-0.02958341,1.728104,NA,NA,NotTracked,NotTracked,
0.9726563,-0.2246094,0.01611328,0.9414063,0.34375,0.1630859,1,-2,-1,0,-2,-3,-1,-2,-1,0,0,-1,0,1,0,-1,-7.625,-7.625,-7.625,-47.0625,-47.0625,-47.0625,2.591351,2.925437,6.666335,6.731699,3.015378,3.831091,-0.1216924,-0.401408,1.643379,0.2492827,-0.4063818,1.644517,0.07261068,0.5338787,1.723122,-0.170999,-0.3950487,1.646911,0.293367,-0.4052339,1.633522,0.06113095,0.05652763,1.744921,0.05890885,-0.2754636,1.741818,-0.1131538,0.2374927,1.725921,-0.02276588,-0.2692281,1.706224,-0.1449434,-0.04960756,1.739999,0.2614938,-0.03013916,1.730245,NA,NA,NotTracked,NotTracked,
0.9501953,-0.2602539,0.03710938,0.9033203,0.3686523,0.1137695,-3,0,-1,-2,-1,-1,-2,0,0,0,0,-1,-1,-1,0,-1,-1.0625,-1.0625,-1.0625,-34.0625,-34.0625,-34.0625,2.623981,2.927999,6.629271,6.700865,3.033668,3.817953,-0.1212653,-0.4020346,1.642289,0.2481088,-0.4066243,1.645041,0.07286888,0.5340608,1.72245,-0.1672337,-0.400453,1.634054,0.2922842,-0.3814898,1.642636,0.06117731,0.05659398,1.744673,0.05929043,-0.2753774,1.742046,-0.1129469,0.2374267,1.724669,-0.02239257,-0.2692019,1.706236,-0.1454533,-0.04737372,1.738675,0.2602231,-0.03051726,1.732739,NA,NA,NotTracked,NotTracked,
0.9643555,-0.230957,0.02490234,0.9355469,0.2666016,0.08544922,0,-1,-1,-2,-1,-1,-4,-2,-2,0,-2,-3,-2,-1,-1,-1,-5.9375,-5.9375,-5.9375,9.8125,9.8125,9.8125,2.657845,2.927166,6.589754,6.812163,3.034184,3.716099,-0.1212735,-0.4015982,1.641074,0.2482908,-0.3935297,1.645959,0.07297947,0.5341837,1.722116,-0.1692227,-0.3973566,1.640474,0.2911052,-0.3785438,1.641714,0.06124415,0.05659845,1.744517,0.0596626,-0.2753721,1.742251,-0.1129186,0.2376354,1.723774,-0.02200348,-0.2692601,1.706206,-0.1450463,-0.04883032,1.737639,0.2593681,-0.03080208,1.734236,NA,NA,NotTracked,NotTracked,
0.9663086,-0.2387695,0.02587891,0.9326172,0.2836914,0.07177734,-3,-3,-2,-1,-1,-1,-1,-1,-1,-1,0,1,-2,-1,2,0,-8.125,-8.125,-8.125,34.875,34.875,34.875,2.672291,2.924789,6.56567,6.879394,3.034331,3.679468,-0.120313,-0.4014555,1.640129,0.2468323,-0.3991867,1.642919,0.07304598,0.5341758,1.721855,-0.1671992,-0.4107082,1.629762,0.2880421,-0.4150646,1.62281,0.06130157,0.05660409,1.7443,0.06006448,-0.275366,1.742395,-0.1127337,0.2374741,1.722262,-0.02154081,-0.2693596,1.706091,-0.1453761,-0.04745707,1.736161,0.2578813,-0.03127779,1.735811,NA,NA,NotTracked,NotTracked,
0.9638672,-0.2475586,0.02832031,0.9360352,0.3432617,0.08789063,-3,-2,-2,-1,-1,0,-1,-2,-1,0,-1,-1,0,-1,-3,-2,-9.4375,-9.4375,-9.4375,25.375,25.375,25.375,2.691841,2.92352,6.535036,6.897994,3.04526,3.695326,-0.1193614,-0.400719,1.637761,0.244382,-0.4026972,1.636135,0.07347978,0.5340119,1.720696,-0.16803,-0.4097708,1.633875,0.2896596,-0.3707617,1.640118,0.06147597,0.05648138,1.743627,0.06090306,-0.2754356,1.742414,-0.11253,0.2370764,1.71987,-0.02047442,-0.2695304,1.705395,-0.1459733,-0.04587763,1.733636,0.2556758,-0.03905014,1.739785,NA,NA,NotTracked,NotTracked,
0.9589844,-0.2617188,0.03369141,0.9160156,0.3129883,0.1293945,-1,-1,-3,-2,-1,-2,-3,0,0,0,-2,0,0,-3,-2,-1,-6.75,-6.75,-6.75,16.8125,16.8125,16.8125,2.70252,2.923218,6.52006,6.884922,3.061845,3.731861,-0.1196331,-0.4006447,1.63845,0.2427313,-0.4030988,1.633159,0.07358546,0.5339044,1.720407,-0.1682703,-0.3916597,1.644259,0.2861232,-0.3970163,1.622214,0.06150189,0.05648936,1.743427,0.06113283,-0.275404,1.742404,-0.1126002,0.2369152,1.719197,-0.02017959,-0.2695526,1.705134,-0.1461546,-0.04480283,1.732755,0.2552932,-0.04051,1.740698,NA,NA,NotTracked,NotTracked,
0.9643555,-0.246582,0.04345703,0.9101563,0.2807617,0.1333008,1,0,-2,-3,0,-1,-3,0,-2,0,-1,1,0,-1,1,-1,6.5,6.5,6.5,14.875,14.875,14.875,2.74971,2.924885,6.477034,6.877771,3.076665,3.756349,-0.1191908,-0.4012364,1.637599,0.2417946,-0.4022005,1.630538,0.07364671,0.5338358,1.720172,-0.1680612,-0.4040816,1.638179,0.2867363,-0.3995079,1.618538,0.0615277,0.0564956,1.743306,0.06145163,-0.2753473,1.742399,-0.1126493,0.2370615,1.718458,-0.01980551,-0.2695374,1.704882,-0.1462557,-0.04443286,1.732264,0.2551317,-0.04093924,1.741014,NA,NA,NotTracked,NotTracked,
0.9589844,-0.246582,0.04589844,0.9042969,0.2802734,0.1152344,-3,-3,-1,-1,0,-2,-2,-2,-1,-1,1,1,0,0,-2,-1,7.4375,7.4375,7.4375,23.25,23.25,23.25,2.765207,2.926389,6.465189,6.902599,3.078462,3.754104,-0.1191028,-0.4007891,1.637728,0.2415899,-0.4017211,1.628634,0.07367117,0.533793,1.720074,-0.1665638,-0.3935562,1.639659,0.2880445,-0.4124923,1.614188,0.0615376,0.05647117,1.743175,0.0616751,-0.2753649,1.742365,-0.1127103,0.236926,1.718064,-0.01951172,-0.2696196,1.704577,-0.1463379,-0.04432254,1.731766,0.2550898,-0.04146487,1.741307,NA,NA,NotTracked,NotTracked,
0.972168,-0.2319336,0.05419922,0.9086914,0.2949219,0.09423828,-3,-3,-3,-1,-1,-2,0,-2,-1,-1,-2,-2,0,-1,-1,0,5.125,5.125,5.125,24.0625,24.0625,24.0625,2.783726,2.927983,6.453315,6.946413,3.075067,3.736573,-0.119202,-0.4010789,1.637324,0.2407535,-0.4017844,1.626441,0.07367576,0.5338081,1.719949,-0.1711164,-0.4195211,1.64525,0.2880411,-0.4213809,1.612077,0.06154841,0.05648338,1.743078,0.06186324,-0.2753548,1.742362,-0.1127522,0.2367532,1.717722,-0.01932694,-0.2696511,1.704472,-0.1463545,-0.04422824,1.731516,0.255282,-0.03844802,1.741179,NA,NA,NotTracked,NotTracked,
0.9692383,-0.2529297,0.05224609,0.9208984,0.2954102,0.08203125,1,-2,-1,-1,0,-1,-1,-1,-2,-1,-1,-2,-1,-3,-2,0,-2.3125,-2.3125,-2.3125,20.1875,20.1875,20.1875,2.779043,2.929015,6.457572,6.981559,3.069116,3.724562,-0.1187739,-0.4007594,1.636486,0.2389621,-0.3977531,1.62292,0.07368575,0.5338119,1.719751,-0.1681395,-0.420664,1.630889,0.2852698,-0.3914246,1.6128,0.0615657,0.05647203,1.742861,0.06227641,-0.2753184,1.742231,-0.112924,0.236349,1.717245,-0.01884659,-0.2697376,1.703963,-0.1465064,-0.04407724,1.731075,0.2550263,-0.03685087,1.741068,NA,NA,NotTracked,NotTracked,
0.9667969,-0.2514648,0.04736328,0.9243164,0.2988281,0.07373047,-1,-1,-1,-2,-1,-1,0,-1,-1,-2,-1,-1,-2,1,1,-1,-1.25,-1.25,-1.25,14.375,14.375,14.375,2.771165,2.92954,6.464963,7.002572,3.06188,3.721856,-0.1184415,-0.4010041,1.637627,0.2387919,-0.3978303,1.621856,0.0737081,0.5337955,1.719734,-0.1644475,-0.3956677,1.634939,0.285554,-0.3954372,1.6121,0.06154704,0.05647443,1.742853,0.06229942,-0.275309,1.742258,-0.1129563,0.2363072,1.717204,-0.01883906,-0.2697358,1.703954,-0.1464781,-0.04390452,1.730963,0.2550191,-0.03697649,1.741054,NA,NA,NotTracked,NotTracked,
0.9707031,-0.2514648,0.03955078,0.9233398,0.3041992,0.07373047,2,0,-1,-1,0,-1,-3,-3,-1,0,-1,0,1,-3,-2,0,5.3125,5.3125,5.3125,7.0625,7.0625,7.0625,2.759208,2.932682,6.481328,7.009931,3.056999,3.725269,-0.118255,-0.4005894,1.637313,0.2380582,-0.3977764,1.62058,0.07372127,0.5338046,1.71973,-0.1661083,-0.4033275,1.636889,0.2831486,-0.3968059,1.605,0.06155714,0.05646852,1.742762,0.06241511,-0.2752936,1.742237,-0.1130014,0.2362759,1.717164,-0.01873458,-0.2697556,1.703879,-0.146457,-0.04384959,1.730697,0.255079,-0.03575511,1.740536,NA,NA,NotTracked,NotTracked,
0.9658203,-0.2685547,0.04443359,0.9243164,0.2963867,0.07568359,0,-2,-3,-2,-1,0,-1,-1,0,-2,-1,-1,-2,-1,-1,0,12.5625,12.5625,12.5625,0.25,0.25,0.25,2.762211,2.939134,6.496744,7.006187,3.052601,3.732083,-0.1188147,-0.4011197,1.638238,0.2379165,-0.3979065,1.621428,0.0737306,0.5338319,1.719736,-0.1669241,-0.4058214,1.636515,0.2840638,-0.4107392,1.607706,0.061552,0.05649787,1.742731,0.06249245,-0.2752607,1.742258,-0.1129948,0.2362751,1.717164,-0.0186835,-0.2697487,1.703864,-0.1456544,-0.04734712,1.731109,0.2550862,-0.03501395,1.740326,NA,NA,NotTracked,NotTracked,
0.9545898,-0.2597656,0.05566406,0.9243164,0.2949219,0.07714844,-3,-2,-1,-1,-1,-1,-1,1,0,-2,-1,-3,0,0,0,-1,12.375,12.375,12.375,-6.75,-6.75,-6.75,2.772683,2.939851,6.501193,6.992176,3.049408,3.741997,-0.1186168,-0.4007789,1.638793,0.2381256,-0.3984126,1.622187,0.07374804,0.5337556,1.71973,-0.1657291,-0.3970376,1.637917,0.2849844,-0.4026718,1.610491,0.06155637,0.05649748,1.742719,0.06252738,-0.2752374,1.742262,-0.1129928,0.2362754,1.717163,-0.01866767,-0.2697482,1.703858,-0.145671,-0.04677455,1.731126,0.2551943,-0.03313112,1.739842,NA,NA,NotTracked,NotTracked,
0.9550781,-0.2739258,0.06396484,0.9257813,0.2915039,0.08740234,0,-1,-3,-3,-1,-1,-2,0,-1,-1,-1,1,-3,-3,-1,-1,6.9375,6.9375,6.9375,-11.375,-11.375,-11.375,2.776217,2.940718,6.50728,6.971847,3.047863,3.751632,-0.1188937,-0.4009266,1.638941,0.2380596,-0.3993345,1.622247,0.07380258,0.5338441,1.719747,-0.1671317,-0.3949215,1.640809,0.2857528,-0.4130982,1.616273,0.06157057,0.05652339,1.742621,0.06263469,-0.2752115,1.742194,-0.1130335,0.2362933,1.717192,-0.01856183,-0.2697375,1.703778,-0.1457214,-0.04625214,1.731171,0.2551585,-0.03294066,1.739437,NA,NA,NotTracked,NotTracked,
0.9609375,-0.2753906,0.06640625,0.9262695,0.2890625,0.08984375,-2,-1,-1,-1,-2,-1,-2,-1,-1,-1,-3,-1,-1,-1,0,0,5.375,5.375,5.375,-11.9375,-11.9375,-11.9375,2.771519,2.943744,6.519416,6.949574,3.046422,3.761259,-0.1189333,-0.4012894,1.639471,0.2382748,-0.3993664,1.622737,0.07384666,0.5338827,1.719773,-0.1665463,-0.3978759,1.638687,0.285013,-0.4072458,1.613546,0.06162589,0.05652114,1.7426,0.06272712,-0.2752241,1.742201,-0.113017,0.2362308,1.717277,-0.01848302,-0.2697581,1.703766,-0.1457183,-0.04589743,1.731262,0.2552749,-0.0323826,1.739018,NA,NA,NotTracked,NotTracked,
0.9550781,-0.2700195,0.05322266,0.9345703,0.2802734,0.1069336,-1,-2,-2,-1,-1,-1,-2,-2,-1,0,0,1,-2,0,0,-1,3.875,3.875,3.875,-6.875,-6.875,-6.875,2.761019,2.947529,6.53511,6.93227,3.042892,3.769291,-0.1185313,-0.4012471,1.639627,0.2386527,-0.3996879,1.623816,0.07394636,0.5337941,1.719839,-0.1671546,-0.400765,1.641287,0.2882467,-0.3862191,1.6237,0.06163001,0.05651501,1.742574,0.0627559,-0.2752222,1.742179,-0.1130262,0.236188,1.717349,-0.01845505,-0.2697638,1.703727,-0.1448995,-0.0482884,1.731702,0.2552571,-0.03150272,1.738585,NA,NA,NotTracked,NotTracked,
0.9575195,-0.2719727,0.05615234,0.9296875,0.2871094,0.09570313,-3,-1,-2,0,1,-1,0,-4,0,-2,0,-2,-1,0,0,-2,5.5625,5.5625,5.5625,-0.3125,-0.3125,-0.3125,2.765841,2.94999,6.53616,6.93412,3.038338,3.766019,-0.1184129,-0.4017658,1.640511,0.2391949,-0.399742,1.6257,0.07406726,0.5337852,1.719928,-0.1665785,-0.4004678,1.638085,0.2878742,-0.3843388,1.625577,0.06164594,0.05651991,1.742576,0.06278632,-0.2752043,1.742197,-0.1128225,0.2363183,1.717561,-0.01844087,-0.2697515,1.703732,-0.145012,-0.04685923,1.73213,0.2552004,-0.03088135,1.73827,NA,NA,NotTracked,NotTracked,
0.9511719,-0.277832,0.05615234,0.9262695,0.2866211,0.08496094,-2,-2,-2,-1,-1,-3,0,1,-1,-1,0,-2,0,0,-1,-1,1.75,1.75,1.75,-1.5625,-1.5625,-1.5625,2.777078,2.950155,6.528563,6.933203,3.034918,3.766207,-0.1185729,-0.4012758,1.639742,0.2388628,-0.4005282,1.624477,0.07421142,0.5337915,1.719959,-0.1662374,-0.4005429,1.637012,0.285705,-0.4140552,1.615733,0.06167845,0.05652037,1.742562,0.06283069,-0.2752091,1.742175,-0.1127317,0.2363123,1.717632,-0.01838056,-0.2697682,1.703688,-0.1450332,-0.04614851,1.732515,0.2552428,-0.03076888,1.738125,NA,NA,NotTracked,NotTracked,
0.9536133,-0.28125,0.06787109,0.9296875,0.2880859,0.1079102,-2,-1,-3,0,-2,1,0,-1,-1,-1,0,-1,-1,-1,0,0,-2.3125,-2.3125,-2.3125,-1.8125,-1.8125,-1.8125,2.785503,2.949985,6.517778,6.920447,3.03395,3.777786,-0.119265,-0.4004696,1.639335,0.2390988,-0.4001068,1.624788,0.07455344,0.533919,1.719957,-0.1684269,-0.4102433,1.637089,0.2877007,-0.3811473,1.625533,0.06180738,0.05663235,1.742415,0.06290878,-0.2751333,1.742081,-0.1125287,0.2365023,1.717862,-0.0183186,-0.2696953,1.703605,-0.1441059,-0.04912576,1.733354,0.2553297,-0.03057356,1.737783,NA,NA,NotTracked,NotTracked,
0.9467773,-0.2866211,0.06298828,0.9262695,0.2958984,0.1079102,-2,-3,-1,0,-1,-1,0,-2,0,-1,-1,-1,-1,-1,1,0,-2.25,-2.25,-2.25,0.4375,0.4375,0.4375,2.788873,2.950322,6.512306,6.912052,3.034145,3.786782,-0.119016,-0.4004878,1.640178,0.2393271,-0.3998155,1.625083,0.07470931,0.5339925,1.719959,-0.1686445,-0.4159998,1.635667,0.2867747,-0.3926266,1.621313,0.06197767,0.05676659,1.742358,0.06293266,-0.2750672,1.742059,-0.1133405,0.2368574,1.719075,-0.01829127,-0.2696232,1.703603,-0.1437376,-0.05021566,1.733631,0.2554096,-0.03053101,1.737686,NA,NA,NotTracked,NotTracked,
0.9570313,-0.2724609,0.07275391,0.9248047,0.2954102,0.1035156,-3,2,0,-2,-2,-3,-2,-2,0,-1,-3,-1,0,-2,0,0,-1.375,-1.375,-1.375,1.4375,1.4375,1.4375,2.786175,2.949994,6.513818,6.914406,3.034421,3.785976,-0.1193213,-0.4007695,1.639359,0.2388583,-0.3995608,1.623549,0.07497327,0.5341039,1.719888,-0.1673401,-0.3972345,1.641385,0.2876324,-0.3807995,1.624667,0.06204112,0.05681703,1.742282,0.06294828,-0.2750201,1.742016,-0.1131255,0.2368637,1.719009,-0.01828378,-0.2695842,1.703566,-0.1441192,-0.04768272,1.733321,0.2554527,-0.03056742,1.737608,NA,NA,NotTracked,NotTracked,
0.9580078,-0.2666016,0.06787109,0.925293,0.2924805,0.09667969,-1,-4,-1,-2,-2,-2,0,0,-1,0,-1,-1,-1,-1,-1,0,-2.875,-2.875,-2.875,1.5625,1.5625,1.5625,2.779964,2.950209,6.518883,6.916821,3.034614,3.784537,-0.1189008,-0.4006937,1.640123,0.2389214,-0.4000679,1.625168,0.07518198,0.5339819,1.719966,-0.1679108,-0.4166094,1.634077,0.285733,-0.3982591,1.61846,0.06218139,0.05684833,1.742303,0.0630016,-0.2750075,1.74201,-0.1129965,0.2368482,1.719062,-0.01823964,-0.2695721,1.703563,-0.1441084,-0.04613235,1.733649,0.2554725,-0.03050473,1.737531,NA,NA,NotTracked,NotTracked,
0.9521484,-0.2646484,0.04931641,0.9282227,0.2958984,0.1035156,-1,-3,-4,-1,-2,-1,-1,0,1,-2,1,1,-2,1,-3,-1,-5.9375,-5.9375,-5.9375,0,0,0,2.762571,2.950023,6.531005,6.912476,3.035122,3.790113,-0.119124,-0.3999916,1.640296,0.2387625,-0.3998732,1.62461,0.07549056,0.534099,1.719967,-0.1659578,-0.3885682,1.640257,0.2861795,-0.3966664,1.61948,0.06229997,0.05688828,1.7423,0.06300454,-0.2749994,1.742009,-0.1126398,0.2370315,1.71924,-0.01823679,-0.2695597,1.703554,-0.1438472,-0.04703847,1.733724,0.2556442,-0.03065656,1.737414,NA,NA,NotTracked,NotTracked,
0.9580078,-0.2631836,0.04882813,0.9233398,0.2871094,0.1083984,-1,-3,-1,-1,0,-1,-3,1,-2,0,-2,0,-1,-1,0,0,-3.125,-3.125,-3.125,0.9375,0.9375,0.9375,2.750098,2.949346,6.535532,6.909408,3.035283,3.79433,-0.1189094,-0.4010322,1.639523,0.2382261,-0.400647,1.623354,0.07613736,0.5338993,1.719999,-0.1664834,-0.3922934,1.639893,0.2842162,-0.4185377,1.611308,0.06250835,0.05687903,1.7422,0.06306149,-0.2750153,1.741935,-0.1123572,0.237053,1.719199,-0.01817591,-0.2695258,1.703436,-0.1440675,-0.04420315,1.733918,0.2557616,-0.0328456,1.737474,NA,NA,NotTracked,NotTracked,
