ALX,ALY,ALZ,ARX,ARY,ARZ,EMG0L,EMG1L,EMG2L,EMG3L,EMG4L,EMG5L,EMG6L,EMG7L,EMG0R,EMG1R,EMG2R,EMG3R,EMG4R,EMG5R,EMG6R,EMG7R,GLX,GLY,GLZ,GRX,GRY,GRZ,ORL,OPL,OYL,ORR,OPR,OYR,LHNX,LHNY,LHNZ,RHNX,RHNY,RHNZ,HX,HY,HZ,LTX,LTY,LTZ,RTX,RTY,RTZ,SpineMidX,SpineMidY,SpineMidZ,SpineBaseX,SpineBaseY,SpineBaseZ,ShoulderLeftX,ShoulderLeftY,ShoulderLeftZ,ShoulderRightX,ShoulderRightY,ShoulderRightZ,ElbowLeftX,ElbowLeftY,ElbowLeftZ,ElbowRightX,ElbowRightY,ElbowRightZ,Myo_Pose_left,Myo_Pose_Right,Kinect_pose_left,Kinect_pose_right
0.9511719,-0.2890625,0.06542969,1.044434,0.3525391,0.06542969,-2,-3,-1,-1,-2,-1,0,0,7,14,-23,-10,3,2,1,17,1.1875,1.1875,1.1875,-85.4375,-85.4375,-85.4375,2.797951,2.975521,6.481558,6.806525,3.087129,3.770029,-0.1216661,-0.4011853,1.640297,0.2338975,-0.3995264,1.623075,0.0773022,0.5308545,1.724847,-0.167366,-0.4044846,1.635206,0.2812603,-0.4047173,1.617629,0.0605386,0.05526116,1.747595,0.06128656,-0.2755239,1.744058,-0.1149549,0.235955,1.727278,-0.01999765,-0.2699792,1.70514,-0.1492625,-0.04090136,1.737904,0.2514564,-0.03665296,1.7426,NA,NA,NotTracked,NotTracked,
0.9477539,-0.2910156,0.06982422,1.351563,0.5375977,0.1689453,2,-3,-1,-1,-1,0,-3,-2,-6,-14,67,12,-3,-1,-4,7,1.4375,1.4375,1.4375,-119,-119,-119,2.793101,2.977508,6.488507,6.642629,3.20553,3.808993,-0.1218114,-0.4010491,1.639503,0.2341888,-0.3971916,1.616156,0.0772879,0.5308443,1.724901,-0.1697158,-0.394803,1.640507,0.2832911,-0.4037128,1.607818,0.06053706,0.05526367,1.747598,0.06128252,-0.2755151,1.744009,-0.1150924,0.235883,1.727447,-0.01999323,-0.2699799,1.705093,-0.1492576,-0.04077047,1.737914,0.2514827,-0.03670425,1.742701,NA,NA,NotTracked,NotTracked,
0.9506836,-0.2900391,0.06738281,1.083008,0.4243164,0.3828125,-3,-1,-1,0,-1,-3,-1,-1,-1,-12,24,-6,0,-1,-1,3,3.25,3.25,3.25,-42.3125,-42.3125,-42.3125,2.788524,2.978196,6.495328,6.521825,3.370395,3.854441,-0.1213446,-0.4005363,1.640041,0.2334929,-0.3904851,1.605993,0.07727514,0.5310376,1.725337,-0.1711952,-0.4017416,1.640662,0.279618,-0.40779,1.577438,0.06051475,0.05530019,1.747671,0.06126168,-0.2755212,1.744019,-0.1152738,0.2357182,1.727629,-0.02000531,-0.269992,1.705101,-0.1492688,-0.04073403,1.737919,0.2521658,-0.0404948,1.745387,NA,NA,NotTracked,NotTracked,
0.9628906,-0.2763672,0.04199219,0.9140625,0.6948242,0.515625,1,-1,0,-2,0,-2,-2,1,-1,14,-13,-5,9,-5,2,6,8.125,8.125,8.125,37.1875,37.1875,37.1875,2.778857,2.980598,6.513457,6.529472,3.575423,3.876874,-0.1217975,-0.4009539,1.639778,0.2325273,-0.3755248,1.585106,0.07722785,0.5311145,1.725489,-0.1751346,-0.4088425,1.65125,0.2426362,-0.375407,1.515778,0.0604732,0.05530283,1.747699,0.06120393,-0.2755219,1.744013,-0.1153461,0.2357142,1.727739,-0.02006656,-0.2699868,1.705111,-0.1481994,-0.04383683,1.737966,0.2532727,-0.04279363,1.748502,NA,NA,NotTracked,Unknown,
0.9492188,-0.2866211,0.05517578,0.5859375,0.9223633,0.5161133,1,-1,-1,-1,-1,-1,1,0,11,48,-4,-8,10,41,6,6,0.625,0.625,0.625,7.1875,7.1875,7.1875,2.778744,2.98174,6.52026,6.551701,3.828823,3.88109,-0.1215509,-0.4005856,1.638261,0.2315065,-0.3462379,1.554748,0.077259,0.531002,1.725743,-0.1715857,-0.4026988,1.638792,0.2460735,-0.3448427,1.488738,0.06045926,0.05529903,1.74769,0.0611265,-0.2755407,1.743913,-0.1153689,0.2357753,1.727781,-0.02015536,-0.2699549,1.704997,-0.1482308,-0.04375252,1.73793,0.2536607,-0.04088911,1.750962,NA,NA,NotTracked,Unknown,
0.9243164,-0.2958984,0.07128906,0.3745117,0.8203125,0.6186523,1,-2,-1,0,-1,0,-1,1,-8,-26,-50,15,-19,-64,-3,-15,-4.125,-4.125,-4.125,-46.1875,-46.1875,-46.1875,2.781522,2.980864,6.51516,6.500307,4.120082,3.895112,-0.1215507,-0.4003307,1.638261,0.2320836,-0.2983573,1.520617,0.07734026,0.5310043,1.725794,-0.1716218,-0.4020939,1.641203,0.2427197,-0.2892427,1.463444,0.06030408,0.05530864,1.747616,0.06040183,-0.27556,1.743473,-0.1153655,0.2357907,1.727782,-0.02107697,-0.2696552,1.704391,-0.1483021,-0.04347185,1.737868,0.2545696,-0.0395179,1.753139,NA,NA,NotTracked,Unknown,
0.9350586,-0.3115234,0.08691406,0.09423828,0.7802734,0.6625977,-1,-1,-2,0,-3,-2,-1,-2,41,11,22,10,-12,-15,-6,15,-18.125,-18.125,-18.125,-49.4375,-49.4375,-49.4375,2.766798,2.979021,6.507036,6.433483,4.448332,3.925652,-0.1217366,-0.4009267,1.637695,0.220365,-0.1867341,1.442543,0.07774981,0.5311242,1.726097,-0.1728141,-0.4043081,1.642299,0.2393202,-0.1739704,1.415611,0.05941058,0.05553613,1.747316,0.05646971,-0.2753046,1.742087,-0.1152477,0.2359678,1.727688,-0.0254626,-0.2683265,1.702666,-0.1485685,-0.04049632,1.737037,0.2561049,-0.02850861,1.7606,NA,NA,NotTracked,Unknown,
0.9506836,-0.2949219,0.05810547,-0.1269531,0.7504883,0.7202148,-4,-2,-1,-1,-1,0,-1,0,34,1,-17,-15,-18,5,-3,-1,-23.125,-23.125,-23.125,-52.5625,-52.5625,-52.5625,2.731212,2.975733,6.519323,6.368762,4.798149,3.967398,-0.1220152,-0.4005345,1.638236,0.2140725,-0.1131916,1.432453,0.07800771,0.5311165,1.726276,-0.1710424,-0.3956778,1.638708,0.2312558,-0.0903369,1.409556,0.05931848,0.05560282,1.747274,0.05596146,-0.275115,1.741817,-0.1153596,0.2360615,1.727695,-0.0259112,-0.2680768,1.702279,-0.1487021,-0.03979398,1.736811,0.2605089,0.01142949,1.757737,NA,NA,NotTracked,Unknown,
0.9492188,-0.2875977,0.05859375,-0.3139648,0.6469727,0.6772461,0,-2,0,0,-1,-1,0,0,-5,1,-8,-11,-13,-23,-1,22,-27.6875,-27.6875,-27.6875,-37,-37,-37,2.703949,2.973261,6.517081,6.321311,5.15993,4.012759,-0.1224231,-0.3980654,1.637714,0.2185538,-0.04290819,1.441696,0.07845403,0.5311717,1.726595,-0.1718407,-0.393747,1.641476,0.2268068,-0.02766233,1.3993,0.05926614,0.05564737,1.747287,0.05581815,-0.2750517,1.741771,-0.1149478,0.2361469,1.727419,-0.02600527,-0.2680078,1.702223,-0.1487516,-0.03938805,1.736435,0.2888673,0.01561403,1.738363,NA,NA,NotTracked,Unknown,
0.956543,-0.2773438,0.05419922,-0.4326172,0.6508789,0.7158203,-1,-2,-1,-1,0,0,0,-2,2,8,13,10,2,24,-7,-8,-27.4375,-27.4375,-27.4375,-24.875,-24.875,-24.875,2.687335,2.97248,6.503093,6.301515,5.505672,4.056071,-0.1214635,-0.4024455,1.635425,0.2183272,0.03003205,1.451114,0.07940976,0.5310653,1.727227,-0.170053,-0.4187866,1.626952,0.2185884,0.005340473,1.423833,0.05923634,0.05583332,1.747351,0.05565251,-0.2745892,1.741741,-0.1150418,0.2361926,1.727415,-0.02607997,-0.2676863,1.702296,-0.1487572,-0.03924106,1.735883,0.251229,-0.05900075,1.673362,NA,NA,NotTracked,Unknown,
0.9550781,-0.2734375,0.04589844,-0.4335938,0.5761719,0.6606445,1,-1,-2,-1,-2,-1,0,-3,-29,-9,-10,-7,-6,0,-1,9,-25.5,-25.5,-25.5,-14.0625,-14.0625,-14.0625,2.677534,2.971981,6.498641,6.299405,5.808338,4.095754,-0.1209999,-0.401736,1.63396,0.2136092,0.09000273,1.45489,0.08058854,0.5307534,1.7279,-0.1713843,-0.4146155,1.634822,0.1797823,0.1202066,1.396111,0.05924968,0.05583572,1.747419,0.05570838,-0.2746052,1.741719,-0.1132252,0.2360916,1.726939,-0.02594326,-0.2677062,1.702217,-0.1487965,-0.03859888,1.735272,0.2508954,-0.04873611,1.680673,NA,NA,NotTracked,Unknown,
0.9555664,-0.28125,0.03515625,-0.4643555,0.5703125,0.6977539,-1,0,-1,-1,0,-2,-1,-3,-40,-5,-3,-6,-10,-1,1,-8,-14.8125,-14.8125,-14.8125,-13.6875,-13.6875,-13.6875,2.652474,2.978369,6.492657,6.302556,5.940946,4.118,-0.1198002,-0.4010405,1.629803,0.1941962,0.2084284,1.475817,0.081466,0.5304912,1.728906,-0.16792,-0.3950135,1.62764,0.1408555,0.193815,1.485,0.05938438,0.05449604,1.747616,0.05569895,-0.2782549,1.74087,-0.1110424,0.2361108,1.726235,-0.02627622,-0.2708366,1.701839,-0.148642,-0.03714874,1.733573,0.2501434,-0.01067646,1.661011,NA,NA,NotTracked,Unknown,
0.9555664,-0.2788086,0.03710938,-0.4311523,0.543457,0.612793,-1,-3,-3,-2,-1,-1,-2,-1,6,7,0,1,3,-2,-2,16,-8.4375,-8.4375,-8.4375,-26.375,-26.375,-26.375,2.645819,2.984825,6.488618,6.31453,6.249937,4.193762,-0.1193576,-0.4009639,1.628788,0.1839968,0.2560997,1.488176,0.08134221,0.5302588,1.729438,-0.1647433,-0.4185969,1.617733,0.1426715,0.2554271,1.491818,0.05944984,0.05460618,1.747674,0.05571499,-0.2780534,1.740765,-0.1115687,0.2361899,1.726514,-0.02630111,-0.2706667,1.70189,-0.1481731,-0.03343065,1.732673,0.246391,0.0001118003,1.654946,NA,NA,NotTracked,Unknown,
0.9545898,-0.2749023,0.01806641,-0.4150391,0.5146484,0.550293,-1,-2,-2,-1,0,-1,-1,0,4,-1,-7,-3,-1,1,1,1,-3.0625,-3.0625,-3.0625,-21.375,-21.375,-21.375,2.636405,2.992172,6.493167,6.322534,6.322804,4.221685,-0.1186788,-0.4002453,1.628307,0.1852929,0.2710006,1.498388,0.08125919,0.5306534,1.730564,-0.1633839,-0.4212186,1.61575,0.123139,0.2648517,1.52425,0.05992487,0.05522929,1.748315,0.0556508,-0.2774518,1.740631,-0.1106153,0.2363082,1.726839,-0.02642774,-0.2701184,1.702021,-0.1479733,-0.02806892,1.73222,0.2445602,0.003226496,1.645826,NA,NA,NotTracked,Unknown,
0.9482422,-0.2739258,0.01318359,-0.4594727,0.487793,0.4760742,-1,-1,-1,-1,-1,-1,-1,-1,-12,-6,-6,-7,1,-5,-10,-12,7.5625,7.5625,7.5625,-25.0625,-25.0625,-25.0625,2.633513,2.999165,6.501346,6.325527,6.41615,4.263567,-0.1182094,-0.3998466,1.626589,0.1802171,0.2916421,1.505946,0.08104875,0.5307364,1.73114,-0.1649746,-0.4162975,1.618175,0.1249059,0.2940451,1.529667,0.06035057,0.05573906,1.748766,0.05566984,-0.2770004,1.740465,-0.1110232,0.2363799,1.727133,-0.02644313,-0.2695779,1.702156,-0.1481174,-0.02499982,1.731746,0.2446012,0.04268335,1.568847,NA,NA,NotTracked,Unknown,
0.9550781,-0.284668,0.01074219,-0.5307617,0.4951172,0.4038086,-2,-2,-4,-2,-1,-1,0,-1,-28,-3,-4,-2,10,1,2,4,20.125,20.125,20.125,-18.125,-18.125,-18.125,2.649197,3.005976,6.504091,6.32497,6.464722,4.289228,-0.1171609,-0.4007963,1.626352,0.1779776,0.3009731,1.509445,0.08075057,0.5309354,1.731739,-0.1649185,-0.4146403,1.617302,0.1288207,0.3065456,1.5315,0.06071045,0.05628001,1.749098,0.055565,-0.2764087,1.740326,-0.1113755,0.2364253,1.727497,-0.02662182,-0.268947,1.702516,-0.1478721,-0.0228538,1.732054,0.2466895,0.006777291,1.573791,NA,NA,NotTracked,Unknown,
0.9462891,-0.3007813,0.03076172,-0.5810547,0.4980469,0.3725586,-2,-5,-2,-1,0,-3,-2,-1,-1,8,5,0,5,2,-8,33,29.5625,29.5625,29.5625,-17.5,-17.5,-17.5,2.687421,3.013107,6.496109,6.321631,6.473784,4.295705,-0.1165574,-0.4002955,1.625585,0.1666878,0.3371909,1.52167,0.08076583,0.5308554,1.732581,-0.1637509,-0.4168451,1.613122,0.1213571,0.3430552,1.537778,0.06092853,0.05644429,1.749274,0.05552086,-0.2762027,1.74017,-0.1103815,0.236419,1.728333,-0.02668247,-0.2687558,1.702625,-0.1478077,-0.02279081,1.73217,0.2381888,0.03931924,1.555068,NA,NA,NotTracked,Unknown,
0.9453125,-0.3105469,0.05175781,-0.7451172,0.4882813,0.3217773,-1,-2,-2,-3,0,0,-2,0,27,-13,-17,5,6,1,-2,9,35.6875,35.6875,35.6875,-10.375,-10.375,-10.375,2.734075,3.018209,6.486876,6.290989,6.474887,4.270919,-0.1164704,-0.4001278,1.625683,0.1665068,0.3305205,1.511905,0.08044274,0.5311253,1.734033,-0.1643686,-0.4179485,1.614656,0.1295619,0.3180014,1.526182,0.06135685,0.0567492,1.749458,0.05556211,-0.2758369,1.739788,-0.111317,0.2365012,1.729354,-0.02670435,-0.2684143,1.702894,-0.1474114,-0.0207742,1.73382,0.2349465,0.0171332,1.549991,NA,NA,NotTracked,Unknown,
0.9370117,-0.3139648,0.06347656,-0.9794922,0.4975586,0.347168,-2,-3,-1,-2,-2,1,0,-1,39,24,9,4,1,1,-3,15,42.25,42.25,42.25,10.0625,10.0625,10.0625,2.79042,3.022537,6.475318,6.272916,6.451448,4.238007,-0.1167673,-0.4010634,1.628382,0.1741875,0.3076885,1.495124,0.08021867,0.5310676,1.734816,-0.1643977,-0.4186158,1.615985,0.1386,0.29026,1.5155,0.06156757,0.0569701,1.749549,0.05560756,-0.2755733,1.739529,-0.1103957,0.2361906,1.731614,-0.02669802,-0.2682003,1.703056,-0.1472323,-0.02046571,1.734455,0.2346317,0.01470483,1.548954,NA,NA,NotTracked,Unknown,
0.9296875,-0.2788086,0.06494141,-0.9892578,0.4570313,0.3222656,0,-2,-1,-1,-1,0,-2,-1,-13,0,8,1,5,-1,1,-12,38.625,38.625,38.625,15.6875,15.6875,15.6875,2.834111,3.023642,6.477717,6.218425,6.375409,4.139262,-0.1169131,-0.4013794,1.629374,0.1655249,0.3397865,1.500876,0.0801018,0.5308284,1.735438,-0.1648855,-0.4149803,1.617417,0.1280879,0.3247578,1.512727,0.0616567,0.05705681,1.749582,0.05553588,-0.2752995,1.739123,-0.1109544,0.2363161,1.732032,-0.0267608,-0.2680071,1.703097,-0.147223,-0.01959458,1.735141,0.2343443,0.01309611,1.544073,NA,NA,NotTracked,Unknown,
0.9301758,-0.246582,0.07763672,-1.020996,0.453125,0.3491211,1,-1,0,-1,-2,-2,-2,-3,-3,-1,0,10,-5,8,27,-12,18.8125,18.8125,18.8125,6.6875,6.6875,6.6875,2.8255,3.017037,6.514659,6.192369,6.34814,4.09632,-0.1175337,-0.3995494,1.632136,0.1803443,0.3005459,1.467161,0.08006756,0.5307673,1.73634,-0.1664756,-0.3857952,1.631938,0.133292,0.3142087,1.510002,0.06178678,0.05723651,1.749665,0.05553213,-0.2749281,1.738784,-0.1102486,0.2361442,1.733951,-0.02679221,-0.267727,1.703173,-0.1470248,-0.01887819,1.736038,0.2340057,0.01240854,1.543046,NA,NA,NotTracked,Unknown,
0.9423828,-0.340332,0.08349609,-1.007324,0.4892578,0.4624023,0,0,0,0,-1,0,0,0,-9,0,-2,-5,-15,-8,8,-12,10.6875,10.6875,10.6875,-2.25,-2.25,-2.25,2.813002,3.012639,6.54208,6.145594,6.27305,4.025839,-0.1195123,-0.3969192,1.637289,0.1940374,0.2866952,1.415866,0.08008944,0.5309058,1.738374,-0.1662332,-0.405198,1.62846,0.1399178,0.3185148,1.46275,0.06242716,0.05850065,1.750117,0.05551418,-0.2723783,1.73781,-0.1117622,0.236406,1.734602,-0.02679869,-0.2651636,1.703307,-0.1462607,-0.01794915,1.738518,0.2388713,0.07794059,1.479913,NA,NA,NotTracked,Unknown,
0.9829102,-0.3149414,0.08154297,-0.7978516,0.5224609,0.5859375,-1,-3,-1,-2,-2,0,-1,-1,-1,1,5,2,5,16,13,14,8.375,8.375,8.375,10.625,10.625,10.625,2.810214,3.011441,6.550164,6.07319,6.073823,3.91476,-0.1202913,-0.3944461,1.639502,0.2023841,0.2831647,1.381353,0.08038589,0.5304912,1.740117,-0.165226,-0.3955468,1.637531,0.1738597,0.2684278,1.352706,0.06280343,0.05878545,1.750256,0.0558167,-0.2716714,1.73749,-0.1120417,0.2365754,1.734877,-0.02642579,-0.2641831,1.70312,-0.1459534,-0.01814032,1.739409,0.2393936,0.06950426,1.476178,NA,NA,NotTracked,Unknown,
0.9438477,-0.3964844,0.08691406,-0.6479492,0.5454102,0.6772461,-3,1,-1,-1,1,0,1,0,2,3,2,-1,2,-57,-15,-31,2.25,2.25,2.25,17.6875,17.6875,17.6875,2.799818,3.01283,6.564332,6.061548,5.991316,3.879154,-0.120527,-0.3920814,1.640432,0.2108443,0.2781667,1.344647,0.08077068,0.530453,1.741419,-0.1657745,-0.4005273,1.636215,0.1656362,0.3373326,1.392222,0.06301268,0.05888555,1.750571,0.05596606,-0.2712907,1.73735,-0.1124748,0.236661,1.735278,-0.0262245,-0.2637002,1.70313,-0.1456286,-0.01902901,1.74077,0.2439152,0.06446002,1.468047,NA,NA,NotTracked,Closed,
0.9331055,-0.3417969,0.07666016,-0.08398438,0.5961914,0.734375,-1,-1,-1,-2,-1,-2,-1,0,13,9,5,10,11,8,-50,-39,-3.8125,-3.8125,-3.8125,-29.625,-29.625,-29.625,2.801783,3.028517,6.564143,6.025852,5.720989,3.845608,-0.1203108,-0.3929106,1.638631,0.2227449,0.2655815,1.303244,0.08132134,0.5303699,1.742817,-0.166362,-0.3954045,1.637004,0.1791443,0.3334036,1.364,0.06306323,0.0589039,1.750667,0.05615065,-0.2710926,1.737049,-0.1127735,0.2366741,1.735645,-0.02602622,-0.2634329,1.702968,-0.1410844,-0.0364307,1.744453,0.2461846,0.07278821,1.459775,NA,NA,NotTracked,Closed,
0.9458008,-0.3012695,0.06298828,0.07226563,0.4243164,0.7924805,-2,-2,-1,1,-1,-2,-1,2,9,7,-2,-4,-3,15,33,-24,-17.75,-17.75,-17.75,-14.375,-14.375,-14.375,2.791734,3.032561,6.557813,5.992274,5.579261,3.83406,-0.1204328,-0.3921392,1.637018,0.231648,0.2582632,1.263336,0.08195379,0.5302992,1.744115,-0.1654094,-0.4011665,1.635243,0.1873764,0.3320996,1.305,0.06334968,0.05860701,1.750953,0.05638106,-0.271224,1.736713,-0.1114156,0.2361931,1.738678,-0.02574625,-0.263526,1.702825,-0.1402755,-0.04102647,1.745199,0.2468922,0.07715116,1.456361,NA,NA,NotTracked,Unknown,
0.9511719,-0.2910156,0.05126953,0.1367188,0.4042969,0.7915039,0,-3,-3,-2,-2,-2,0,-1,-14,-4,-1,1,-34,8,-6,13,-22.5,-22.5,-22.5,-0.5,-0.5,-0.5,2.770223,3.034179,6.554509,5.983201,5.521503,3.822517,-0.1204942,-0.3914638,1.636472,0.2489924,0.240177,1.210156,0.08341151,0.5300589,1.747973,-0.1665711,-0.3949785,1.637382,0.2122484,0.3126948,1.230111,0.0633785,0.05751666,1.752056,0.05645533,-0.272328,1.736416,-0.1098265,0.2358271,1.743935,-0.02546497,-0.2646968,1.702925,-0.1410332,-0.03779215,1.746536,0.2512811,0.1011514,1.441447,NA,NA,NotTracked,Closed,
0.9550781,-0.2900391,0.05175781,0.02929688,0.5400391,0.7993164,0,-2,-1,-1,-1,-1,-1,-1,9,6,1,3,9,65,10,-2,-17.125,-17.125,-17.125,12.9375,12.9375,12.9375,2.760195,3.034153,6.555265,5.988299,5.463756,3.806053,-0.1202178,-0.3917519,1.634672,0.2549074,0.2363248,1.197195,0.08399623,0.530066,1.749478,-0.1643067,-0.3862242,1.629698,0.2168842,0.3064873,1.2165,0.06332406,0.05685114,1.752519,0.05636089,-0.2732414,1.73619,-0.1097442,0.2355595,1.745692,-0.02547093,-0.2656431,1.702929,-0.1411763,-0.03732277,1.746777,0.2517918,0.1007968,1.440787,NA,NA,NotTracked,Closed,
0.9487305,-0.309082,0.06591797,-0.1464844,0.5302734,0.8671875,-1,0,0,-2,-1,0,1,0,-2,7,0,1,7,-15,-13,3,17.0625,17.0625,17.0625,-8,-8,-8,2.768058,3.038044,6.556156,5.976592,5.456187,3.795652,-0.1199053,-0.3916511,1.635525,0.258367,0.2362643,1.195923,0.08421297,0.5301351,1.751064,-0.1650515,-0.3924687,1.628132,0.2227018,0.312975,1.2185,0.06341549,0.05645613,1.75299,0.05634877,-0.2737246,1.736156,-0.1098031,0.2352253,1.747185,-0.02538451,-0.2663446,1.703243,-0.1415687,-0.03527781,1.74836,0.2528229,0.1021942,1.439169,NA,NA,NotTracked,Closed,
0.9301758,-0.3295898,0.08251953,-0.2758789,0.5478516,0.8579102,0,-4,2,-1,-1,-1,-2,-1,3,5,-1,-1,-2,30,3,10,29.0625,29.0625,29.0625,2.6875,2.6875,2.6875,2.792893,3.04773,6.562224,5.970038,5.469913,3.783063,-0.1194481,-0.3904631,1.635503,0.2608391,0.2361594,1.196665,0.08437225,0.5302587,1.75214,-0.1647499,-0.3949161,1.626533,0.2279744,0.3126629,1.210714,0.06343193,0.05615839,1.753244,0.05633195,-0.2741702,1.736051,-0.1098873,0.2349823,1.748824,-0.02530459,-0.2669463,1.703512,-0.1402625,-0.04073317,1.74951,0.2537348,0.103397,1.438243,NA,NA,NotTracked,Closed,
0.9467773,-0.3417969,0.09179688,-0.421875,0.5400391,0.8081055,-1,-3,0,0,0,-1,-1,-2,8,6,2,2,14,-7,2,3,30.625,30.625,30.625,-5.0625,-5.0625,-5.0625,2.809529,3.053856,6.563202,5.969481,5.505139,3.786669,-0.1198243,-0.3913395,1.636856,0.2601469,0.2370811,1.20168,0.0844507,0.5303938,1.752705,-0.166552,-0.3810246,1.639861,0.2232837,0.3130693,1.221532,0.06347821,0.05599606,1.75336,0.05627655,-0.2745118,1.73591,-0.1097849,0.2350257,1.749914,-0.02530681,-0.2673643,1.703696,-0.1405916,-0.03919163,1.750299,0.2541566,0.1030403,1.437814,NA,NA,NotTracked,Closed,
0.9116211,-0.3203125,0.09667969,-0.3959961,0.578125,0.7949219,-3,-2,1,-1,1,-2,0,-3,-4,-6,-4,-3,-1,-11,-4,-4,4.75,4.75,4.75,8.5,8.5,8.5,2.852225,3.045054,6.547669,5.977385,5.515716,3.789908,-0.1188852,-0.3909878,1.640665,0.2581368,0.240105,1.208131,0.08477646,0.5304686,1.753281,-0.1672469,-0.401291,1.643417,0.2226876,0.3116952,1.224175,0.06353433,0.05570183,1.753599,0.0562881,-0.2749379,1.735794,-0.1096498,0.2350713,1.750775,-0.02517733,-0.2679088,1.703981,-0.1395584,-0.04050039,1.751414,0.2546895,0.1016436,1.437486,NA,NA,NotTracked,Closed,
0.9091797,-0.3442383,0.09619141,-0.3706055,0.5908203,0.8041992,-1,-1,-1,-1,-2,0,-2,-1,-5,-2,-5,-5,-46,-11,-1,-4,-5,-5,-5,1.8125,1.8125,1.8125,2.847557,3.039112,6.54982,5.980029,5.517558,3.792743,-0.1170728,-0.3973359,1.639426,0.2567379,0.2403512,1.208582,0.0849482,0.5303903,1.753521,-0.1659174,-0.4048911,1.63635,0.2222994,0.3164273,1.234778,0.06360628,0.05559108,1.753655,0.0563106,-0.2750716,1.735726,-0.1096403,0.2350599,1.751015,-0.02511583,-0.2680463,1.704017,-0.1399167,-0.03924439,1.751632,0.2548116,0.1014016,1.437384,NA,NA,NotTracked,Closed,
0.9487305,-0.3920898,0.09814453,-0.3779297,0.5585938,0.7841797,-2,-2,-2,-1,0,-1,1,-2,1,-1,-1,-2,9,1,3,3,-5.5,-5.5,-5.5,6.125,6.125,6.125,2.828035,3.036686,6.563295,5.983244,5.530227,3.79823,-0.1182275,-0.394717,1.640474,0.2564795,0.2393192,1.209661,0.08521218,0.5305228,1.75389,-0.1663937,-0.407574,1.638886,0.2213069,0.3144941,1.233736,0.06363996,0.0555294,1.753696,0.05630789,-0.2751788,1.735671,-0.1094709,0.2351007,1.751166,-0.02509242,-0.2681459,1.704047,-0.1396887,-0.03827816,1.751793,0.2556139,0.09921039,1.438271,NA,NA,NotTracked,Unknown,
0.9438477,-0.3095703,0.06933594,-0.3525391,0.5849609,0.7788086,-1,-3,-2,1,-2,-2,-2,-2,-5,-3,-1,-2,-7,-3,-4,-1,-23.375,-23.375,-23.375,3.9375,3.9375,3.9375,2.807904,3.033351,6.562128,5.992152,5.535842,3.801151,-0.117812,-0.3927619,1.639335,0.2556088,0.2413977,1.211388,0.08544654,0.5305087,1.754131,-0.1630246,-0.3847203,1.6362,0.2188543,0.3157353,1.24675,0.06365822,0.05549421,1.753702,0.05639395,-0.2754069,1.735585,-0.1092937,0.2351132,1.751306,-0.02498305,-0.2683286,1.70402,-0.1396368,-0.03779177,1.75189,0.2555957,0.09901354,1.438159,NA,NA,NotTracked,Unknown,
0.9462891,-0.3017578,0.05908203,-0.3398438,0.5688477,0.7548828,-1,1,-1,0,-1,-1,0,1,-2,-7,-7,-5,1,11,-3,-4,-30.25,-30.25,-30.25,1.5,1.5,1.5,2.784765,3.03047,6.552346,5.99438,5.536753,3.803123,-0.117497,-0.3917249,1.638567,0.2551323,0.2406566,1.211701,0.08563277,0.5305045,1.754447,-0.1637015,-0.4047549,1.630285,0.2198811,0.3149066,1.237139,0.06365763,0.05547374,1.753716,0.05647703,-0.2755918,1.735535,-0.1092257,0.2351277,1.7514,-0.02488064,-0.2684897,1.704016,-0.1397759,-0.03739,1.751881,0.2556347,0.09887304,1.43781,NA,NA,NotTracked,Unknown,
0.9462891,-0.2939453,0.04248047,-0.3237305,0.5595703,0.7080078,-1,-1,-1,-1,1,-2,-1,0,-7,-5,-1,-1,-1,-4,-2,-9,-29.125,-29.125,-29.125,8.5,8.5,8.5,2.749063,3.026732,6.554426,6.010029,5.534557,3.810254,-0.1181295,-0.3917123,1.635699,0.2542197,0.2396977,1.213432,0.08586589,0.5305153,1.754689,-0.1654733,-0.4056476,1.6334,0.2147575,0.3098953,1.242429,0.0638492,0.05527289,1.753839,0.05666158,-0.2759489,1.735361,-0.1090174,0.2351219,1.751587,-0.02466948,-0.2688181,1.703959,-0.1398237,-0.0367395,1.751703,0.2558577,0.09837048,1.437798,NA,NA,NotTracked,Unknown,
0.9448242,-0.3041992,0.04882813,-0.2231445,0.5244141,0.6728516,-3,-1,0,-1,-1,-2,-2,-1,-4,-1,-2,2,2,-2,-4,-1,-23.125,-23.125,-23.125,15.125,15.125,15.125,2.734158,3.025303,6.556658,6.02702,5.521363,3.813913,-0.1177293,-0.3919405,1.635796,0.2533866,0.239292,1.214416,0.08605511,0.5306156,1.754943,-0.1637578,-0.4053172,1.631033,0.2136423,0.3091412,1.241951,0.0640375,0.05514275,1.753918,0.0567769,-0.276061,1.735295,-0.1087794,0.235125,1.751635,-0.0245329,-0.2689245,1.703901,-0.1398311,-0.03642231,1.751632,0.2561617,0.09534258,1.439251,NA,NA,NotTracked,Unknown,
0.9458008,-0.3041992,0.03857422,-0.1484375,0.5161133,0.6611328,0,-2,-2,0,0,-1,-3,-1,2,-1,0,2,-1,1,-1,11,1.125,1.125,1.125,18.8125,18.8125,18.8125,2.722748,3.022125,6.557784,6.038351,5.507597,3.81551,-0.1174405,-0.3915477,1.635586,0.2532599,0.2389111,1.216348,0.08617144,0.530583,1.755091,-0.1626237,-0.3959199,1.630681,0.2185722,0.3138833,1.239941,0.06407772,0.05512861,1.753908,0.05696427,-0.2761778,1.735193,-0.1087177,0.235131,1.751658,-0.02431058,-0.2690201,1.703803,-0.1399183,-0.03586664,1.75165,0.2565816,0.09566472,1.439053,NA,NA,NotTracked,Closed,
0.9453125,-0.3027344,0.03564453,-0.01708984,0.4589844,0.5634766,-1,-1,-1,-1,-2,0,-1,-3,1,-1,0,-1,-2,0,2,1,7.25,7.25,7.25,23.5,23.5,23.5,2.725475,3.020928,6.558923,6.077136,5.443661,3.82655,-0.1171558,-0.3911844,1.636994,0.2531049,0.2367915,1.218187,0.08620973,0.530701,1.755226,-0.1638829,-0.3916438,1.635452,0.2171182,0.3080511,1.244226,0.0640857,0.05513663,1.75392,0.05700562,-0.276197,1.735211,-0.108606,0.2352045,1.75169,-0.02425766,-0.2690358,1.703827,-0.1399352,-0.03486857,1.75167,0.257363,0.09540861,1.439238,NA,NA,NotTracked,Closed,
0.9453125,-0.3022461,0.04931641,0.07226563,0.4038086,0.4941406,-3,0,-1,-1,-2,0,0,-1,2,-1,-1,0,0,-1,0,-11,13.5625,13.5625,13.5625,41.0625,41.0625,41.0625,2.743524,3.019227,6.554788,6.101864,5.410487,3.835104,-0.1172031,-0.3913346,1.636732,0.2532687,0.2299817,1.217142,0.08620837,0.5306963,1.755222,-0.1642153,-0.4265197,1.621444,0.2101401,0.2980704,1.248,0.06408507,0.05513386,1.753905,0.05709283,-0.276245,1.735167,-0.1085517,0.2351608,1.751633,-0.02415236,-0.2690879,1.70376,-0.1399282,-0.03495279,1.75158,0.2590707,0.07173108,1.465668,NA,NA,NotTracked,Unknown,
0.9453125,-0.3022461,0.04931641,0.07226563,0.4038086,0.4941406,-3,0,-1,-1,-2,0,0,-1,2,-1,-1,0,0,-1,0,-11,13.5625,13.5625,13.5625,41.0625,41.0625,41.0625,2.743524,3.019227,6.554788,6.101864,5.410487,3.835104,-0.1173136,-0.3918769,1.63864,0.2524231,0.2175309,1.219008,0.08623899,0.5307345,1.755323,-0.1675466,-0.4095159,1.639333,0.2134134,0.2782834,1.239545,0.06415816,0.05512097,1.753998,0.05721058,-0.2762246,1.735257,-0.1084754,0.2352036,1.751661,-0.02400931,-0.2690576,1.703839,-0.1399542,-0.03480874,1.751591,0.2675105,0.05897705,1.462227,NA,NA,NotTracked,Unknown,
0.9379883,-0.3173828,0.07519531,0.02490234,0.6269531,0.6455078,-1,-5,-3,0,-1,0,-1,-1,0,-10,-12,-5,1,-1,0,27,12.25,12.25,12.25,59.5,59.5,59.5,2.780526,3.016436,6.540758,6.221011,5.250837,3.865965,-0.1169977,-0.3916425,1.638687,0.2490374,0.1976973,1.218088,0.08615198,0.530842,1.755325,-0.1672982,-0.4071196,1.6426,0.2036069,0.2443932,1.2267,0.06416661,0.05513209,1.754,0.05726939,-0.2762021,1.735261,-0.1084944,0.2351889,1.751653,-0.02391702,-0.2690242,1.703853,-0.1400241,-0.03469258,1.75149,0.2667746,0.0695387,1.45534,NA,NA,NotTracked,Closed,
0.9477539,-0.3120117,0.07958984,-0.006347656,0.590332,0.5488281,-3,-2,-1,-1,0,-1,-1,0,-3,-5,-15,-7,-2,0,-1,-17,1.75,1.75,1.75,38.1875,38.1875,38.1875,2.776216,3.009926,6.55093,6.268715,5.096925,3.889325,-0.1171737,-0.3926558,1.638076,0.2462145,0.1641488,1.218977,0.08600566,0.5308518,1.75533,-0.1655845,-0.4116629,1.633901,0.1998924,0.2128711,1.217286,0.06418011,0.05512285,1.753976,0.0572891,-0.2762114,1.735257,-0.1085287,0.2351824,1.751542,-0.02385954,-0.2690549,1.703853,-0.1400665,-0.03471706,1.751345,0.2689892,0.03749878,1.479046,NA,NA,NotTracked,Closed,
0.9418945,-0.2895508,0.05322266,0.06494141,0.7109375,0.769043,-3,-2,-2,-2,0,0,-2,-1,2,4,8,6,9,2,0,16,8.75,8.75,8.75,38.3125,38.3125,38.3125,2.764712,3.003589,6.569779,6.308592,4.896066,3.907297,-0.1173299,-0.3921724,1.639627,0.2423349,0.1209246,1.222178,0.08551073,0.5308316,1.755338,-0.1646246,-0.4014416,1.641053,0.2051257,0.1790648,1.230857,0.06418119,0.05511894,1.753971,0.05730131,-0.2762276,1.73528,-0.1085847,0.2351904,1.751534,-0.02380991,-0.2691093,1.7039,-0.1400657,-0.03472906,1.751299,0.2632235,0.01576583,1.550712,NA,NA,NotTracked,Closed,
0.9604492,-0.3291016,0.08789063,0.2177734,0.8144531,0.734375,1,0,-3,-1,-1,0,-2,-2,2,-3,-3,0,-4,0,-1,-8,8.1875,8.1875,8.1875,65.25,65.25,65.25,2.780707,3.003507,6.564274,6.369678,4.666923,3.914972,-0.1173599,-0.3923626,1.640051,0.2360004,0.07088007,1.224551,0.08505369,0.5308993,1.755299,-0.1629773,-0.3854604,1.641286,0.2058789,0.1191567,1.218,0.0641536,0.05512933,1.753935,0.05729893,-0.2762254,1.735283,-0.1087544,0.2351743,1.751462,-0.02380194,-0.2691248,1.70391,-0.1400891,-0.03484931,1.751275,0.2433565,-0.005451018,1.640191,NA,NA,NotTracked,Closed,
0.9604492,-0.3291016,0.08789063,0.3896484,0.9487305,0.7363281,-1,2,-2,-1,0,0,-2,-2,3,12,-1,2,0,0,1,2,8.1875,8.1875,8.1875,41.625,41.625,41.625,2.780707,3.003507,6.564274,6.41874,4.4236,3.935585,-0.1174087,-0.3925835,1.640546,0.2237717,-0.05654048,1.232461,0.08301281,0.5316842,1.755796,-0.1628474,-0.3902975,1.638412,0.1770605,-0.03410188,1.220571,0.0639955,0.05525082,1.75367,0.05728138,-0.2762058,1.735305,-0.109365,0.2351878,1.750891,-0.0237845,-0.2691543,1.703886,-0.1400936,-0.03490649,1.751251,0.2617248,0.01554584,1.660868,NA,NA,NotTracked,Unknown,
0.9584961,-0.3027344,0.06591797,0.4101563,0.9047852,0.7270508,2,0,-1,-2,-2,-3,-1,-1,-2,0,4,-5,-3,0,-2,-9,0.5,0.5,0.5,50.1875,50.1875,50.1875,2.776539,2.997359,6.576188,6.467021,4.193101,3.951493,-0.1175504,-0.3924508,1.640013,0.2263163,-0.1228807,1.253716,0.08209766,0.5319245,1.755806,-0.1652838,-0.4015482,1.640797,0.1734293,-0.1250554,1.228572,0.06389534,0.05530535,1.753388,0.05724008,-0.2761945,1.735297,-0.109391,0.2351994,1.75049,-0.02381345,-0.2691526,1.703833,-0.1401872,-0.03454903,1.751127,0.2612928,-0.04384131,1.633999,NA,NA,NotTracked,Unknown,
0.9555664,-0.3081055,0.06542969,0.5708008,0.9111328,0.590332,-1,0,-2,0,-2,-1,-2,-1,0,-1,-6,-3,-1,0,1,2,-5.3125,-5.3125,-5.3125,45.4375,45.4375,45.4375,2.761654,2.996087,6.589022,6.509953,3.965304,3.96627,-0.1174737,-0.39149,1.639727,0.2308462,-0.1830128,1.291302,0.08131175,0.5321604,1.755565,-0.1653758,-0.4074944,1.635846,0.1818157,-0.2048714,1.2544,0.06374121,0.05540896,1.752888,0.05717759,-0.2761472,1.73524,-0.1095733,0.2352258,1.749953,-0.02386952,-0.2691012,1.703688,-0.1401065,-0.03480108,1.750948,0.2605713,0.005089284,1.678239,NA,NA,NotTracked,Unknown,
0.9433594,-0.2929688,0.03173828,0.6503906,0.8378906,0.6625977,-2,-1,-1,-2,-1,-1,0,0,0,0,2,1,-2,-1,8,-1,-5.125,-5.125,-5.125,28.4375,28.4375,28.4375,2.705971,2.994529,6.636099,6.544182,3.756234,3.967278,-0.1175601,-0.39197,1.639847,0.2338315,-0.2376765,1.335582,0.08079664,0.5323231,1.755281,-0.1666574,-0.4159589,1.6408,0.2100089,-0.2714391,1.323417,0.06363931,0.05547339,1.752359,0.05717563,-0.276148,1.735228,-0.1099478,0.2355048,1.749418,-0.02387328,-0.2691011,1.703567,-0.1400883,-0.03523648,1.750745,0.2624664,-0.0006320594,1.679247,NA,NA,NotTracked,Unknown,
0.9555664,-0.3017578,0.04296875,0.7700195,0.7553711,0.4941406,0,-2,-2,-3,-1,0,-2,-1,-9,-3,1,2,-3,-1,-2,5,-14.125,-14.125,-14.125,23.5,23.5,23.5,2.67838,2.987825,6.648862,6.581831,3.568027,3.955835,-0.1179013,-0.3915161,1.640835,0.2447372,-0.3135968,1.426242,0.08019176,0.5324891,1.754756,-0.1653993,-0.4127571,1.63275,0.2107871,-0.3313655,1.426333,0.06382769,0.05555457,1.751246,0.05743303,-0.276195,1.735255,-0.1097445,0.235699,1.747356,-0.02351529,-0.2691605,1.703308,-0.1375123,-0.04647112,1.750132,0.2675293,-0.01846023,1.688027,NA,NA,NotTracked,Unknown,
0.9570313,-0.3017578,0.04833984,0.7958984,0.6303711,0.4414063,-2,-2,-3,1,-1,0,-2,0,2,-1,-1,1,1,0,-1,11,-16.25,-16.25,-16.25,17.3125,17.3125,17.3125,2.653028,2.981956,6.657302,6.611938,3.410043,3.939108,-0.1179348,-0.3921941,1.640667,0.2436322,-0.3468373,1.47207,0.07999463,0.5328388,1.753786,-0.1658144,-0.3910557,1.643368,0.204271,-0.4049587,1.448143,0.0639514,0.0555864,1.750584,0.05774572,-0.2762255,1.735296,-0.1097797,0.2359028,1.745451,-0.02312579,-0.2692765,1.703006,-0.1378466,-0.04615975,1.749482,0.2687903,-0.02325729,1.692661,NA,NA,NotTracked,Unknown,
0.9458008,-0.3081055,0.05419922,0.8920898,0.5063477,0.3745117,-4,0,-2,-1,-1,-1,-1,-1,-7,-2,-1,-1,0,0,-4,-59,-19.4375,-19.4375,-19.4375,42.25,42.25,42.25,2.630573,2.974768,6.660373,6.654688,3.260445,3.932502,-0.1183529,-0.3914258,1.641917,0.2523244,-0.3661143,1.499273,0.08005124,0.5329363,1.753222,-0.1661457,-0.3758095,1.64875,0.2113739,-0.385436,1.477625,0.06404144,0.05563107,1.7502,0.05822358,-0.2763117,1.735487,-0.1095979,0.2360697,1.743522,-0.02269376,-0.2694255,1.702881,-0.1382619,-0.04603831,1.748956,0.2697894,-0.02839206,1.69966,NA,NA,NotTracked,Unknown,
0.9448242,-0.2944336,0.03955078,0.9492188,0.4790039,0.3168945,0,-1,-2,-1,-2,0,-1,-1,4,4,-3,-2,-1,0,-6,-60,-24.4375,-24.4375,-24.4375,80.75,80.75,80.75,2.593806,2.966433,6.672466,6.721612,3.130188,3.946364,-0.1184304,-0.3918876,1.641616,0.2551091,-0.3843097,1.531524,0.08019724,0.5331728,1.752026,-0.1643948,-0.3988369,1.635355,0.2189095,-0.3861158,1.517566,0.06420647,0.05569755,1.749778,0.05870204,-0.2763927,1.735656,-0.1089951,0.2362367,1.741512,-0.02219772,-0.2695668,1.702658,-0.1384724,-0.04562297,1.748143,0.2704065,-0.03074971,1.704476,NA,NA,NotTracked,Unknown,
0.9614258,-0.3041992,0.04101563,0.9379883,0.4111328,0.2338867,-1,-1,-1,-1,-3,-1,1,-1,3,2,0,0,1,0,9,27,-20.625,-20.625,-20.625,90.3125,90.3125,90.3125,2.572637,2.964108,6.669279,6.756787,3.036282,4.015645,-0.1183351,-0.3921044,1.641996,0.254493,-0.3958005,1.569891,0.08070168,0.5334681,1.75081,-0.1661253,-0.3676797,1.649893,0.2170194,-0.4175147,1.545839,0.06466585,0.05582391,1.749288,0.05951956,-0.2762944,1.736058,-0.1085037,0.2365209,1.739886,-0.02148107,-0.2695181,1.702548,-0.1388531,-0.04484743,1.74692,0.2704047,-0.03185101,1.710161,NA,NA,NotTracked,Unknown,
0.9589844,-0.2724609,0.01464844,0.918457,0.4609375,0.1699219,-2,1,-1,-1,-2,-1,-1,-2,2,0,-1,0,-2,-2,-4,-5,-16.9375,-16.9375,-16.9375,28.125,28.125,28.125,2.564305,2.961819,6.657437,6.781333,2.970189,4.043819,-0.1161872,-0.402595,1.637606,0.2519887,-0.4081575,1.623527,0.08213001,0.5344914,1.748029,-0.1666649,-0.4100374,1.638211,0.1985489,-0.3777661,1.606763,0.06550405,0.05618867,1.748495,0.06103847,-0.2761739,1.736886,-0.1076552,0.2371894,1.735512,-0.02014174,-0.2695076,1.702321,-0.1393984,-0.04335479,1.744017,0.269474,-0.03266063,1.720335,NA,NA,NotTracked,NotTracked,
0.9458008,-0.2841797,0.02685547,0.9511719,0.6943359,0.08691406,-1,0,-2,-1,-2,-2,-1,0,-1,-2,0,0,-2,0,-2,4,-7.5625,-7.5625,-7.5625,-47.0625,-47.0625,-47.0625,2.586726,2.963128,6.623226,6.876088,2.94551,3.919694,-0.1157669,-0.4022724,1.636333,0.2531008,-0.4111906,1.636466,0.08299371,0.5349343,1.74656,-0.1629635,-0.4079742,1.627765,0.1983769,-0.4000109,1.610586,0.06584229,0.05628764,1.748273,0.0617433,-0.2762078,1.737369,-0.1067006,0.2373584,1.733103,-0.0195367,-0.2696007,1.702269,-0.1397088,-0.04288207,1.742372,0.2683892,-0.04052374,1.727458,NA,NA,NotTracked,NotTracked,
0.9760742,-0.2592773,0.01855469,0.9555664,0.4082031,0.1889648,-1,2,-2,1,-1,0,-1,-1,-3,1,0,-2,0,4,-4,-1,-3.0625,-3.0625,-3.0625,-178.5,-178.5,-178.5,2.624414,2.963783,6.581926,6.799324,2.955658,3.828174,-0.1157383,-0.402554,1.635086,0.2531387,-0.4132735,1.64029,0.08409473,0.5351949,1.744567,-0.1621571,-0.4075501,1.628171,0.2014478,-0.3805652,1.613127,0.06638432,0.05653247,1.74783,0.0624423,-0.2760792,1.737652,-0.1063056,0.2374265,1.731012,-0.01883974,-0.2695499,1.702165,-0.1397751,-0.04276085,1.740697,0.2669344,-0.0429059,1.731204,NA,NA,NotTracked,NotTracked,
0.9580078,-0.2421875,0.02246094,0.909668,0.1547852,0.1337891,-3,0,-2,-2,2,-1,-2,-3,1,-1,-1,-1,-1,-1,-3,4,-8.1875,-8.1875,-8.1875,-47.9375,-47.9375,-47.9375,2.65063,2.960326,6.548671,6.816387,2.956774,3.698458,-0.115473,-0.4021229,1.635883,0.2548608,-0.3952224,1.646141,0.0846412,0.5349778,1.743925,-0.1631939,-0.4130026,1.628608,0.2035765,-0.3802701,1.614872,0.06666909,0.05655998,1.747705,0.06337821,-0.276055,1.738481,-0.1058913,0.237386,1.72966,-0.01810937,-0.2694929,1.702334,-0.1400945,-0.04163018,1.739268,0.2654395,-0.04407237,1.734287,NA,NA,NotTracked,NotTracked,
0.9487305,-0.2426758,0.01953125,0.9208984,0.3017578,0.06347656,3,-2,0,0,0,-3,-2,-1,-1,0,-1,0,-2,0,-3,-1,-11.6875,-11.6875,-11.6875,10.5,10.5,10.5,2.655432,2.955472,6.532115,6.941364,2.966032,3.573003,-0.1155395,-0.4017982,1.634494,0.2543642,-0.3928287,1.644323,0.08558336,0.534939,1.742054,-0.1654828,-0.4142419,1.631753,0.2032602,-0.4010652,1.6143,0.06711052,0.05664692,1.747303,0.06383054,-0.2760263,1.738788,-0.1050871,0.2371901,1.727663,-0.01768954,-0.2694884,1.70232,-0.1402517,-0.04167519,1.737982,0.2641499,-0.04501005,1.736459,NA,NA,NotTracked,NotTracked,
0.9462891,-0.2612305,0.03320313,0.9165039,0.2998047,0.07910156,-4,-1,0,-1,-1,-1,-2,0,-1,0,-2,-1,-2,-2,0,-1,-14.75,-14.75,-14.75,15.625,15.625,15.625,2.654591,2.948263,6.516411,6.981067,2.979334,3.548239,-0.1146907,-0.3990327,1.636249,0.2525404,-0.391094,1.641915,0.08644905,0.5350319,1.740274,-0.1640877,-0.4146611,1.629617,0.2030397,-0.3703164,1.61488,0.06772064,0.05674004,1.747101,0.06501161,-0.2760718,1.739775,-0.1039083,0.2373865,1.724692,-0.01662509,-0.2695166,1.702407,-0.1403246,-0.0411177,1.736428,0.2618409,-0.04321669,1.740329,NA,NA,NotTracked,NotTracked,
0.9663086,-0.2680664,0.03271484,0.940918,0.3081055,0.1186523,-1,-3,-1,-2,0,0,-2,-3,0,-2,-3,0,1,1,-1,0,-14.375,-14.375,-14.375,25.875,25.875,25.875,2.650146,2.941325,6.504054,6.9805,2.997274,3.575553,-0.1144877,-0.3991595,1.636037,0.2479124,-0.4096353,1.634343,0.08678379,0.5350518,1.739486,-0.1618294,-0.3981734,1.633483,0.2610656,-0.4252753,1.582608,0.06795929,0.05681797,1.746896,0.0654281,-0.2759957,1.740044,-0.1034836,0.2375003,1.723473,-0.0161509,-0.2694567,1.702342,-0.1406026,-0.04030597,1.734932,0.261266,-0.04336343,1.741791,NA,NA,NotTracked,NotTracked,
0.9682617,-0.2675781,0.02001953,0.9296875,0.3085938,0.1308594,-1,-3,-1,0,-1,-2,-1,0,0,-1,0,1,-2,0,-1,0,-0.4375,-0.4375,-0.4375,33.5,33.5,33.5,2.653499,2.938832,6.494773,6.985806,3.017678,3.607179,-0.1139793,-0.3990743,1.635517,0.2455652,-0.4049551,1.63136,0.08710748,0.5350369,1.738959,-0.1631982,-0.4103549,1.63021,0.2897821,-0.4107349,1.617684,0.06812499,0.05688534,1.746732,0.06577375,-0.2758948,1.74027,-0.1029727,0.2374954,1.72201,-0.01574111,-0.2694128,1.702159,-0.1406985,-0.04034515,1.73406,0.2609196,-0.04143782,1.742797,NA,NA,NotTracked,NotTracked,
0.9609375,-0.2680664,0.03125,0.8920898,0.2988281,0.1191406,-3,-3,-2,0,0,-1,-1,-2,1,-1,-1,0,-1,-3,-1,1,12.875,12.875,12.875,31.4375,31.4375,31.4375,2.697031,2.943355,6.46159,7.008499,3.031488,3.620281,-0.1138714,-0.3996825,1.635383,0.2438593,-0.4024319,1.629241,0.08739076,0.535025,1.738452,-0.1600832,-0.3977606,1.629915,0.2889317,-0.4209779,1.615247,0.06826412,0.05693509,1.746586,0.06600083,-0.2758401,1.740425,-0.1027932,0.2377072,1.721034,-0.01550769,-0.269398,1.702087,-0.1406692,-0.04012968,1.733377,0.2605538,-0.04029196,1.743818,NA,NA,NotTracked,NotTracked,
0.9501953,-0.2563477,0.04785156,0.8959961,0.3081055,0.09716797,-2,-1,-1,0,-3,-2,0,-1,1,-1,-1,-2,-1,0,-2,-2,9.75,9.75,9.75,31.125,31.125,31.125,2.740278,2.946227,6.429245,7.058709,3.034599,3.603628,-0.1142573,-0.3991995,1.635527,0.2411039,-0.3983605,1.628595,0.08752391,0.5350165,1.737895,-0.1608485,-0.3846212,1.634977,0.2855615,-0.3999972,1.618273,0.06835166,0.05698029,1.746532,0.06632547,-0.2757298,1.740698,-0.1027547,0.2376837,1.720551,-0.01523599,-0.2693465,1.702057,-0.1406943,-0.0401415,1.733187,0.260591,-0.04072434,1.744572,NA,NA,NotTracked,NotTracked,
0.9624023,-0.2597656,0.04980469,0.9033203,0.324707,0.06298828,1,-2,0,-1,-1,-1,-2,-1,-1,0,-1,0,-2,0,-2,0,3.6875,3.6875,3.6875,21.8125,21.8125,21.8125,2.756993,2.948871,6.421253,7.11131,3.033386,3.57744,-0.1145705,-0.3991203,1.634229,0.2385539,-0.3974417,1.624707,0.08755863,0.5351507,1.73717,-0.1629035,-0.3975051,1.635394,0.283719,-0.3988065,1.620087,0.06845506,0.05701904,1.746322,0.0666132,-0.2756366,1.740926,-0.1026314,0.2376672,1.719956,-0.01496611,-0.2693113,1.702038,-0.1408244,-0.03987201,1.732411,0.2605857,-0.04112038,1.744941,NA,NA,NotTracked,NotTracked,
0.9736328,-0.2583008,0.04394531,0.9204102,0.3139648,0.05371094,-3,0,-1,-2,-1,-1,-1,0,-2,0,-1,-1,-2,-2,-2,-2,3.1875,3.1875,3.1875,8.4375,8.4375,8.4375,2.752034,2.949013,6.428328,7.136831,3.029662,3.564497,-0.1145839,-0.3992555,1.63464,0.2374072,-0.3975194,1.623406,0.08754772,0.5350986,1.736775,-0.164086,-0.4170268,1.631818,0.2821366,-0.4063731,1.614091,0.06848568,0.05699718,1.746273,0.06674631,-0.2756507,1.741004,-0.1026249,0.2375833,1.719777,-0.014836,-0.2693424,1.702014,-0.1408775,-0.03975809,1.732193,0.2605225,-0.04121764,1.745111,NA,NA,NotTracked,NotTracked,
0.9658203,-0.269043,0.04345703,0.9208984,0.3046875,0.05810547,0,-4,-1,1,-1,0,2,0,-1,-1,1,0,1,0,-2,0,4.5,4.5,4.5,-0.5,-0.5,-0.5,2.739274,2.950927,6.446276,7.132413,3.024394,3.571573,-0.1144952,-0.3991355,1.635523,0.2373206,-0.3978605,1.624151,0.08749456,0.5350634,1.736581,-0.1626761,-0.393431,1.641706,0.2852021,-0.4041981,1.623855,0.0684997,0.05700268,1.74626,0.06686938,-0.2755905,1.741111,-0.1026389,0.2375566,1.719758,-0.01472269,-0.2693273,1.702042,-0.1409584,-0.0396632,1.731999,0.2606216,-0.03972879,1.745036,NA,NA,NotTracked,NotTracked,
0.956543,-0.2709961,0.04589844,0.9213867,0.2905273,0.07275391,-1,-4,0,-1,-1,-1,-1,-1,-2,0,-3,0,0,-2,0,1,11.0625,11.0625,11.0625,-6.875,-6.875,-6.875,2.739487,2.955021,6.45708,7.107184,3.018458,3.591964,-0.1142216,-0.3991033,1.635641,0.2363865,-0.4012952,1.623578,0.087438,0.5350753,1.736281,-0.1623333,-0.4013818,1.634994,0.283203,-0.4170788,1.6098,0.06850337,0.05700458,1.746253,0.06692524,-0.2755706,1.741192,-0.1026517,0.2375183,1.719693,-0.01466937,-0.2693217,1.702062,-0.1409781,-0.03962312,1.731931,0.2605758,-0.04009006,1.745174,NA,NA,NotTracked,NotTracked,
0.9516602,-0.2617188,0.04833984,0.9287109,0.2963867,0.0859375,-1,-4,-2,-1,-2,-2,-2,-2,0,-2,1,-1,-2,-2,-1,-1,13,13,13,-7.1875,-7.1875,-7.1875,2.759169,2.957112,6.452267,7.081289,3.011149,3.610652,-0.1135742,-0.3994379,1.636165,0.2375284,-0.3995638,1.625281,0.08734253,0.5350279,1.736202,-0.1626706,-0.4136018,1.6365,0.2873409,-0.4108857,1.622485,0.0685144,0.05700392,1.746247,0.06698082,-0.2755548,1.7413,-0.1026808,0.2375228,1.719701,-0.01460898,-0.2693184,1.702122,-0.1410331,-0.03933219,1.731881,0.2606688,-0.03854067,1.744914,NA,NA,NotTracked,NotTracked,
0.9550781,-0.2758789,0.06738281,0.934082,0.2851563,0.08300781,0,-2,0,-2,-2,-2,-1,-2,-1,0,-1,0,-2,-2,-1,-3,2.4375,2.4375,2.4375,-6.375,-6.375,-6.375,2.774452,2.955011,6.442836,7.064338,3.00333,3.620897,-0.1133596,-0.3990447,1.635041,0.2399513,-0.4000593,1.626644,0.08723602,0.5348933,1.735717,-0.1613334,-0.3918484,1.634,0.28946,-0.3839682,1.626367,0.06856174,0.05699097,1.74618,0.06716745,-0.2755325,1.741416,-0.1027564,0.2375089,1.719638,-0.01435812,-0.2693287,1.702166,-0.1411228,-0.03899574,1.731637,0.2608409,-0.03992786,1.744995,NA,NA,NotTracked,NotTracked,
0.9584961,-0.2895508,0.07324219,0.9389648,0.2792969,0.08251953,-2,-3,-1,-1,-1,0,-2,0,0,1,-1,0,-1,0,-2,-2,0.125,0.125,0.125,-5.0625,-5.0625,-5.0625,2.779414,2.954288,6.438046,7.052402,2.995709,3.626936,-0.1132857,-0.3987596,1.637269,0.2401794,-0.4009348,1.627884,0.08718633,0.5349051,1.735534,-0.1619927,-0.3954921,1.636891,0.2886955,-0.3944567,1.623097,0.06856955,0.05700093,1.746157,0.06719344,-0.2755225,1.741427,-0.1027604,0.2375052,1.719643,-0.0143219,-0.2693232,1.702134,-0.1410909,-0.03892541,1.731662,0.260967,-0.04069411,1.744831,NA,NA,NotTracked,NotTracked,
0.9560547,-0.2753906,0.05615234,0.9326172,0.2783203,0.08935547,1,0,0,-2,-2,-2,-1,0,-1,-1,-2,-1,-1,-1,1,0,-2.5,-2.5,-2.5,0.0625,0.0625,0.0625,2.777569,2.954173,6.438587,7.054201,2.990674,3.621731,-0.113208,-0.3992866,1.63762,0.2414943,-0.4011111,1.630089,0.08715255,0.5349444,1.735484,-0.161731,-0.3946663,1.64046,0.2908662,-0.4036804,1.62675,0.06857655,0.05701022,1.746154,0.06721216,-0.2754728,1.741522,-0.1027883,0.237554,1.719656,-0.01428925,-0.2692815,1.702194,-0.1411143,-0.03888617,1.731724,0.260955,-0.04124148,1.744814,NA,NA,NotTracked,NotTracked,
0.9550781,-0.2788086,0.05957031,0.9262695,0.2880859,0.08056641,-1,-3,0,-2,0,-1,-3,-1,-1,-2,-1,-1,1,1,1,-1,-3.75,-3.75,-3.75,0.8125,0.8125,0.8125,2.774575,2.953969,6.439537,7.059643,2.991274,3.616437,-0.1125907,-0.3993008,1.637087,0.2421912,-0.4022115,1.63043,0.08703078,0.5349227,1.735388,-0.1615532,-0.4189374,1.626636,0.2921279,-0.4197293,1.624333,0.06859587,0.05704347,1.746148,0.06728564,-0.275438,1.741616,-0.1027911,0.2375543,1.719659,-0.01421071,-0.2692504,1.702257,-0.1411138,-0.03888548,1.731729,0.2609349,-0.04140745,1.744806,NA,NA,NotTracked,NotTracked,
0.9536133,-0.2807617,0.05761719,0.9311523,0.28125,0.08984375,0,0,-3,-1,-1,-2,-2,-2,-1,-2,0,-1,0,0,-2,0,-4.9375,-4.9375,-4.9375,2.875,2.875,2.875,2.77271,2.952684,6.436729,7.072193,2.992905,3.605745,-0.1129969,-0.3990963,1.636456,0.2424521,-0.4020331,1.6299,0.08702365,0.5349326,1.735359,-0.1615711,-0.39582,1.64032,0.2910223,-0.402505,1.626169,0.06865864,0.05707476,1.746112,0.06739535,-0.2753944,1.741636,-0.1027929,0.2375627,1.71965,-0.01405847,-0.2692142,1.702254,-0.1411095,-0.03885276,1.731718,0.2609845,-0.04163278,1.74465,NA,NA,NotTracked,NotTracked,
0.9536133,-0.2788086,0.06005859,0.9248047,0.2905273,0.06787109,0,1,-1,0,-1,-1,0,-3,0,0,-1,0,-1,0,1,0,-4.8125,-4.8125,-4.8125,6.0625,6.0625,6.0625,2.773248,2.951908,6.433681,7.105248,2.993573,3.581951,-0.1121434,-0.3989769,1.636713,0.2425165,-0.4043175,1.629266,0.08693156,0.5350014,1.735276,-0.1587874,-0.3972327,1.629161,0.292177,-0.3948591,1.626167,0.06866896,0.05712499,1.746096,0.06750108,-0.2753372,1.741714,-0.1027906,0.2375596,1.719586,-0.01393051,-0.2691921,1.702275,-0.141156,-0.03919241,1.731709,0.261032,-0.04132959,1.744363,NA,NA,NotTracked,NotTracked,
