ALX,ALY,ALZ,ARX,ARY,ARZ,EMG0L,EMG1L,EMG2L,EMG3L,EMG4L,EMG5L,EMG6L,EMG7L,EMG0R,EMG1R,EMG2R,EMG3R,EMG4R,EMG5R,EMG6R,EMG7R,GLX,GLY,GLZ,GRX,GRY,GRZ,ORL,OPL,OYL,ORR,OPR,OYR,LHNX,LHNY,LHNZ,RHNX,RHNY,RHNZ,HX,HY,HZ,LTX,LTY,LTZ,RTX,RTY,RTZ,SpineMidX,SpineMidY,SpineMidZ,SpineBaseX,SpineBaseY,SpineBaseZ,ShoulderLeftX,ShoulderLeftY,ShoulderLeftZ,ShoulderRightX,ShoulderRightY,ShoulderRightZ,ElbowLeftX,ElbowLeftY,ElbowLeftZ,ElbowRightX,ElbowRightY,ElbowRightZ,Myo_Pose_left,Myo_Pose_Right,Kinect_pose_left,Kinect_pose_right
0.9443359,-0.3198242,0.05566406,0.9125977,0.3222656,0.06054688,-2,-1,-1,-1,-2,0,-2,-1,-3,-2,-1,-1,0,-2,0,1,1.875,1.875,1.875,0.4375,0.4375,0.4375,2.708336,3.028188,9.109724,7.206302,3.044937,2.342855,-0.1233897,-0.400286,1.631659,0.2333009,-0.4005451,1.62087,0.0759858,0.5221518,1.710474,-0.1706673,-0.4231839,1.629787,0.1818806,-0.3735096,1.603138,0.05717444,0.05244165,1.743415,0.05962349,-0.275489,1.738088,-0.1163028,0.2345159,1.721814,-0.02180741,-0.2695805,1.696644,-0.151765,-0.02361718,1.724935,0.252073,-0.03213712,1.737983,NA,NA,NotTracked,NotTracked,
0.9433594,-0.3188477,0.05615234,0.9213867,0.3222656,0.06494141,-1,-2,0,-1,-2,-1,0,0,0,-1,-1,0,-1,-1,0,-1,0.375,0.375,0.375,0.0625,0.0625,0.0625,2.71109,3.028316,9.107744,7.206305,3.04454,2.342867,-0.1231687,-0.4000778,1.631837,0.2329898,-0.4026166,1.620256,0.0759453,0.5222109,1.710374,-0.1708078,-0.4059685,1.634227,0.1834584,-0.3566946,1.602154,0.05717617,0.05246381,1.743394,0.05963642,-0.2754857,1.738079,-0.1162889,0.234547,1.721743,-0.02179232,-0.2695909,1.696627,-0.1518765,-0.02372377,1.724771,0.2520507,-0.03185548,1.737899,NA,NA,NotTracked,NotTracked,
0.9399414,-0.3164063,0.05224609,0.9155273,0.3222656,0.06347656,-1,0,-1,0,-1,0,-1,-2,-2,-1,-1,-1,0,0,-1,-1,-0.75,-0.75,-0.75,0.8125,0.8125,0.8125,2.711902,3.028257,9.106959,7.205503,3.044943,2.343654,-0.1233009,-0.4003472,1.631521,0.2322031,-0.4039035,1.620316,0.07594651,0.5222108,1.710258,-0.1714983,-0.4026919,1.636667,0.1819567,-0.3663877,1.602249,0.05717266,0.05248072,1.743366,0.05967188,-0.275455,1.738078,-0.1162624,0.2345828,1.721673,-0.02176401,-0.2695702,1.696629,-0.1518253,-0.02365763,1.724645,0.2520493,-0.03166224,1.737763,NA,NA,NotTracked,NotTracked,
0.9423828,-0.3188477,0.05712891,0.9228516,0.3217773,0.06738281,-2,0,-1,-1,-2,-1,-1,-1,0,0,-1,-1,-1,-1,0,-2,-0.625,-0.625,-0.625,-0.4375,-0.4375,-0.4375,2.712714,3.028198,9.106174,7.205505,3.044546,2.343667,-0.1231471,-0.3996963,1.631394,0.2315898,-0.4054608,1.619491,0.07590183,0.5222709,1.710172,-0.1732908,-0.4209977,1.6363,0.1805947,-0.3624764,1.602015,0.05716289,0.05250639,1.743279,0.0596928,-0.2754372,1.738051,-0.1162696,0.2346297,1.721528,-0.02173851,-0.2695515,1.696585,-0.1518113,-0.02378891,1.724581,0.2520835,-0.03122674,1.737584,NA,NA,NotTracked,NotTracked,
0.9467773,-0.3154297,0.05664063,0.9189453,0.3217773,0.06201172,-2,-3,-1,-1,0,-1,-3,1,-1,0,-1,0,-1,-1,1,0,-0.125,-0.125,-0.125,0.125,0.125,0.125,2.714266,3.028297,9.104883,7.204703,3.044949,2.344454,-0.1241316,-0.4006245,1.631534,0.2338913,-0.3976802,1.621347,0.07586049,0.5222944,1.710038,-0.1737805,-0.4016972,1.639067,0.1810175,-0.3821452,1.603182,0.05716386,0.05251137,1.743206,0.05968506,-0.2754281,1.738025,-0.1163434,0.2346684,1.721341,-0.02174748,-0.2695469,1.696568,-0.1518133,-0.02328092,1.724536,0.2519711,-0.030737,1.737432,NA,NA,NotTracked,NotTracked,
0.9428711,-0.3134766,0.0546875,0.9169922,0.324707,0.06787109,-1,-2,-1,-1,-1,-1,-3,0,0,-1,0,-1,-2,-1,-1,-1,0.5625,0.5625,0.5625,-1.25,-1.25,-1.25,2.715079,3.028239,9.104097,7.204094,3.045275,2.344352,-0.1234162,-0.3995383,1.630455,0.233588,-0.3963532,1.621412,0.07580233,0.5223122,1.709972,-0.1678923,-0.4119044,1.623105,0.1802189,-0.3884268,1.602739,0.05717137,0.05252299,1.743165,0.05971408,-0.2754278,1.738,-0.1163088,0.2346936,1.721229,-0.02171504,-0.2695594,1.696527,-0.151819,-0.0232877,1.724511,0.2516037,-0.03403877,1.737292,NA,NA,NotTracked,NotTracked,
0.9414063,-0.3193359,0.05761719,0.918457,0.3164063,0.06689453,-1,1,-2,-3,-1,-1,0,-1,-1,-1,-1,-1,0,-1,-1,0,1.1875,1.1875,1.1875,-0.375,-0.375,-0.375,2.716969,3.028264,9.102938,7.203295,3.045281,2.34515,-0.123577,-0.400468,1.630762,0.2345888,-0.3971135,1.621434,0.07576732,0.522314,1.709842,-0.171615,-0.4118037,1.635318,0.1840219,-0.3414831,1.603125,0.05714247,0.05252033,1.743089,0.05971195,-0.2754301,1.73798,-0.116304,0.2347277,1.721128,-0.02172155,-0.2695666,1.696512,-0.1518357,-0.0233939,1.724307,0.2516391,-0.03607068,1.737013,NA,NA,NotTracked,NotTracked,
0.9458008,-0.315918,0.05810547,0.9208984,0.3256836,0.06689453,0,-1,-1,-1,-2,-1,-2,-1,-1,-1,-1,-1,-1,0,-2,0,1.6875,1.6875,1.6875,-0.6875,-0.6875,-0.6875,2.721717,3.028216,9.100219,7.203295,3.045281,2.34515,-0.123466,-0.3996953,1.631662,0.2325796,-0.4037142,1.61987,0.07571473,0.5223151,1.70976,-0.1703855,-0.3916382,1.635167,0.1820426,-0.3652019,1.602655,0.05714238,0.05252873,1.743067,0.05971337,-0.27543,1.737977,-0.1163089,0.2347322,1.721103,-0.02172124,-0.2695669,1.696511,-0.1518308,-0.02339157,1.724292,0.2516924,-0.03511001,1.736995,NA,NA,NotTracked,NotTracked,
0.9467773,-0.3188477,0.05810547,0.9238281,0.3227539,0.05859375,-2,-1,-1,-2,-1,0,-1,-1,1,0,-1,0,-2,0,0,-4,1.0625,1.0625,1.0625,-2.5625,-2.5625,-2.5625,2.725237,3.028517,9.098437,7.20183,3.045846,2.344348,-0.1236108,-0.3999081,1.629829,0.2322891,-0.4060712,1.61757,0.0756624,0.5222793,1.709595,-0.1708784,-0.4135739,1.631227,0.181802,-0.3670966,1.5988,0.05715534,0.05251234,1.742831,0.05983713,-0.2754853,1.737734,-0.11638,0.2346421,1.720894,-0.02160407,-0.2696534,1.696283,-0.1518601,-0.02363643,1.724065,0.2516393,-0.03464812,1.736789,NA,NA,NotTracked,NotTracked,
0.9384766,-0.3203125,0.05810547,0.9160156,0.3271484,0.0703125,-2,-2,-1,1,-3,-2,-2,-2,-1,2,2,-2,-1,-1,-1,-1,0.375,0.375,0.375,-3,-3,-3,2.725237,3.028517,9.098437,7.198668,3.047438,2.344233,-0.1241306,-0.3999847,1.630755,0.2333938,-0.4009048,1.619434,0.07559171,0.5222964,1.709276,-0.172031,-0.395558,1.633958,0.1811364,-0.3753756,1.602123,0.05714149,0.05252155,1.742696,0.05984091,-0.2754799,1.737614,-0.1164409,0.2346495,1.720743,-0.02161011,-0.2696573,1.696209,-0.1519545,-0.02362091,1.723886,0.2515447,-0.03396341,1.736647,NA,NA,NotTracked,NotTracked,
0.925293,-0.3212891,0.06494141,0.9267578,0.3237305,0.009765625,-2,0,-2,-1,0,0,-3,-1,-1,-1,-5,0,2,1,-1,0,1.625,1.625,1.625,-8.3125,-8.3125,-8.3125,2.732538,3.02994,9.09284,7.188729,3.052974,2.348533,-0.1236658,-0.4000843,1.631146,0.2330162,-0.4009637,1.620062,0.07555829,0.5223306,1.709228,-0.1707447,-0.3942538,1.631812,0.1804259,-0.3769044,1.601391,0.05711227,0.0525335,1.742652,0.05983617,-0.275465,1.737605,-0.1164299,0.2346737,1.72068,-0.02161223,-0.2696492,1.696204,-0.1520014,-0.02375161,1.723733,0.2515278,-0.03322865,1.736676,NA,NA,NotTracked,NotTracked,
0.9487305,-0.3217773,0.06640625,1.076172,0.3764648,-0.06591797,1,-3,-1,-2,-2,-2,0,0,3,-4,-8,-16,-9,-9,-2,1,0.6875,0.6875,0.6875,-40,-40,-40,2.738042,3.031136,9.088835,7.088202,3.085374,2.425875,-0.1235907,-0.4000446,1.629067,0.2312507,-0.4031503,1.617707,0.07551499,0.5223948,1.709064,-0.1709083,-0.4130885,1.628,0.1807453,-0.4071477,1.604667,0.05706247,0.05257201,1.742489,0.05980771,-0.275449,1.737486,-0.1164497,0.2347021,1.720619,-0.02164005,-0.2696488,1.696097,-0.1519651,-0.02378036,1.72338,0.2515443,-0.03302088,1.736626,NA,NA,NotTracked,NotTracked,
0.9360352,-0.3271484,0.06542969,1.338379,0.3017578,0.1708984,-1,-2,-1,0,-1,0,0,-1,1,56,8,9,57,24,-3,-7,-0.75,-0.75,-0.75,-35.3125,-35.3125,-35.3125,2.737337,3.031919,9.089272,6.672108,3.268721,2.745433,-0.1233107,-0.3999113,1.629764,0.2299173,-0.402917,1.615224,0.07541545,0.5224164,1.709012,-0.1704176,-0.3960652,1.630402,0.1804354,-0.3531176,1.600531,0.05701561,0.05256025,1.742448,0.05975919,-0.2754812,1.73743,-0.1164713,0.2347013,1.720566,-0.02170997,-0.2697019,1.69601,-0.1520463,-0.02381679,1.723284,0.25161,-0.0330398,1.736676,NA,NA,NotTracked,NotTracked,
0.9521484,-0.3212891,0.04931641,1.363281,0.3632813,0.3134766,-1,1,-2,-1,0,-3,-2,-1,-7,-7,-33,-7,-4,-3,-4,3,8.5625,8.5625,8.5625,48.3125,48.3125,48.3125,2.748922,3.034567,9.089587,6.634069,3.364888,2.819342,-0.1230965,-0.3998615,1.62871,0.2200209,-0.362956,1.595018,0.07519834,0.5224036,1.708829,-0.1681337,-0.4184522,1.622483,0.1747261,-0.3358624,1.599683,0.05667633,0.05252289,1.741994,0.05958754,-0.2754675,1.736986,-0.1167801,0.2346604,1.720385,-0.02192428,-0.2697568,1.695462,-0.1522322,-0.02375275,1.7227,0.2536324,-0.03105395,1.738878,NA,NA,NotTracked,Unknown,
0.9482422,-0.3115234,0.04736328,0.8012695,1.065918,0.6674805,-3,8,3,-1,-2,0,-2,-2,6,-23,33,22,7,-13,3,14,14.1875,14.1875,14.1875,68.75,68.75,68.75,2.763379,3.039111,9.089464,6.645237,3.776214,2.988386,-0.1233424,-0.3998371,1.626895,0.2020266,-0.3340655,1.565534,0.07511579,0.5224453,1.708698,-0.1709278,-0.4095175,1.627031,0.1863496,-0.3475469,1.500257,0.05625311,0.05262443,1.741543,0.05892254,-0.2753614,1.736351,-0.1170926,0.2346516,1.720277,-0.02286459,-0.269497,1.694757,-0.1523226,-0.02407682,1.722403,0.256824,-0.0266567,1.742336,NA,NA,NotTracked,Unknown,
0.9355469,-0.3164063,0.06005859,0.3051758,1.032715,0.5117188,-1,-6,-15,-1,-1,-1,-2,-2,-15,-13,-60,-6,14,15,7,0,13.625,13.625,13.625,-9.0625,-9.0625,-9.0625,2.774045,3.041712,9.086195,6.617573,4.14233,3.055396,-0.123364,-0.399446,1.627165,0.1943586,-0.2682291,1.545893,0.07492112,0.5225194,1.708681,-0.1692064,-0.4372183,1.621667,0.2178465,-0.2654112,1.492535,0.05536787,0.05271834,1.741113,0.05674028,-0.2751637,1.735489,-0.1172493,0.2346458,1.720205,-0.02584089,-0.2684163,1.693493,-0.1525755,-0.02234846,1.722235,0.2609092,-0.01943035,1.748729,NA,NA,NotTracked,Unknown,
0.9243164,-0.328125,0.07714844,-0.02929688,0.8657227,0.5288086,0,1,3,-1,-2,-2,0,-1,-18,-11,-14,-23,-20,-64,-9,-8,-12.4375,-12.4375,-12.4375,-11.9375,-11.9375,-11.9375,2.785526,3.044944,9.071095,6.580201,4.556159,3.100475,-0.1238388,-0.3977754,1.627813,0.1619719,-0.2135938,1.536959,0.07476672,0.5224953,1.708642,-0.1711841,-0.3863267,1.629633,0.1710071,-0.1919044,1.464281,0.05453565,0.05268101,1.740835,0.05493564,-0.2754097,1.734896,-0.1172793,0.2345327,1.720147,-0.0276552,-0.2679506,1.692769,-0.1525503,-0.02253628,1.722122,0.2692682,-0.002298143,1.751012,NA,NA,NotTracked,Open,
0.9301758,-0.331543,0.08056641,-0.375,0.7978516,0.3666992,0,4,-7,-2,-2,-1,-1,0,-28,10,11,8,4,-13,-2,13,-20.9375,-20.9375,-20.9375,34.4375,34.4375,34.4375,2.778082,3.042874,9.06687,6.601531,4.991258,3.131751,-0.1231577,-0.4001934,1.626895,0.1607485,-0.1381879,1.511954,0.07463494,0.5225291,1.708579,-0.1714695,-0.4232287,1.6275,0.1893131,-0.1135306,1.459107,0.05431461,0.05270621,1.740698,0.05463479,-0.2753495,1.73467,-0.1175087,0.2346246,1.71989,-0.02771425,-0.267938,1.692649,-0.1526238,-0.02256685,1.721973,0.2760506,0.01354666,1.752258,NA,NA,NotTracked,Open,
0.9428711,-0.3286133,0.06933594,-0.4931641,0.7949219,0.3657227,-1,0,2,-1,-1,-1,-2,-2,38,12,-5,-1,8,12,12,30,-26.0625,-26.0625,-26.0625,38.875,38.875,38.875,2.750657,3.039227,9.066605,6.655265,5.40714,3.153773,-0.1228919,-0.399459,1.624831,0.1609461,0.04115777,1.486739,0.07457954,0.5225334,1.708485,-0.167257,-0.4508385,1.618222,0.2239748,0.005423059,1.492,0.05400188,0.05311001,1.740611,0.05470043,-0.2740442,1.73437,-0.1171927,0.234675,1.719242,-0.02716613,-0.2665827,1.691965,-0.1526127,-0.02357919,1.720793,0.2871542,0.02174037,1.712023,NA,NA,NotTracked,Open,
0.9467773,-0.328125,0.05761719,-0.4853516,0.7446289,0.5605469,-3,-3,1,1,-2,-1,0,-2,-45,-20,-14,-11,-19,7,-11,-37,-25.0625,-25.0625,-25.0625,52.0625,52.0625,52.0625,2.72539,3.037084,9.063571,6.708119,5.768968,3.169447,-0.1225885,-0.4000854,1.624203,0.173467,0.107794,1.490008,0.07465602,0.5224436,1.708461,-0.1681083,-0.4338216,1.619118,0.165379,0.1190837,1.440572,0.05390472,0.05301533,1.740659,0.05473689,-0.274257,1.734248,-0.1168486,0.2344413,1.718791,-0.02708819,-0.2668701,1.691876,-0.1526868,-0.02358563,1.720257,0.3006795,0.02934708,1.68506,NA,NA,NotTracked,Unknown,
0.9428711,-0.324707,0.06689453,-0.5512695,0.8129883,0.4306641,-1,-1,-1,-1,-3,-2,-2,-1,-40,0,2,2,9,6,-18,-21,-19.0625,-19.0625,-19.0625,67.875,67.875,67.875,2.718004,3.037568,9.036286,6.802641,6.067944,3.203046,-0.1218355,-0.3975829,1.624132,0.1828434,0.1628125,1.50198,0.07463176,0.522402,1.708588,-0.1660702,-0.4240178,1.615968,0.1259869,0.1721791,1.469333,0.05381162,0.05275479,1.740728,0.05489385,-0.2752382,1.734035,-0.1168155,0.2344741,1.71852,-0.02697516,-0.2678345,1.691847,-0.1529136,-0.02379408,1.719347,0.2871634,0.01785408,1.63808,NA,NA,NotTracked,Unknown,
0.9453125,-0.3164063,0.04980469,-0.5571289,0.6875,0.4462891,-2,1,3,1,0,1,-4,0,16,7,5,12,-46,-26,-5,-10,-21.3125,-21.3125,-21.3125,50.0625,50.0625,50.0625,2.711856,3.038767,9.030312,6.907873,6.304571,3.273501,-0.1224416,-0.3968205,1.622198,0.185844,0.2118173,1.524346,0.07434747,0.5220836,1.708869,-0.1681858,-0.4115977,1.622125,0.196344,0.199795,1.479262,0.05367462,0.05228918,1.74089,0.05466863,-0.2767776,1.73355,-0.1168174,0.2344763,1.718291,-0.02734163,-0.2690606,1.691703,-0.1530704,-0.0237988,1.718452,0.2892748,0.02468171,1.632748,NA,NA,NotTracked,Unknown,
0.9506836,-0.3154297,0.04638672,-0.581543,0.6108398,0.3842773,-2,-4,1,-2,0,-1,0,-3,-44,-5,-3,0,24,-29,-8,-61,-18.4375,-18.4375,-18.4375,52.875,52.875,52.875,2.689905,3.047583,9.017072,7.049316,6.507271,3.379067,-0.1207759,-0.4035633,1.618232,0.1869702,0.2586384,1.527978,0.07362331,0.5217564,1.709069,-0.1653197,-0.4325963,1.610857,0.1829806,0.2783019,1.49505,0.05355535,0.05227717,1.740925,0.05451895,-0.2770142,1.733412,-0.1168283,0.2344928,1.718231,-0.02764009,-0.2692822,1.691387,-0.1532675,-0.02338395,1.717876,0.294764,0.03115031,1.623773,NA,NA,NotTracked,Unknown,
0.9467773,-0.300293,0.03466797,-0.605957,0.5327148,0.2670898,-2,-2,-3,0,-2,-1,-1,-2,33,1,-3,0,-13,16,-1,-1,-14,-14,-14,37.75,37.75,37.75,2.680468,3.053163,9.00974,7.225235,6.666729,3.537005,-0.1194128,-0.4019382,1.614539,0.1936689,0.2987096,1.549143,0.07333077,0.5202278,1.709853,-0.164474,-0.4006268,1.607371,0.205456,0.2903962,1.509532,0.05401027,0.05304758,1.741418,0.05459694,-0.2762299,1.733308,-0.1165723,0.2346691,1.718154,-0.02765511,-0.2682121,1.690921,-0.1536705,-0.01925412,1.715914,0.3084819,0.05918458,1.590915,NA,NA,NotTracked,Unknown,
0.9506836,-0.2939453,0.03515625,-0.6352539,0.4082031,0.1591797,-1,-3,-4,0,-2,-1,-1,0,18,7,-1,-2,27,-16,11,60,-16.6875,-16.6875,-16.6875,22.125,22.125,22.125,2.673638,3.056329,9.00737,7.414256,6.772849,3.723506,-0.1193772,-0.3995699,1.613862,0.1916198,0.3162953,1.561344,0.07392886,0.5191113,1.710118,-0.1650254,-0.3968507,1.609813,0.179726,0.3175375,1.523054,0.05499962,0.0538357,1.742217,0.05498898,-0.2747892,1.733282,-0.1165947,0.2347598,1.718129,-0.02726696,-0.2664742,1.690601,-0.1538992,-0.01675279,1.715635,0.3126655,0.07931377,1.572739,NA,NA,NotTracked,Unknown,
0.9389648,-0.3198242,0.03076172,-0.6118164,0.4013672,0.07226563,-1,7,4,-1,-3,-1,-3,-3,-34,-3,-1,0,37,-12,-6,-63,-13.125,-13.125,-13.125,25.9375,25.9375,25.9375,2.653617,3.062407,9.010795,7.576509,6.830227,3.877236,-0.1185297,-0.4018248,1.613631,0.2573448,0.2155876,1.567747,0.07462576,0.5179245,1.710517,-0.1640776,-0.4199667,1.606967,0.2727346,0.174938,1.507804,0.05604942,0.05473262,1.743196,0.0553262,-0.2734271,1.733438,-0.1165884,0.234833,1.718126,-0.02695078,-0.2650784,1.690487,-0.1545265,-0.01300226,1.715369,0.3155307,0.09068334,1.566356,NA,NA,NotTracked,Unknown,
0.9375,-0.3374023,0.03759766,-0.7158203,0.3623047,0.04736328,-2,-2,0,0,-2,-1,-2,-2,47,-1,4,15,59,-53,7,76,10.125,10.125,10.125,15.0625,15.0625,15.0625,2.657499,3.068013,9.009916,7.687335,6.855836,3.979335,-0.1178891,-0.4022333,1.612206,0.2608574,0.2181603,1.566645,0.07530399,0.5170423,1.710742,-0.1649717,-0.396478,1.608438,0.3068224,0.1434811,1.494853,0.05691438,0.05545373,1.744011,0.05556803,-0.2719743,1.733428,-0.1166069,0.2349001,1.718142,-0.02677626,-0.2635052,1.690315,-0.1544959,-0.01183528,1.715262,0.316089,0.09695879,1.562348,NA,NA,NotTracked,Unknown,
0.9316406,-0.3383789,0.04492188,-0.7143555,0.3417969,-0.002929688,0,-1,0,-1,-1,-1,-1,0,24,17,16,10,-33,10,3,-3,27.375,27.375,27.375,12.6875,12.6875,12.6875,2.695953,3.069633,8.996186,7.733143,6.858057,4.016006,-0.1185436,-0.3999641,1.614975,0.1832382,0.351136,1.586337,0.07676737,0.5147361,1.711374,-0.165034,-0.4110005,1.610122,0.2226245,0.3448474,1.533097,0.05810588,0.05644871,1.744975,0.05587544,-0.2700345,1.733388,-0.1154519,0.2353786,1.719341,-0.02664387,-0.2611084,1.690252,-0.1547453,-0.01034868,1.715593,0.316826,0.1126889,1.55154,NA,NA,NotTracked,Unknown,
0.9296875,-0.3398438,0.05908203,-0.7949219,0.3623047,-0.005371094,-2,1,0,-1,-1,0,-1,-1,44,-8,-3,-5,-4,2,7,30,44.125,44.125,44.125,9.9375,9.9375,9.9375,2.760588,3.072792,8.975261,7.739273,6.862894,4.01286,-0.1194811,-0.3997841,1.616134,0.2521426,0.246107,1.579596,0.07707188,0.5140744,1.71164,-0.1648615,-0.4083988,1.609614,0.307861,0.1811883,1.496738,0.0586746,0.05692037,1.745421,0.05604373,-0.2691443,1.733459,-0.1150141,0.2356172,1.72008,-0.02649926,-0.2601747,1.690429,-0.1550401,-0.009621492,1.715847,0.3172567,0.1181621,1.548441,NA,NA,NotTracked,Unknown,
0.9306641,-0.3232422,0.07861328,-0.8583984,0.3466797,0.001953125,-1,0,3,-2,-1,-1,-2,-2,-34,-19,-4,0,20,30,19,-19,44.0625,44.0625,44.0625,-1.4375,-1.4375,-1.4375,2.825408,3.075299,8.960716,7.710542,6.866261,3.983503,-0.1207024,-0.3955908,1.619634,0.1665454,0.3752164,1.594366,0.07725394,0.5136455,1.71173,-0.1666607,-0.4331208,1.61325,0.2339023,0.3396326,1.525526,0.05894285,0.05722396,1.745756,0.05611856,-0.2685041,1.733471,-0.1150821,0.2356436,1.720096,-0.02639898,-0.2595523,1.690512,-0.1551421,-0.009129057,1.716267,0.3170336,0.1224973,1.545678,NA,NA,NotTracked,Closed,
0.9482422,-0.3081055,0.07763672,-0.7045898,0.3828125,-0.007324219,-1,-1,-1,2,-1,-2,-1,-1,-15,1,-3,-4,-18,-2,0,10,20.9375,20.9375,20.9375,2.9375,2.9375,2.9375,2.841251,3.071406,8.97616,7.649752,6.851944,3.915091,-0.1211069,-0.3961882,1.62043,0.1651116,0.3780127,1.592761,0.07743429,0.5130261,1.711884,-0.165006,-0.3892021,1.615097,0.1590994,0.333747,1.636071,0.05902362,0.05731328,1.745884,0.05610704,-0.2680502,1.733419,-0.1149596,0.2357211,1.720578,-0.02642084,-0.2591525,1.690519,-0.1551839,-0.008750536,1.716593,0.3167209,0.1234326,1.545178,NA,NA,NotTracked,Closed,
0.9326172,-0.3481445,0.09960938,-0.6430664,0.3754883,0.0546875,0,-1,-4,-3,0,-1,-1,-2,-6,-5,-2,0,-2,-2,-4,-2,10.625,10.625,10.625,-6.6875,-6.6875,-6.6875,2.836231,3.070322,8.98819,7.538683,6.813196,3.802161,-0.1213925,-0.3961105,1.623292,0.1679912,0.3738188,1.590905,0.07767051,0.5124961,1.711961,-0.1676108,-0.4115057,1.622391,0.1493076,0.3356584,1.632143,0.05905126,0.0575017,1.746115,0.05606201,-0.2676791,1.733458,-0.1147505,0.2359191,1.721195,-0.02647508,-0.2587955,1.690602,-0.1552719,-0.008830401,1.717087,0.3165751,0.1234302,1.54524,NA,NA,NotTracked,Unknown,
0.9238281,-0.3984375,0.1132813,-0.5810547,0.4223633,0.2041016,-2,-2,-2,0,-1,0,0,0,2,-2,0,3,-2,0,1,-3,8.3125,8.3125,8.3125,3.1875,3.1875,3.1875,2.831806,3.072402,8.998489,7.361261,6.739326,3.611637,-0.1221724,-0.3936986,1.625447,0.1706532,0.3649645,1.585399,0.07788348,0.5117586,1.711989,-0.1650597,-0.4045585,1.615758,0.1494641,0.3345063,1.637065,0.05940181,0.05761439,1.746477,0.05598785,-0.2672567,1.733604,-0.1146825,0.2359114,1.721641,-0.02654402,-0.2584476,1.690833,-0.1552325,-0.008460349,1.717964,0.3158181,0.1197211,1.54732,NA,NA,NotTracked,Unknown,
0.9331055,-0.3364258,0.07275391,-0.7241211,0.4291992,0.1826172,-1,0,-2,-1,0,-2,1,-1,-11,-6,0,-2,-1,2,3,20,-9.25,-9.25,-9.25,-1.9375,-1.9375,-1.9375,2.822706,3.070611,9.009609,7.159358,6.639589,3.38465,-0.1221769,-0.3944402,1.625072,0.1818246,0.341132,1.569083,0.0777657,0.51177,1.711993,-0.1657163,-0.3964071,1.618314,0.157683,0.3194844,1.611923,0.05942584,0.05768629,1.746564,0.05592088,-0.2670544,1.73367,-0.1148546,0.2359309,1.721603,-0.02667126,-0.2582382,1.690971,-0.1552288,-0.008335723,1.718238,0.3144606,0.1117825,1.552264,NA,NA,NotTracked,Unknown,
0.9365234,-0.3295898,0.08496094,-0.7197266,0.4975586,0.2695313,1,-5,0,-1,-2,-3,-2,0,8,1,2,1,1,3,0,18,-6.375,-6.375,-6.375,15.5,15.5,15.5,2.819785,3.06748,9.00443,6.988861,6.510282,3.169264,-0.1223301,-0.3941517,1.624392,0.180083,0.3326205,1.554517,0.07752151,0.5117618,1.711763,-0.1668646,-0.4195092,1.623846,0.1544359,0.3185452,1.610625,0.05940912,0.05770701,1.746572,0.05587406,-0.2670204,1.733674,-0.115047,0.2358868,1.721533,-0.02675404,-0.2581961,1.691036,-0.1552515,-0.008259545,1.718462,0.3127104,0.1054224,1.556203,NA,NA,NotTracked,Unknown,
0.9477539,-0.3369141,0.09130859,-0.8696289,0.6323242,0.2851563,0,-2,1,-1,0,-3,1,0,14,3,-3,-2,3,3,10,24,1.6875,1.6875,1.6875,0.9375,0.9375,0.9375,2.827271,3.064462,8.996752,6.874924,6.342185,3.008824,-0.1224098,-0.3948886,1.623564,0.1826306,0.3190999,1.53887,0.07679715,0.5120929,1.711796,-0.1681382,-0.4074942,1.631727,0.1430691,0.3105279,1.592333,0.05929783,0.05770218,1.746535,0.05580093,-0.2670086,1.733665,-0.1151443,0.235832,1.721925,-0.02685848,-0.2582332,1.691147,-0.1551617,-0.008020253,1.719009,0.3024945,0.06128841,1.597707,NA,NA,NotTracked,Unknown,
0.9384766,-0.34375,0.08740234,-0.7548828,0.7075195,0.1513672,0,1,0,-1,-2,-1,-1,-2,-9,-8,-8,-10,1,5,5,-9,6,6,6,-51.5625,-51.5625,-51.5625,2.827327,3.062688,9.003087,6.764541,6.094154,2.909314,-0.1252224,-0.3641881,1.6327,0.1832986,0.3047584,1.514663,0.07403356,0.5147083,1.711697,-0.1660397,-0.3850894,1.619456,0.1491261,0.3087971,1.5485,0.05863422,0.05770781,1.746242,0.05568602,-0.2671232,1.73362,-0.1153789,0.2357562,1.722296,-0.02700769,-0.2585932,1.691263,-0.1550387,-0.008684938,1.719445,0.292599,0.03710473,1.63502,NA,NA,NotTracked,Closed,
0.9301758,-0.3339844,0.07324219,-0.7099609,0.828125,0.2919922,-2,-1,-1,-1,-2,-2,-2,-1,11,-4,-2,3,6,-4,10,69,9.8125,9.8125,9.8125,-79.375,-79.375,-79.375,2.828967,3.062305,9.007178,6.664415,5.861825,2.873734,-0.1255594,-0.3657146,1.634792,0.2172893,0.2438732,1.471377,0.07127146,0.5165119,1.712255,-0.1703701,-0.3542631,1.633689,0.1738825,0.2775406,1.471615,0.05673544,0.0564583,1.745929,0.05520981,-0.2692041,1.733586,-0.1161539,0.2356322,1.722028,-0.02739727,-0.2612232,1.691847,-0.1543694,-0.01370392,1.72128,0.2858629,0.02619581,1.657262,NA,NA,NotTracked,Unknown,
0.9301758,-0.3339844,0.07324219,-0.7910156,0.9189453,0.6635742,-3,-3,-2,0,-1,-1,0,-1,5,7,5,4,8,9,17,21,9.8125,9.8125,9.8125,-14.9375,-14.9375,-14.9375,2.828967,3.062305,9.007178,6.583341,5.726677,2.803317,-0.1257045,-0.3652628,1.634612,0.2305879,0.2163273,1.457406,0.07057794,0.5172616,1.712484,-0.166777,-0.3842126,1.625127,0.222817,0.3028257,1.499,0.05585805,0.05561072,1.745753,0.05491058,-0.2707391,1.733521,-0.1165281,0.2352868,1.722473,-0.02759138,-0.2631388,1.691824,-0.1542115,-0.016356,1.721779,0.2819031,0.02158284,1.666218,NA,NA,NotTracked,Unknown,
0.9487305,-0.3461914,0.09033203,-1.081543,0.4672852,0.2851563,0,-1,-2,-1,-1,-1,-3,-1,-6,-12,-9,-6,-18,4,9,-2,15.75,15.75,15.75,148.5625,148.5625,148.5625,2.878103,3.06475,8.997976,6.66064,5.626856,2.672202,-0.1232186,-0.3907374,1.629071,0.2410764,0.1950117,1.431594,0.07017496,0.51763,1.712868,-0.1676392,-0.4217983,1.628231,0.2512993,0.2616167,1.436667,0.05535416,0.05515107,1.745821,0.0548345,-0.2714463,1.733626,-0.1169131,0.2352656,1.722385,-0.0275569,-0.2637633,1.691834,-0.1542308,-0.01847228,1.72254,0.2787272,0.01605117,1.679758,NA,NA,NotTracked,Lasso,
0.9345703,-0.3398438,0.08789063,-0.1196289,1.231934,0.4321289,-2,-1,-3,0,0,-1,1,0,34,15,10,14,9,16,25,81,-0.9375,-0.9375,-0.9375,-1.875,-1.875,-1.875,2.883632,3.067675,8.999908,6.693478,5.442491,2.601921,-0.1228552,-0.3906511,1.627603,0.2512814,0.1718457,1.413224,0.06987296,0.5178427,1.712832,-0.1697925,-0.3921871,1.631833,0.2571431,0.233231,1.407222,0.05509726,0.05490267,1.745729,0.05486438,-0.2716968,1.733592,-0.1172222,0.2352007,1.722229,-0.02742262,-0.2641342,1.691697,-0.1542806,-0.01960657,1.722983,0.2769945,0.01598918,1.687858,NA,NA,NotTracked,Lasso,
0.9057617,-0.3637695,0.1044922,0.006347656,0.9716797,1.110352,0,-1,-1,0,0,-2,-1,-1,2,-1,-1,2,-7,-24,-14,-37,-9.3125,-9.3125,-9.3125,-106.6875,-106.6875,-106.6875,2.882119,3.067717,8.993393,6.585861,5.370931,2.585304,-0.1225822,-0.3908271,1.627962,0.2617636,0.1432605,1.396207,0.06958421,0.5181563,1.712883,-0.1675108,-0.3830404,1.626976,0.2773167,0.2032806,1.403,0.05498448,0.05479322,1.745701,0.05488123,-0.2717699,1.733615,-0.1174739,0.2351469,1.7221,-0.02733273,-0.264255,1.691706,-0.1542505,-0.0204398,1.723303,0.2770514,0.01611666,1.691653,NA,NA,NotTracked,Unknown,
0.9545898,-0.3291016,0.1010742,-0.9384766,0.4379883,0.315918,0,-10,-7,-1,-2,-1,-4,-2,-6,-6,-3,2,8,-5,-9,-16,-25.875,-25.875,-25.875,65.875,65.875,65.875,2.85645,3.061242,8.996078,6.587073,5.408744,2.555232,-0.1295953,-0.3618791,1.634853,0.2814466,0.1229482,1.386618,0.06905304,0.5190828,1.713211,-0.1703558,-0.3513676,1.632696,0.2896317,0.1890609,1.395777,0.05450705,0.05442552,1.745552,0.05477003,-0.2721623,1.733658,-0.1180487,0.2348529,1.722273,-0.02736066,-0.2648548,1.691697,-0.1543004,-0.02077216,1.723489,0.2780199,0.0152988,1.693084,NA,NA,NotTracked,Lasso,
0.9516602,-0.3066406,0.06347656,0.04101563,1.427734,0.6220703,0,-1,0,0,0,-1,-2,-1,37,-8,17,8,0,-8,15,41,-30.9375,-30.9375,-30.9375,4.125,4.125,4.125,2.79399,3.056834,9.025192,6.635953,5.372572,2.513769,-0.1292753,-0.3614937,1.6353,0.2835199,0.1205986,1.388302,0.0689874,0.5191936,1.71322,-0.1705413,-0.3381743,1.632962,0.2868991,0.1681239,1.405429,0.05432256,0.054237,1.745462,0.05477669,-0.2724105,1.7337,-0.1182371,0.2347866,1.722113,-0.02730717,-0.2651133,1.691743,-0.1542834,-0.02067547,1.723532,0.2780553,0.01462512,1.695001,NA,NA,NotTracked,Lasso,
0.9306641,-0.3486328,0.05859375,-0.2036133,1.126465,0.6660156,-1,-1,0,1,-1,-1,-2,1,14,21,3,6,59,15,7,17,-2.0625,-2.0625,-2.0625,-104.125,-104.125,-104.125,2.77122,3.057688,9.038643,6.579574,5.393546,2.517255,-0.1209905,-0.4010906,1.622587,0.2861501,0.1224868,1.38572,0.0689735,0.5192257,1.713213,-0.1673881,-0.4044935,1.621178,0.3080991,0.1927848,1.382667,0.054089,0.05399611,1.745324,0.05472617,-0.2728172,1.733658,-0.1183007,0.234586,1.722239,-0.02731038,-0.2655282,1.691668,-0.1542579,-0.02130667,1.723298,0.2788324,0.01247507,1.694746,NA,NA,NotTracked,Lasso,
0.9326172,-0.3554688,0.07714844,-0.3657227,0.7915039,0.4448242,-1,-1,-1,-1,-1,-1,0,-1,-3,-5,7,9,1,0,-8,11,2.5,2.5,2.5,77.6875,77.6875,77.6875,2.772807,3.059065,9.038762,6.575668,5.456332,2.500396,-0.1209896,-0.4015806,1.622967,0.2855484,0.1204439,1.386109,0.06898639,0.5192547,1.713192,-0.1679678,-0.4132486,1.620348,0.2794625,0.07932884,1.30575,0.05399365,0.05387223,1.745223,0.05470062,-0.2729928,1.733672,-0.1184613,0.2345098,1.72199,-0.02728878,-0.2656929,1.691633,-0.1542096,-0.02244124,1.723175,0.2787344,0.01202676,1.695191,NA,NA,NotTracked,Lasso,
0.925293,-0.3334961,0.08105469,-0.1572266,1.130371,0.4985352,-1,0,-2,-1,-1,-2,-1,-2,-1,8,13,10,21,11,-3,10,-6.5,-6.5,-6.5,31.1875,31.1875,31.1875,2.76016,3.059473,9.048497,6.598622,5.454379,2.494742,-0.1208966,-0.4012296,1.623483,0.2836808,0.1239504,1.389082,0.06909049,0.5193859,1.713202,-0.1676165,-0.4028647,1.621415,0.2965032,0.06425838,1.38,0.0539561,0.05378034,1.745172,0.05477339,-0.2731982,1.733685,-0.1184452,0.2344702,1.722021,-0.0271726,-0.2659112,1.691558,-0.1540725,-0.02288354,1.72301,0.278456,0.01197326,1.695515,NA,NA,NotTracked,Lasso,
0.9418945,-0.3330078,0.05859375,-0.3867188,0.5395508,0.5146484,-1,1,-1,0,0,-2,1,0,12,7,-5,-5,0,23,6,-17,5.125,5.125,5.125,2.8125,2.8125,2.8125,2.742557,3.057462,9.067404,6.539803,5.47963,2.503595,-0.1211679,-0.3989651,1.625469,0.2828211,0.127686,1.391231,0.06948149,0.5197881,1.713222,-0.1695037,-0.3950166,1.634375,0.2991435,0.05787851,1.434,0.05389013,0.05365032,1.745133,0.05476766,-0.2734858,1.733739,-0.1185872,0.2344975,1.721707,-0.02710885,-0.2661454,1.691471,-0.1540756,-0.02256237,1.722941,0.2772383,0.01041019,1.695825,NA,NA,NotTracked,Lasso,
0.9375,-0.3261719,0.05517578,-0.347168,0.796875,0.4501953,-1,0,-1,-1,-1,-2,0,-1,-1,-14,-5,-9,-5,38,5,27,4.9375,4.9375,4.9375,38.625,38.625,38.625,2.747711,3.059055,9.068525,6.562932,5.479723,2.500315,-0.1212326,-0.3964529,1.625474,0.2822336,0.1282896,1.39052,0.06961871,0.5198647,1.71323,-0.1676097,-0.3983771,1.624853,0.298292,0.05967106,1.43,0.05387832,0.05359595,1.745098,0.05481347,-0.2736104,1.733748,-0.1185163,0.234452,1.721827,-0.02703382,-0.2662783,1.691424,-0.1540744,-0.02223111,1.722903,0.2770471,0.0102744,1.695754,NA,NA,NotTracked,Lasso,
0.940918,-0.3286133,0.06689453,-0.3017578,0.7290039,0.5239258,-3,1,-1,-1,-2,0,-1,-1,27,3,-4,-1,8,7,13,57,1.875,1.875,1.875,-28.875,-28.875,-28.875,2.754199,3.061536,9.065483,6.559548,5.460078,2.509526,-0.1213621,-0.3971998,1.624632,0.2806311,0.1279302,1.391655,0.06978641,0.5200326,1.713207,-0.1653845,-0.4107777,1.618104,0.2948813,0.0638431,1.424143,0.05384433,0.05354001,1.745022,0.05483615,-0.2736863,1.733734,-0.1185075,0.234425,1.72186,-0.02698284,-0.2663628,1.691361,-0.1539226,-0.0225769,1.722867,0.2766825,0.01028586,1.695757,NA,NA,NotTracked,Lasso,
0.9335938,-0.3339844,0.06396484,-0.3256836,0.6669922,0.5151367,-2,0,-1,-1,-1,-1,0,-1,9,4,1,2,-3,-2,-1,31,-1.875,-1.875,-1.875,-9.5625,-9.5625,-9.5625,2.75616,3.062521,9.062475,6.553606,5.451468,2.514169,-0.1204982,-0.4012431,1.623004,0.2795745,0.1256442,1.392948,0.06991795,0.5201253,1.713216,-0.1690914,-0.4147382,1.625692,0.2967443,0.05229579,1.441,0.05383215,0.05350547,1.744953,0.05485777,-0.2737028,1.73372,-0.1183982,0.2344303,1.721865,-0.02690263,-0.2663841,1.691265,-0.153952,-0.0227069,1.722617,0.2761361,0.009615036,1.695761,NA,NA,NotTracked,Lasso,
0.9394531,-0.3344727,0.06542969,-0.2280273,0.800293,0.4609375,-2,-2,0,-1,0,0,-1,0,-13,-8,-1,2,6,-8,-6,-12,-2,-2,-2,2.125,2.125,2.125,2.755378,3.061419,9.060984,6.574227,5.381029,2.515665,-0.1204609,-0.4008288,1.622635,0.2792524,0.1211491,1.389248,0.06999402,0.5202624,1.71314,-0.1665393,-0.4165902,1.620138,0.2863209,0.07030278,1.370467,0.0538083,0.05349244,1.744804,0.05491635,-0.2737246,1.733653,-0.1183831,0.2344104,1.721868,-0.02678006,-0.266413,1.691118,-0.1538835,-0.02267548,1.722571,0.2756977,0.009037451,1.695881,NA,NA,NotTracked,Lasso,
0.9365234,-0.3330078,0.06738281,-0.1088867,0.7080078,0.5371094,0,-1,-1,0,-2,-1,-2,-1,-4,-1,0,-1,-3,0,-2,5,-0.6875,-0.6875,-0.6875,3.8125,3.8125,3.8125,2.756128,3.061721,9.060463,6.571934,5.303791,2.514487,-0.1292851,-0.3671743,1.633616,0.2791868,0.1086335,1.385558,0.07032213,0.5206764,1.713275,-0.1675125,-0.408252,1.623462,0.2645962,0.07722557,1.338067,0.05366799,0.05337609,1.744595,0.05491973,-0.2738493,1.733575,-0.1185064,0.234481,1.721481,-0.02674971,-0.2665742,1.690948,-0.1537576,-0.02250651,1.722421,0.2719344,0.01047897,1.703306,NA,NA,NotTracked,Lasso,
0.9375,-0.3305664,0.06152344,-0.1347656,0.6928711,0.5102539,-1,-2,-1,-2,-1,-1,0,-3,1,-1,3,-1,0,-2,-3,-1,-0.0625,-0.0625,-0.0625,24.875,24.875,24.875,2.756152,3.061364,9.060234,6.588787,5.211003,2.51775,-0.1210675,-0.396749,1.623502,0.2777685,0.09384178,1.379869,0.07036724,0.5207595,1.713258,-0.1692887,-0.3971033,1.627263,0.2800357,0.04840739,1.349667,0.05362502,0.05329107,1.744299,0.05499341,-0.2739624,1.733429,-0.1183611,0.2343718,1.721453,-0.02663655,-0.2667031,1.690821,-0.1536849,-0.02263666,1.722305,0.2716305,0.009137092,1.704044,NA,NA,NotTracked,Lasso,
0.9379883,-0.3334961,0.06152344,-0.08105469,0.7441406,0.4692383,0,-1,-1,0,0,1,-2,-2,0,-1,-1,0,0,-1,-3,0,0.75,0.75,0.75,34.6875,34.6875,34.6875,2.756682,3.061033,9.059781,6.625781,5.078772,2.527953,-0.1212722,-0.397112,1.623978,0.2761992,0.07356465,1.37258,0.07040547,0.5207416,1.713277,-0.1675979,-0.4077736,1.623471,0.2766896,0.0303133,1.337417,0.05359187,0.05323989,1.74408,0.05502607,-0.2739912,1.733358,-0.1184561,0.2343591,1.721265,-0.02655191,-0.2667441,1.690682,-0.153558,-0.02296729,1.722048,0.2703944,0.008169018,1.705586,NA,NA,NotTracked,Lasso,
0.9399414,-0.3291016,0.06982422,0.05175781,0.7685547,0.5019531,-2,-1,-1,-1,0,1,-3,0,-3,-2,-3,-2,0,-3,4,-3,-1,-1,-1,45.625,45.625,45.625,2.758822,3.059833,9.057208,6.672221,4.908661,2.549364,-0.1215386,-0.3966092,1.624754,0.2738195,0.04220533,1.366202,0.07045619,0.5208616,1.713256,-0.1673541,-0.3923796,1.622736,0.2623748,0.002753808,1.316,0.05353655,0.05325866,1.743978,0.05502737,-0.2739962,1.733343,-0.1184315,0.2344155,1.72129,-0.02654516,-0.2667485,1.690675,-0.1534845,-0.02321263,1.721935,0.2666585,0.01123615,1.712318,NA,NA,NotTracked,Lasso,
0.9414063,-0.3251953,0.06298828,0.06298828,0.8808594,0.4399414,0,0,-2,-1,0,0,0,-3,0,0,1,2,0,0,3,-2,-7.6875,-7.6875,-7.6875,38.9375,38.9375,38.9375,2.747192,3.056615,9.062707,6.717946,4.714127,2.571078,-0.1213512,-0.3949092,1.624178,0.2674544,-0.04283772,1.358831,0.07048626,0.5212106,1.713244,-0.1686962,-0.4115923,1.628558,0.2793908,-0.07556808,1.339636,0.05350018,0.05321144,1.743531,0.05508694,-0.2741019,1.733256,-0.1183329,0.2342703,1.72086,-0.02648413,-0.2668321,1.690682,-0.1533307,-0.02330838,1.721653,0.2635515,0.01375526,1.727897,NA,NA,NotTracked,Unknown,
0.9389648,-0.328125,0.05224609,0.2587891,0.8408203,0.4550781,-1,-2,-1,-1,0,-1,-1,-2,-6,-2,7,1,0,-2,-4,1,-5.625,-5.625,-5.625,29.375,29.375,29.375,2.725794,3.055127,9.07759,6.742119,4.491271,2.60007,-0.1215371,-0.3946106,1.625337,0.2624193,-0.09527329,1.365303,0.07045633,0.5214438,1.713111,-0.1670509,-0.4082505,1.622898,0.258373,-0.1303357,1.36325,0.05347209,0.05326185,1.743338,0.05508694,-0.2740965,1.733244,-0.1183216,0.2342572,1.720792,-0.02648392,-0.266832,1.690682,-0.1532933,-0.0230906,1.7215,0.2766528,-0.01029891,1.727959,NA,NA,NotTracked,Unknown,
0.9379883,-0.3242188,0.05029297,0.3779297,0.8608398,0.4873047,-1,-1,1,1,-2,0,-2,-1,1,-3,-1,-1,0,1,-5,1,-3.1875,-3.1875,-3.1875,30.9375,30.9375,30.9375,2.71842,3.05349,9.083515,6.765372,4.277671,2.637275,-0.121428,-0.3941872,1.625336,0.2559481,-0.1438419,1.374868,0.07043464,0.521551,1.713121,-0.1690679,-0.3939612,1.632937,0.2279022,-0.175413,1.374875,0.05346096,0.05331687,1.743181,0.05511261,-0.2740775,1.733232,-0.1182602,0.2342303,1.720631,-0.02644838,-0.2668435,1.690706,-0.1533346,-0.02281586,1.721345,0.284457,-0.03661046,1.716267,NA,NA,NotTracked,Unknown,
0.9526367,-0.3334961,0.04882813,0.4819336,0.7705078,0.4394531,-2,-2,-2,-2,-2,-2,-1,1,8,-2,-2,1,3,-2,-26,3,0.125,0.125,0.125,14.75,14.75,14.75,2.701381,3.050191,9.099924,6.760798,4.061638,2.684743,-0.1208256,-0.4017381,1.623133,0.252561,-0.1931696,1.400484,0.07042649,0.5217017,1.71308,-0.1679785,-0.3984775,1.625672,0.2674525,-0.2337394,1.378476,0.05348381,0.05336324,1.742929,0.05517433,-0.2740799,1.733175,-0.1182865,0.2341708,1.720488,-0.0263862,-0.2668608,1.690632,-0.1532612,-0.0230629,1.721116,0.2887002,-0.04451229,1.711383,NA,NA,NotTracked,Unknown,
0.9506836,-0.3466797,0.04443359,0.6567383,0.6469727,0.4575195,0,-3,-2,-1,0,-3,-1,0,1,1,4,2,1,1,-1,-6,2.9375,2.9375,2.9375,35,35,35,2.697608,3.050548,9.105659,6.760605,3.840664,2.73145,-0.1208026,-0.3991293,1.624573,0.249103,-0.2399662,1.427072,0.07043571,0.5219836,1.712947,-0.1677034,-0.4015791,1.626164,0.2624581,-0.2950582,1.407222,0.05352746,0.05339161,1.742818,0.05527364,-0.2741191,1.733162,-0.1181562,0.2341144,1.720332,-0.02628873,-0.2669186,1.690631,-0.1532249,-0.02324226,1.720824,0.2738601,-0.008949907,1.728286,NA,NA,NotTracked,Unknown,
0.9423828,-0.3330078,0.04443359,0.8930664,0.6201172,0.3598633,-3,-2,-1,-1,1,-2,-1,-2,-6,0,-2,-4,-1,-2,5,-4,8.3125,8.3125,8.3125,40.875,40.875,40.875,2.701002,3.050643,9.110533,6.780365,3.640812,2.765829,-0.1218433,-0.4023648,1.62452,0.2423453,-0.3155151,1.483354,0.070617,0.5222895,1.712923,-0.1682602,-0.4024,1.626229,0.1950735,-0.3508393,1.483143,0.05370536,0.05338616,1.742452,0.05560366,-0.2742672,1.73315,-0.1180236,0.2341857,1.720102,-0.02595325,-0.2671161,1.690699,-0.152987,-0.02380317,1.720587,0.2729273,-0.01331345,1.728138,NA,NA,NotTracked,Unknown,
0.9345703,-0.3251953,0.05664063,0.918457,0.5703125,0.3266602,-3,-2,-2,0,-1,-1,-1,-2,57,0,-1,0,-1,-1,0,7,10.0625,10.0625,10.0625,37.1875,37.1875,37.1875,2.711592,3.050734,9.111601,6.790466,3.457111,2.807035,-0.1220225,-0.4007546,1.626667,0.2389711,-0.3462091,1.511958,0.07081604,0.5226207,1.713089,-0.1731136,-0.401527,1.633527,0.1948652,-0.3539341,1.504,0.05383316,0.05338504,1.742292,0.05576799,-0.274344,1.733159,-0.1180164,0.2341766,1.720077,-0.0257529,-0.2672819,1.690723,-0.1529156,-0.02437899,1.72058,0.2722695,-0.01605534,1.727883,NA,NA,NotTracked,Unknown,
0.9350586,-0.3149414,0.05371094,0.9194336,0.4428711,0.2636719,-1,-2,-1,-1,-1,0,-1,1,8,7,3,2,1,2,3,1,9.1875,9.1875,9.1875,48.6875,48.6875,48.6875,2.718963,3.049706,9.120614,6.8113,3.286487,2.84217,-0.1227386,-0.4013472,1.627086,0.2373222,-0.364594,1.541787,0.07100663,0.5228607,1.71303,-0.1694619,-0.4036846,1.624994,0.1944571,-0.3770553,1.542286,0.05405469,0.05344354,1.742174,0.05594432,-0.2743782,1.733255,-0.1179974,0.2342403,1.720036,-0.02556407,-0.2673885,1.690842,-0.1528926,-0.0244505,1.720578,0.2710348,-0.0187248,1.728157,NA,NA,NotTracked,Unknown,
0.9135742,-0.3369141,0.0703125,0.9931641,0.4472656,0.1938477,0,-3,-2,-2,-1,-1,-2,-2,6,-2,-2,0,1,-1,-1,0,8.875,8.875,8.875,38.6875,38.6875,38.6875,2.724819,3.05015,9.125348,6.860813,3.142554,2.842044,-0.1230887,-0.3991901,1.627496,0.2302041,-0.3769446,1.577517,0.07115216,0.5231451,1.713012,-0.1696566,-0.4000973,1.6249,0.1961268,-0.3408751,1.605172,0.05419542,0.05350467,1.742044,0.05605167,-0.2743572,1.733324,-0.1178634,0.2342628,1.71983,-0.02542652,-0.2674487,1.690969,-0.1528932,-0.02444321,1.720577,0.2694817,-0.02075757,1.728574,NA,NA,NotTracked,Unknown,
0.9204102,-0.3349609,0.06347656,1.012207,0.7348633,-0.1464844,-1,-1,-1,0,0,-1,-1,-2,-4,0,-1,-3,-1,1,0,-2,6.4375,6.4375,6.4375,36.9375,36.9375,36.9375,2.726283,3.050733,9.133091,7.14843,3.055877,2.565631,-0.1233708,-0.3991165,1.628982,0.2281722,-0.3813573,1.604442,0.07157132,0.5232271,1.712996,-0.1724121,-0.3879822,1.62997,0.179644,-0.3318537,1.600552,0.05437624,0.05360786,1.741913,0.0561398,-0.2743355,1.733342,-0.1178287,0.2343995,1.719788,-0.0252912,-0.2674753,1.691084,-0.1528873,-0.02416612,1.720646,0.2673579,-0.02238045,1.729368,NA,NA,NotTracked,Unknown,
0.9433594,-0.3579102,0.07128906,0.9042969,0.4067383,-0.07421875,-1,0,0,-3,-2,-1,-2,-1,0,-1,1,-1,-3,-7,0,0,4.375,4.375,4.375,-185.75,-185.75,-185.75,2.721789,3.053519,9.143912,7.304718,3.019843,2.248276,-0.1246035,-0.398918,1.630132,0.2319801,-0.3617763,1.63509,0.07214275,0.5238685,1.712828,-0.1740195,-0.3967159,1.635479,0.1829397,-0.3412979,1.605348,0.05470425,0.05376593,1.741611,0.05622978,-0.2743205,1.733477,-0.1175557,0.2347315,1.719626,-0.02514645,-0.2675288,1.691542,-0.1527499,-0.02398815,1.720999,0.2592401,-0.03149696,1.732174,NA,NA,NotTracked,Unknown,
0.9375,-0.3183594,0.03955078,0.9204102,0.2963867,0.109375,-1,1,-1,-1,-2,-1,0,-1,3,0,0,0,-2,-3,-1,-1,-0.6875,-0.6875,-0.6875,-109.8125,-109.8125,-109.8125,2.70272,3.056825,9.166492,7.193611,3.014681,2.185703,-0.1245943,-0.3989111,1.629322,0.2327375,-0.3631397,1.63497,0.07241489,0.5239963,1.712623,-0.172059,-0.4107185,1.625273,0.1839336,-0.334742,1.60389,0.05484054,0.05379579,1.741528,0.05632639,-0.2743279,1.733597,-0.1174141,0.2348246,1.719449,-0.02501116,-0.2675858,1.691854,-0.1527454,-0.0240153,1.721011,0.257001,-0.03120102,1.732985,NA,NA,NotTracked,NotTracked,
0.9311523,-0.3339844,0.04541016,0.9067383,0.3916016,0.1533203,-2,-1,-2,-2,0,-1,-1,0,-2,-1,1,0,-1,-1,0,-1,-11.1875,-11.1875,-11.1875,-63.6875,-63.6875,-63.6875,2.668782,3.057922,9.190265,7.069093,3.05204,2.231289,-0.1254923,-0.3982227,1.629988,0.2346857,-0.3605513,1.634497,0.07279651,0.5241066,1.712361,-0.1738443,-0.4016091,1.632913,0.1841981,-0.3314641,1.603256,0.05507936,0.05384952,1.741338,0.0564413,-0.2742994,1.733705,-0.1172225,0.2349262,1.719275,-0.02487977,-0.2676116,1.692052,-0.1527203,-0.02369801,1.721131,0.2554521,-0.03088125,1.734378,NA,NA,NotTracked,NotTracked,
0.9213867,-0.3408203,0.04394531,0.84375,0.3447266,0.2119141,-1,-1,-1,1,-1,-1,-2,-1,-1,-2,0,-1,-1,0,0,-2,-7.0625,-7.0625,-7.0625,-2.4375,-2.4375,-2.4375,2.662505,3.053902,9.188453,6.948962,3.072838,2.334411,-0.1254639,-0.3986734,1.631526,0.2350542,-0.3607916,1.633653,0.07305622,0.5243474,1.712395,-0.1748294,-0.3958375,1.637715,0.1854862,-0.3373287,1.604279,0.05522094,0.05392481,1.741312,0.05662893,-0.2742226,1.733998,-0.1169845,0.2353147,1.719057,-0.0246719,-0.26759,1.692394,-0.1527143,-0.02362353,1.721145,0.2543695,-0.03076446,1.735757,NA,NA,NotTracked,NotTracked,
0.9345703,-0.3461914,0.06640625,0.8686523,0.4082031,0.1962891,0,0,0,0,-2,-1,-1,0,0,0,-1,0,0,-1,-1,0,-12.9375,-12.9375,-12.9375,35.5,35.5,35.5,2.670444,3.0428,9.167631,6.91923,3.085863,2.4011,-0.1256997,-0.398004,1.629669,0.2368767,-0.3603866,1.631143,0.07347839,0.5242406,1.711962,-0.1728243,-0.3964545,1.631009,0.1855669,-0.3376663,1.6041,0.05537222,0.05394538,1.741174,0.05680538,-0.2742605,1.734101,-0.1167064,0.2353165,1.718519,-0.02447826,-0.2676775,1.692529,-0.1527138,-0.02363969,1.721152,0.25375,-0.03077143,1.736436,NA,NA,NotTracked,NotTracked,
0.9335938,-0.3413086,0.06982422,0.9052734,0.3291016,0.1645508,-3,-2,-1,1,-2,-1,-1,-2,-2,-2,0,0,0,-1,-1,-1,-17,-17,-17,34.6875,34.6875,34.6875,2.67437,3.03279,9.144876,6.929774,3.090713,2.430779,-0.1257961,-0.3977939,1.63146,0.2342901,-0.3852646,1.621525,0.0739845,0.5244176,1.711688,-0.1756586,-0.3784087,1.638323,0.1787186,-0.3950811,1.605167,0.0557231,0.05399568,1.741005,0.05716057,-0.2742845,1.734489,-0.1159006,0.2356993,1.717438,-0.02410299,-0.2677763,1.692981,-0.1527186,-0.02326038,1.721026,0.2531025,-0.03440498,1.738218,NA,NA,NotTracked,NotTracked,
0.9511719,-0.3100586,0.05566406,0.9360352,0.2475586,0.1411133,0,-1,0,0,-1,-1,0,-3,-1,-2,-2,1,0,-2,-1,0,-14.6875,-14.6875,-14.6875,51.25,51.25,51.25,2.669997,3.028017,9.131791,6.98093,3.077856,2.428644,-0.1256029,-0.3979005,1.630597,0.2339879,-0.3859667,1.621155,0.07416246,0.5244592,1.711668,-0.1733398,-0.4035233,1.627727,0.1780837,-0.374212,1.604385,0.05587967,0.05405979,1.740981,0.05731867,-0.2742552,1.734625,-0.1156672,0.2357297,1.71685,-0.0239193,-0.267795,1.693144,-0.1526933,-0.02313185,1.72087,0.2530661,-0.0343877,1.738279,NA,NA,NotTracked,NotTracked,
0.9482422,-0.3105469,0.04541016,0.9511719,0.2729492,0.0859375,-1,-2,-2,-1,-2,-1,0,0,-2,-2,-1,0,-1,-1,-2,-1,-12.9375,-12.9375,-12.9375,59.1875,59.1875,59.1875,2.66288,3.030061,9.124153,7.077426,3.062002,2.394198,-0.125023,-0.3976999,1.629099,0.2332445,-0.3871772,1.619392,0.07425438,0.5244112,1.711606,-0.1730537,-0.3970861,1.630022,0.1762531,-0.3791503,1.602258,0.05601163,0.05408888,1.740894,0.05742788,-0.2742493,1.734707,-0.1153745,0.2359175,1.716148,-0.02379048,-0.2678228,1.693215,-0.1527043,-0.02337313,1.720589,0.2530057,-0.03419502,1.738186,NA,NA,NotTracked,NotTracked,
0.9477539,-0.2895508,0.02197266,0.9057617,0.3422852,0.05810547,0,-1,-1,0,1,-1,-1,-3,1,-1,-1,-1,-1,-1,-1,0,-8.375,-8.375,-8.375,34.625,34.625,34.625,2.65876,3.031919,9.117723,7.157698,3.063722,2.358539,-0.124926,-0.3969676,1.628554,0.2324993,-0.3880597,1.618052,0.07437018,0.5245448,1.71156,-0.1701874,-0.4079611,1.62203,0.1807243,-0.3396573,1.605239,0.05613959,0.05414513,1.740838,0.05750607,-0.2742045,1.734772,-0.1150291,0.236097,1.715728,-0.02372527,-0.2678146,1.693239,-0.1526634,-0.02288612,1.720267,0.2527231,-0.03392503,1.738158,NA,NA,NotTracked,Unknown,
