ALX,ALY,ALZ,ARX,ARY,ARZ,EMG0L,EMG1L,EMG2L,EMG3L,EMG4L,EMG5L,EMG6L,EMG7L,EMG0R,EMG1R,EMG2R,EMG3R,EMG4R,EMG5R,EMG6R,EMG7R,GLX,GLY,GLZ,GRX,GRY,GRZ,ORL,OPL,OYL,ORR,OPR,OYR,LHNX,LHNY,LHNZ,RHNX,RHNY,RHNZ,HX,HY,HZ,LTX,LTY,LTZ,RTX,RTY,RTZ,SpineMidX,SpineMidY,SpineMidZ,SpineBaseX,SpineBaseY,SpineBaseZ,ShoulderLeftX,ShoulderLeftY,ShoulderLeftZ,ShoulderRightX,ShoulderRightY,ShoulderRightZ,ElbowLeftX,ElbowLeftY,ElbowLeftZ,ElbowRightX,ElbowRightY,ElbowRightZ,Myo_Pose_left,Myo_Pose_Right,Kinect_pose_left,Kinect_pose_right
0.9453125,-0.3037109,0.03320313,0.9047852,0.3540039,0.1254883,-2,0,0,-2,-2,0,1,0,0,-1,-2,0,-1,0,0,-1,0.5,0.5,0.5,-0.6875,-0.6875,-0.6875,2.628678,3.00441,9.150581,7.026019,3.104793,2.678654,-0.1215646,-0.4015252,1.635735,0.2320854,-0.3892145,1.626571,0.08085763,0.5210449,1.715648,-0.1670325,-0.4071862,1.6341,0.1802692,-0.3695316,1.60743,0.05945227,0.05226609,1.750401,0.06125103,-0.2750089,1.743822,-0.1119087,0.2336304,1.726897,-0.02004833,-0.2686092,1.701538,-0.1478962,-0.02406213,1.729719,0.2552593,-0.03274527,1.74597,NA,NA,NotTracked,NotTracked,
0.9453125,-0.3037109,0.03320313,0.90625,0.3554688,0.1118164,-2,0,0,-2,-2,0,1,0,-1,-1,2,-1,-3,0,-1,0,0.5,0.5,0.5,0.75,0.75,0.75,2.628678,3.00441,9.150581,7.027732,3.105288,2.67722,-0.1217583,-0.40074,1.635058,0.2322406,-0.3888712,1.625617,0.08077429,0.5210385,1.715424,-0.1668456,-0.4302344,1.633579,0.1813725,-0.3435082,1.609235,0.05945807,0.05225487,1.750367,0.06125942,-0.2750099,1.743824,-0.1125662,0.233746,1.726031,-0.02003252,-0.2686188,1.701531,-0.14784,-0.02374805,1.729687,0.2552988,-0.03264441,1.745955,NA,NA,NotTracked,NotTracked,
0.9453125,-0.3037109,0.03320313,0.9042969,0.3540039,0.1132813,-2,0,0,-2,-2,0,1,0,-2,-2,-1,-2,0,0,-1,-2,0.5,0.5,0.5,0.5625,0.5625,0.5625,2.628678,3.00441,9.150581,7.02801,3.105425,2.676937,-0.1214365,-0.4009977,1.635464,0.2321249,-0.3896658,1.626768,0.0807089,0.5209993,1.715228,-0.1684475,-0.4278858,1.637363,0.182246,-0.3494765,1.607689,0.05948334,0.05224922,1.750361,0.0612931,-0.2750103,1.743858,-0.1129538,0.2338579,1.725515,-0.01998551,-0.2686342,1.701594,-0.1478124,-0.02375348,1.729743,0.2552893,-0.03262789,1.74597,NA,NA,NotTracked,NotTracked,
0.9453125,-0.3037109,0.03320313,0.9018555,0.3544922,0.1162109,-2,0,0,-2,-2,0,1,0,-1,0,-1,-1,-2,0,0,-1,0.5,0.5,0.5,1.6875,1.6875,1.6875,2.628678,3.00441,9.150581,7.027028,3.10547,2.679322,-0.1224225,-0.4011947,1.63645,0.2323585,-0.3894269,1.626963,0.08064745,0.5209911,1.715174,-0.1675324,-0.4257547,1.636087,0.1812607,-0.3523779,1.609002,0.05948531,0.05223817,1.750358,0.06129786,-0.2750298,1.743886,-0.1133034,0.2339027,1.725097,-0.01998713,-0.2686787,1.701656,-0.1478229,-0.02377029,1.729755,0.2552866,-0.03249637,1.746005,NA,NA,NotTracked,NotTracked,
0.9453125,-0.3037109,0.03320313,0.90625,0.3500977,0.1157227,-2,0,0,-2,-2,0,1,0,-2,-1,-1,-2,-2,0,0,-1,0.5,0.5,0.5,2.6875,2.6875,2.6875,2.628678,3.00441,9.150581,7.027525,3.105304,2.681638,-0.122097,-0.4016168,1.635076,0.232613,-0.3890831,1.625395,0.0805395,0.5207772,1.714836,-0.1672432,-0.4218782,1.634251,0.1811527,-0.3951252,1.609083,0.05949957,0.05218123,1.750299,0.0613492,-0.2750798,1.743869,-0.1133165,0.2338473,1.725175,-0.01994454,-0.2687337,1.701638,-0.1477861,-0.02369213,1.729737,0.2552785,-0.03239465,1.745941,NA,NA,NotTracked,NotTracked,
0.9453125,-0.3037109,0.03320313,0.9052734,0.3525391,0.112793,-2,0,0,-2,-2,0,1,0,-1,-2,-1,-1,0,-1,-2,0,0.5,0.5,0.5,3.4375,3.4375,3.4375,2.628678,3.00441,9.150581,7.029299,3.105502,2.683798,-0.1214212,-0.4008592,1.635325,0.2325743,-0.3893397,1.625693,0.08031762,0.5207528,1.714451,-0.165126,-0.422762,1.629234,0.1790815,-0.3855018,1.608429,0.05951573,0.05217386,1.75029,0.06139162,-0.2750855,1.743905,-0.1132304,0.2336585,1.7256,-0.01991586,-0.2687482,1.70167,-0.1477753,-0.02372382,1.729759,0.2549839,-0.03489831,1.746068,NA,NA,NotTracked,NotTracked,
0.9453125,-0.3037109,0.03320313,0.9091797,0.3510742,0.1152344,-2,0,0,-2,-2,0,1,0,0,-1,1,-2,-1,-2,-2,-1,0.5,0.5,0.5,0.25,0.25,0.25,2.628678,3.00441,9.150581,7.029896,3.105553,2.684319,-0.1226732,-0.4008772,1.635085,0.2326923,-0.3888822,1.625475,0.08021716,0.5207497,1.714299,-0.1681603,-0.4066074,1.6325,0.1829921,-0.3445492,1.608163,0.05950448,0.05215847,1.750246,0.06140481,-0.275092,1.743895,-0.1131042,0.2336494,1.725736,-0.01990208,-0.2687646,1.701658,-0.1477492,-0.02387861,1.729789,0.2547644,-0.0368662,1.745988,NA,NA,NotTracked,NotTracked,
0.9453125,-0.3037109,0.03320313,0.9077148,0.3457031,0.1079102,-2,0,0,-2,-2,0,1,0,0,0,0,0,-1,0,-1,-2,0.5,0.5,0.5,0.75,0.75,0.75,2.628678,3.00441,9.150581,7.03162,3.105698,2.682873,-0.1220364,-0.4013358,1.63478,0.2324801,-0.3884799,1.625018,0.07989387,0.5209426,1.713742,-0.1667607,-0.4329047,1.630727,0.1827706,-0.3458684,1.610634,0.05955184,0.05215396,1.750164,0.0614501,-0.2750795,1.74388,-0.1130973,0.2335706,1.725845,-0.01986866,-0.2687683,1.701645,-0.1477393,-0.02392695,1.729775,0.2548144,-0.03469931,1.745301,NA,NA,NotTracked,NotTracked,
0.9453125,-0.3037109,0.03320313,0.9052734,0.3457031,0.1074219,-2,0,0,-2,-2,0,1,0,1,0,-2,0,-1,-1,0,1,0.5,0.5,0.5,-0.6875,-0.6875,-0.6875,2.628678,3.00441,9.150581,7.033256,3.106126,2.681236,-0.1221961,-0.4003364,1.634742,0.2327213,-0.3894062,1.624474,0.07975327,0.5209367,1.713428,-0.1676717,-0.4112624,1.635028,0.1819849,-0.3666557,1.60825,0.05955152,0.0521608,1.7501,0.06144804,-0.2750734,1.743873,-0.1129989,0.2336233,1.725957,-0.01987149,-0.2687642,1.701639,-0.1476711,-0.02377299,1.729805,0.2547322,-0.03572587,1.745493,NA,NA,NotTracked,NotTracked,
0.9453125,-0.3037109,0.03320313,0.9082031,0.3544922,0.1088867,-2,0,0,-2,-2,0,1,0,0,-2,-2,-1,-1,0,0,-2,0.5,0.5,0.5,-1.125,-1.125,-1.125,2.628678,3.00441,9.150581,7.032542,3.10603,2.680819,-0.1225567,-0.4015576,1.635232,0.2301752,-0.4011538,1.621786,0.0795593,0.5211149,1.713174,-0.1679476,-0.429301,1.631812,0.1818862,-0.3567788,1.608613,0.05954056,0.05215045,1.750077,0.06145174,-0.2750676,1.743873,-0.1133667,0.233697,1.725463,-0.01986947,-0.2687653,1.701644,-0.1476716,-0.02378052,1.729762,0.2547197,-0.03511878,1.745512,NA,NA,NotTracked,Unknown,
0.9453125,-0.3037109,0.03320313,0.9047852,0.3500977,0.1152344,-2,0,0,-2,-2,0,1,0,0,-1,-1,0,-1,0,-2,-2,0.5,0.5,0.5,-1.5625,-1.5625,-1.5625,2.628678,3.00441,9.150581,7.030112,3.106453,2.681419,-0.1220194,-0.400398,1.634693,0.2318337,-0.3940992,1.623208,0.0791273,0.52089,1.712539,-0.1678307,-0.4193668,1.634194,0.1815057,-0.3502344,1.606626,0.05960005,0.0520713,1.749921,0.0614734,-0.2751038,1.7438,-0.1132348,0.2335686,1.725664,-0.01986694,-0.2688233,1.701579,-0.1477229,-0.0235561,1.729729,0.254409,-0.03656088,1.745479,NA,NA,NotTracked,Unknown,
0.9453125,-0.3037109,0.03320313,0.9042969,0.3540039,0.1079102,-2,0,0,-2,-2,0,1,0,0,-1,-1,0,0,-1,-1,-2,0.5,0.5,0.5,-2.5,-2.5,-2.5,2.628678,3.00441,9.150581,7.027399,3.107389,2.681729,-0.1221466,-0.4015222,1.63489,0.2323205,-0.3908306,1.623954,0.07906583,0.520826,1.712463,-0.1687305,-0.4136491,1.637814,0.1804942,-0.3785444,1.605077,0.0596064,0.05204853,1.749854,0.0614815,-0.2751086,1.743782,-0.1132421,0.2334225,1.725802,-0.01985655,-0.2688386,1.701538,-0.1477045,-0.02357477,1.729719,0.2544693,-0.03569459,1.745375,NA,NA,NotTracked,Unknown,
0.9453125,-0.3037109,0.03320313,0.90625,0.3500977,0.1196289,-2,0,0,-2,-2,0,1,0,-1,-2,1,0,-1,-2,-1,-2,0.5,0.5,0.5,-0.9375,-0.9375,-0.9375,2.628678,3.00441,9.150581,7.025228,3.108626,2.681911,-0.1222007,-0.4009254,1.633853,0.2316367,-0.3904018,1.623217,0.07899182,0.5207881,1.71236,-0.1684998,-0.3968152,1.634049,0.1808074,-0.3596065,1.605752,0.0595936,0.05201095,1.749768,0.0614935,-0.2751259,1.74374,-0.1132564,0.2332438,1.725868,-0.01984836,-0.2688653,1.701494,-0.1476935,-0.02386089,1.729613,0.2544111,-0.03523558,1.745213,NA,NA,NotTracked,NotTracked,
0.9453125,-0.3037109,0.03320313,0.8974609,0.3515625,0.1118164,-2,0,0,-2,-2,0,1,0,0,0,0,-2,0,0,-1,1,0.5,0.5,0.5,-0.1875,-0.1875,-0.1875,2.628678,3.00441,9.150581,7.025876,3.10928,2.68111,-0.1221879,-0.4006055,1.634662,0.232161,-0.390975,1.62449,0.07890182,0.5208304,1.712219,-0.1684025,-0.4094259,1.635555,0.1823443,-0.345655,1.608775,0.05965483,0.05203647,1.749698,0.06152949,-0.2751192,1.743718,-0.11317,0.2331918,1.725915,-0.01982069,-0.268867,1.701487,-0.1476924,-0.02386338,1.72961,0.254303,-0.03657474,1.745286,NA,NA,NotTracked,NotTracked,
0.9453125,-0.3037109,0.03320313,0.9003906,0.3554688,0.1064453,-2,0,0,-2,-2,0,1,0,-1,-1,0,1,-1,0,0,-1,0.5,0.5,0.5,-0.25,-0.25,-0.25,2.628678,3.00441,9.150581,7.025978,3.109316,2.680866,-0.1219821,-0.400176,1.633527,0.2318493,-0.3907459,1.622419,0.07878809,0.5208566,1.71192,-0.1673421,-0.4054177,1.632572,0.1821944,-0.3492011,1.606106,0.05968519,0.05205733,1.74951,0.06153329,-0.275088,1.743648,-0.1131072,0.2332222,1.725914,-0.01982075,-0.2688622,1.701425,-0.1477109,-0.02373557,1.729596,0.2544926,-0.0356831,1.744781,NA,NA,NotTracked,NotTracked,
0.9453125,-0.3037109,0.03320313,0.9018555,0.3496094,0.1147461,-2,0,0,-2,-2,0,1,0,0,0,-2,-1,0,-1,1,-1,0.5,0.5,0.5,-0.4375,-0.4375,-0.4375,2.628678,3.00441,9.150581,7.025288,3.109689,2.681556,-0.1219312,-0.4006346,1.63447,0.2317038,-0.389964,1.624226,0.07844788,0.5206792,1.711424,-0.1682333,-0.4116328,1.63527,0.1823055,-0.3447426,1.606498,0.05970398,0.05201701,1.749437,0.06153899,-0.2751023,1.743631,-0.1131013,0.2332066,1.725958,-0.01982093,-0.2688807,1.701412,-0.1477695,-0.02352637,1.729573,0.2545135,-0.03502478,1.744605,NA,NA,NotTracked,NotTracked,
0.9453125,-0.3037109,0.03320313,0.90625,0.3564453,0.1166992,-2,0,0,-2,-2,0,1,0,-2,-1,0,-1,0,-1,-1,-1,0.5,0.5,0.5,1.0625,1.0625,1.0625,2.628678,3.00441,9.150581,7.026129,3.109448,2.681276,-0.1221404,-0.4007861,1.634904,0.2325815,-0.3903922,1.624815,0.07837471,0.520652,1.711238,-0.1674098,-0.4333689,1.629941,0.1816002,-0.3548422,1.608085,0.05972253,0.05203074,1.749429,0.06154701,-0.2750931,1.743634,-0.113089,0.2332084,1.726031,-0.01981883,-0.2688796,1.701413,-0.1477546,-0.02354955,1.729591,0.2545021,-0.03472045,1.744689,NA,NA,NotTracked,NotTracked,
0.9453125,-0.3037109,0.03320313,0.9038086,0.3579102,0.1088867,-2,0,0,-2,-2,0,1,0,0,0,0,-1,-1,0,-1,-1,0.5,0.5,0.5,1.4375,1.4375,1.4375,2.628678,3.00441,9.150581,7.027601,3.10924,2.681216,-0.1224131,-0.4006046,1.634579,0.2322704,-0.3912555,1.623877,0.07819835,0.5206519,1.710985,-0.1686345,-0.401453,1.636605,0.180649,-0.3676406,1.60512,0.05974908,0.0520107,1.749387,0.06155276,-0.2750948,1.743623,-0.1130536,0.2332205,1.726104,-0.01981659,-0.2688836,1.701416,-0.1476761,-0.0237984,1.729499,0.254475,-0.0341451,1.744689,NA,NA,NotTracked,NotTracked,
0.9453125,-0.3037109,0.03320313,0.9077148,0.3554688,0.1074219,-2,0,0,-2,-2,0,1,0,0,-1,0,-1,0,-1,-3,-1,0.5,0.5,0.5,1.5625,1.5625,1.5625,2.628678,3.00441,9.150581,7.028583,3.108814,2.681782,-0.1221071,-0.4009301,1.633803,0.2319568,-0.3895197,1.623988,0.07808132,0.5204996,1.71089,-0.1678374,-0.4127154,1.63257,0.1815202,-0.3561791,1.606687,0.05971665,0.05189895,1.749321,0.06156402,-0.2751455,1.743595,-0.1130024,0.2331093,1.726143,-0.01981292,-0.2689306,1.701387,-0.1476683,-0.0238524,1.729493,0.2545803,-0.03373772,1.744599,NA,NA,NotTracked,NotTracked,
0.9453125,-0.3037109,0.03320313,0.9091797,0.3564453,0.1123047,-2,0,0,-2,-2,0,1,0,1,-1,-1,-1,-1,0,-1,-1,0.5,0.5,0.5,2.875,2.875,2.875,2.628678,3.00441,9.150581,7.030823,3.109101,2.682211,-0.1226231,-0.4009897,1.635571,0.232389,-0.3892549,1.624573,0.07801317,0.5204577,1.710501,-0.1677691,-0.4052179,1.634959,0.1799978,-0.3740253,1.605478,0.05972973,0.05188496,1.749299,0.06158406,-0.2751562,1.743592,-0.1129976,0.2331033,1.726156,-0.01978807,-0.2689516,1.701371,-0.1476269,-0.02377152,1.729486,0.2545041,-0.035065,1.744934,NA,NA,NotTracked,NotTracked,
0.9453125,-0.3037109,0.03320313,0.9023438,0.3535156,0.1083984,-2,0,0,-2,-2,0,1,0,0,0,-1,-1,-4,-1,0,0,0.5,0.5,0.5,2.9375,2.9375,2.9375,2.628678,3.00441,9.150581,7.035768,3.108634,2.680785,-0.1224735,-0.4007779,1.635022,0.2325027,-0.3887699,1.624382,0.07778196,0.5202345,1.709809,-0.1671095,-0.4204957,1.633594,0.1812056,-0.3585873,1.606262,0.05972937,0.05188558,1.749284,0.06160029,-0.2751521,1.743578,-0.1135587,0.2331023,1.725578,-0.0197714,-0.2689584,1.701361,-0.1476956,-0.02349212,1.729459,0.2547296,-0.03366345,1.744671,NA,NA,NotTracked,NotTracked,
0.9453125,-0.3037109,0.03320313,0.9072266,0.3491211,0.1147461,-2,0,0,-2,-2,0,1,0,0,0,-1,-1,0,0,0,0,0.5,0.5,0.5,-0.4375,-0.4375,-0.4375,2.628678,3.00441,9.150581,7.035243,3.10879,2.681872,-0.121475,-0.3998516,1.634967,0.2324082,-0.3885334,1.624503,0.07771904,0.5201842,1.709582,-0.1659954,-0.4189689,1.630582,0.1814953,-0.3596916,1.606688,0.05972983,0.0518931,1.749265,0.06161205,-0.2751341,1.743573,-0.1135566,0.2331064,1.725612,-0.0197647,-0.2689419,1.701344,-0.1476719,-0.02347593,1.729482,0.2547333,-0.03231589,1.744353,NA,NA,NotTracked,NotTracked,
0.9453125,-0.3037109,0.03320313,0.9082031,0.3525391,0.1083984,-2,0,0,-2,-2,0,1,0,0,1,-2,-2,-1,0,-2,-1,0.5,0.5,0.5,0.4375,0.4375,0.4375,2.628678,3.00441,9.150581,7.036704,3.10877,2.680269,-0.1215576,-0.4006368,1.634545,0.2330757,-0.3886191,1.623747,0.07766234,0.520044,1.709455,-0.167733,-0.4264699,1.633679,0.1815564,-0.3596691,1.606616,0.05972117,0.05187318,1.749221,0.06162346,-0.2751454,1.743568,-0.1135039,0.2330608,1.725664,-0.01975684,-0.2689572,1.701339,-0.1475711,-0.02333558,1.729473,0.2547231,-0.032301,1.744339,NA,NA,NotTracked,NotTracked,
0.9453125,-0.3037109,0.03320313,0.9038086,0.3491211,0.1074219,-2,0,0,-2,-2,0,1,0,1,0,-1,0,-1,-2,0,-2,0.5,0.5,0.5,-0.75,-0.75,-0.75,2.628678,3.00441,9.150581,7.0379,3.108268,2.678936,-0.1219366,-0.4005305,1.634682,0.2329172,-0.3891982,1.624085,0.0774909,0.5198842,1.708841,-0.1672705,-0.4047672,1.63327,0.1825525,-0.3427514,1.607932,0.05972075,0.0518375,1.749195,0.06164022,-0.2751715,1.743562,-0.1135199,0.2329729,1.725719,-0.0197414,-0.2690039,1.701346,-0.1475571,-0.02331809,1.729442,0.2547414,-0.03224237,1.744351,NA,NA,NotTracked,NotTracked,
0.9453125,-0.3037109,0.03320313,0.902832,0.3544922,0.1098633,-2,0,0,-2,-2,0,1,0,0,-1,0,2,0,0,1,-1,0.5,0.5,0.5,-1.25,-1.25,-1.25,2.628678,3.00441,9.150581,7.033895,3.10836,2.681818,-0.122471,-0.4011137,1.635184,0.2333872,-0.3894252,1.625164,0.07746556,0.5198776,1.708554,-0.1677991,-0.406124,1.636171,0.1830439,-0.3495709,1.608029,0.0597258,0.05182983,1.749179,0.06164057,-0.2751729,1.743561,-0.1134198,0.2329607,1.725837,-0.01974289,-0.2690054,1.701345,-0.1475411,-0.0232323,1.729479,0.2547574,-0.03219447,1.744362,NA,NA,NotTracked,NotTracked,
0.9453125,-0.3037109,0.03320313,0.9082031,0.3496094,0.112793,-2,0,0,-2,-2,0,1,0,-1,0,-2,-2,0,-1,0,0,0.5,0.5,0.5,-0.9375,-0.9375,-0.9375,2.628678,3.00441,9.150581,7.032368,3.108633,2.682782,-0.1217498,-0.4007146,1.635629,0.233512,-0.388909,1.625483,0.07745599,0.5198295,1.708307,-0.1646314,-0.4318548,1.624303,0.1804253,-0.3733274,1.6079,0.05976716,0.05177627,1.749184,0.06171731,-0.2752049,1.743575,-0.1132125,0.2328818,1.726147,-0.01966599,-0.2690714,1.701412,-0.1474993,-0.02334671,1.729541,0.2548511,-0.03376558,1.744571,NA,NA,NotTracked,NotTracked,
0.9453125,-0.3037109,0.03320313,0.9023438,0.3544922,0.105957,-2,0,0,-2,-2,0,1,0,0,-2,-1,1,-2,-1,-1,0,0.5,0.5,0.5,-3.25,-3.25,-3.25,2.628678,3.00441,9.150581,7.028674,3.109805,2.683923,-0.1223304,-0.4008402,1.634875,0.2333962,-0.3889607,1.624617,0.07746651,0.5198128,1.708241,-0.167219,-0.40982,1.632618,0.1815721,-0.3611979,1.607518,0.05977206,0.05176412,1.749162,0.06172655,-0.2752062,1.743567,-0.1130698,0.2329344,1.726249,-0.01965805,-0.2690706,1.701411,-0.1473902,-0.02341187,1.72953,0.2549008,-0.03355724,1.744579,NA,NA,NotTracked,NotTracked,
0.9453125,-0.3037109,0.03320313,0.9052734,0.3544922,0.1181641,-2,0,0,-2,-2,0,1,0,-1,0,-1,-2,-1,1,0,-1,0.5,0.5,0.5,-2.8125,-2.8125,-2.8125,2.628678,3.00441,9.150581,7.022523,3.111786,2.686383,-0.1219325,-0.4005453,1.635257,0.233743,-0.388639,1.625175,0.07757025,0.5194234,1.707989,-0.1683259,-0.4170214,1.638344,0.1816259,-0.360652,1.607518,0.05978933,0.05174936,1.749172,0.06176572,-0.2752022,1.743577,-0.1134142,0.2330596,1.725709,-0.01961089,-0.2690752,1.701434,-0.1472075,-0.02416503,1.72975,0.2550547,-0.03337912,1.744654,NA,NA,NotTracked,NotTracked,
0.9453125,-0.3037109,0.03320313,0.9052734,0.3540039,0.1147461,-2,0,0,-2,-2,0,1,0,-1,1,-2,-2,-1,0,0,-1,0.5,0.5,0.5,-3.5,-3.5,-3.5,2.628678,3.00441,9.150581,7.019007,3.113604,2.686355,-0.1222087,-0.4004906,1.63365,0.2336404,-0.3883473,1.624258,0.07769603,0.5193316,1.707723,-0.1670612,-0.4169949,1.632875,0.1808477,-0.3717098,1.60544,0.05979769,0.05172046,1.749151,0.06178217,-0.2752076,1.743548,-0.113289,0.2330766,1.72577,-0.01959249,-0.2690731,1.701398,-0.147196,-0.02415915,1.729708,0.2551658,-0.03304117,1.744574,NA,NA,NotTracked,NotTracked,
0.9453125,-0.3037109,0.03320313,0.9023438,0.3515625,0.1152344,-2,0,0,-2,-2,0,1,0,0,-2,-1,0,0,-2,0,0,0.5,0.5,0.5,-3.0625,-3.0625,-3.0625,2.628678,3.00441,9.150581,7.015559,3.114698,2.685987,-0.121962,-0.4009692,1.633956,0.2337898,-0.3883217,1.62489,0.07773302,0.519394,1.707612,-0.1667337,-0.4182654,1.631934,0.1816694,-0.3862898,1.606572,0.05984942,0.05172312,1.749135,0.06187727,-0.2751841,1.743521,-0.1132172,0.233079,1.725815,-0.01950515,-0.2690538,1.701388,-0.1471492,-0.02404437,1.729636,0.2552297,-0.03262269,1.744584,NA,NA,NotTracked,NotTracked,
0.9453125,-0.3037109,0.03320313,0.9038086,0.3554688,0.1245117,-2,0,0,-2,-2,0,1,0,-1,-2,-2,-2,-1,0,-1,-2,0.5,0.5,0.5,-2.375,-2.375,-2.375,2.628678,3.00441,9.150581,7.010845,3.115598,2.687585,-0.1210478,-0.4006035,1.633921,0.2338571,-0.3888895,1.625011,0.07782999,0.5193898,1.707443,-0.1667705,-0.4382029,1.631412,0.1821994,-0.3784952,1.6072,0.05995619,0.05171585,1.749123,0.06202251,-0.2751763,1.743508,-0.1125937,0.2330881,1.726139,-0.01938482,-0.2690439,1.701399,-0.1471498,-0.02387421,1.729629,0.2552494,-0.03218268,1.744725,NA,NA,NotTracked,NotTracked,
0.9453125,-0.3037109,0.03320313,0.9038086,0.3564453,0.1230469,-2,0,0,-2,-2,0,1,0,1,0,-2,-2,0,-1,-1,-2,0.5,0.5,0.5,-1.9375,-1.9375,-1.9375,2.628678,3.00441,9.150581,7.00788,3.117079,2.688421,-0.1212551,-0.4006747,1.633805,0.2338379,-0.3885703,1.62514,0.0778669,0.5193895,1.707416,-0.1646757,-0.4435879,1.624105,0.1811385,-0.381263,1.607727,0.0599788,0.05172428,1.749118,0.06205557,-0.2751428,1.743505,-0.1125552,0.2330702,1.726161,-0.0193499,-0.2690116,1.701392,-0.1470703,-0.02379855,1.729615,0.2552015,-0.03386042,1.745076,NA,NA,NotTracked,NotTracked,
0.9453125,-0.3037109,0.03320313,0.9042969,0.3486328,0.1181641,-2,0,0,-2,-2,0,1,0,-3,0,-3,-3,-1,-1,-1,-1,0.5,0.5,0.5,-0.3125,-0.3125,-0.3125,2.628678,3.00441,9.150581,7.00659,3.117411,2.688859,-0.124246,-0.3851116,1.639255,0.2342479,-0.3889298,1.625432,0.07792315,0.5193616,1.707402,-0.1709476,-0.3993588,1.6474,0.1840069,-0.3577598,1.608135,0.05999033,0.05171463,1.749122,0.06206733,-0.2751432,1.743504,-0.1124314,0.2330455,1.726256,-0.01933589,-0.269013,1.701381,-0.1470663,-0.02380095,1.729612,0.2552033,-0.03376494,1.745153,NA,NA,NotTracked,NotTracked,
0.9453125,-0.3037109,0.03320313,0.9047852,0.3554688,0.1171875,-2,0,0,-2,-2,0,1,0,0,0,-2,0,-1,0,-1,0,0.5,0.5,0.5,0.75,0.75,0.75,2.628678,3.00441,9.150581,7.006026,3.117476,2.689278,-0.1216937,-0.3961468,1.634834,0.2345726,-0.3885581,1.624613,0.07801789,0.5193278,1.707386,-0.1641269,-0.4364972,1.624037,0.1846463,-0.3385999,1.607658,0.06002736,0.05164165,1.749099,0.06211312,-0.2751903,1.743476,-0.1122939,0.2328784,1.726297,-0.01930371,-0.2690529,1.70135,-0.1470352,-0.02376976,1.729633,0.255228,-0.03358883,1.745126,NA,NA,NotTracked,NotTracked,
0.9453125,-0.3037109,0.03320313,0.8964844,0.3623047,0.1201172,-2,0,0,-2,-2,0,1,0,1,-1,-1,0,-2,0,0,-2,0.5,0.5,0.5,-0.125,-0.125,-0.125,2.628678,3.00441,9.150581,7.005348,3.117845,2.689957,-0.1218609,-0.4009796,1.633526,0.2334016,-0.3888993,1.62389,0.07811364,0.5193214,1.70728,-0.1653074,-0.4348038,1.628091,0.1837583,-0.3507632,1.607711,0.0600832,0.05164669,1.749111,0.06215753,-0.275178,1.743464,-0.1121393,0.2328916,1.726472,-0.01926972,-0.2690403,1.701334,-0.1469694,-0.023365,1.729564,0.2553153,-0.03271911,1.745144,NA,NA,NotTracked,NotTracked,
0.9453125,-0.3037109,0.03320313,0.902832,0.3530273,0.1264648,-2,0,0,-2,-2,0,1,0,0,-1,-1,-1,-1,0,1,-1,0.5,0.5,0.5,-0.375,-0.375,-0.375,2.628678,3.00441,9.150581,7.005463,3.11754,2.689697,-0.120785,-0.4009221,1.634008,0.234812,-0.3888009,1.624942,0.07822289,0.5193352,1.707268,-0.1688327,-0.4244074,1.639769,0.1839512,-0.3504851,1.607896,0.06009736,0.05163227,1.749102,0.06218986,-0.2751758,1.743452,-0.1125363,0.2331504,1.725855,-0.01923042,-0.2690347,1.701298,-0.1468888,-0.02325535,1.729603,0.2553177,-0.03261186,1.745168,NA,NA,NotTracked,NotTracked,
0.9453125,-0.3037109,0.03320313,0.9091797,0.347168,0.1235352,-2,0,0,-2,-2,0,1,0,-1,0,-1,-1,-2,-2,-1,-1,0.5,0.5,0.5,1.3125,1.3125,1.3125,2.628678,3.00441,9.150581,7.005518,3.117302,2.690346,-0.121241,-0.4010741,1.635027,0.2337568,-0.3885125,1.625404,0.07831345,0.5193557,1.707387,-0.166922,-0.4348767,1.632653,0.1835337,-0.3612134,1.608944,0.06014208,0.05162475,1.749117,0.06222891,-0.2751776,1.743466,-0.1124133,0.2331137,1.726062,-0.01918963,-0.2690394,1.70131,-0.1468132,-0.023189,1.729591,0.2550812,-0.03498506,1.745704,NA,NA,NotTracked,NotTracked,
0.9453125,-0.3037109,0.03320313,0.9042969,0.355957,0.1181641,-2,0,0,-2,-2,0,1,0,0,-1,-2,0,0,-2,-1,-2,0.5,0.5,0.5,3.3125,3.3125,3.3125,2.628678,3.00441,9.150581,7.010372,3.117188,2.688593,-0.1215005,-0.400652,1.634045,0.2330501,-0.3888688,1.624435,0.07835095,0.5193665,1.707404,-0.1671254,-0.4363503,1.633849,0.1834798,-0.3563372,1.607984,0.06014337,0.0516194,1.749117,0.06222997,-0.2751759,1.743459,-0.1123107,0.2331211,1.726156,-0.01919224,-0.2690402,1.701302,-0.1468132,-0.02312835,1.729542,0.2551237,-0.0338487,1.745698,NA,NA,NotTracked,NotTracked,
0.9453125,-0.3037109,0.03320313,0.8984375,0.355957,0.1118164,-2,0,0,-2,-2,0,1,0,0,1,0,-3,-1,-1,1,-1,0.5,0.5,0.5,1.25,1.25,1.25,2.628678,3.00441,9.150581,7.011466,3.117593,2.689614,-0.1216785,-0.4005796,1.634307,0.233476,-0.3888252,1.624439,0.07842842,0.5192732,1.707411,-0.1674822,-0.4270592,1.634476,0.183677,-0.3539648,1.608188,0.06016847,0.0515976,1.749097,0.06226466,-0.2751981,1.743428,-0.1121985,0.2331216,1.726246,-0.01914977,-0.2690667,1.701264,-0.1468175,-0.02311475,1.729538,0.2551537,-0.03366043,1.745696,NA,NA,NotTracked,NotTracked,
0.9453125,-0.3037109,0.03320313,0.9013672,0.3549805,0.1186523,-2,0,0,-2,-2,0,1,0,0,-1,-1,-1,1,0,-1,1,0.5,0.5,0.5,0.5,0.5,0.5,2.628678,3.00441,9.150581,7.011579,3.117287,2.689356,-0.1215717,-0.3983715,1.63601,0.2338126,-0.3888303,1.626046,0.07847348,0.5191878,1.707374,-0.1660957,-0.4102544,1.634842,0.1807739,-0.3814321,1.607118,0.06019012,0.05157118,1.749123,0.06232335,-0.2752202,1.743426,-0.1120671,0.2330414,1.726573,-0.01909876,-0.2690761,1.701261,-0.1468133,-0.02242372,1.729754,0.2550712,-0.03324212,1.745713,NA,NA,NotTracked,NotTracked,
0.9453125,-0.3037109,0.03320313,0.9091797,0.3535156,0.1220703,-2,0,0,-2,-2,0,1,0,-2,2,0,1,2,-1,1,-2,0.5,0.5,0.5,0.5625,0.5625,0.5625,2.628678,3.00441,9.150581,7.0109,3.117657,2.690035,-0.1215287,-0.3983423,1.634711,0.233456,-0.3888731,1.624357,0.07848441,0.5191618,1.707377,-0.1659003,-0.4174816,1.629909,0.1835588,-0.3504952,1.608474,0.06022364,0.05153253,1.749107,0.06235494,-0.2752424,1.743412,-0.1119913,0.2330325,1.726693,-0.01906359,-0.2691081,1.701243,-0.1468278,-0.02247434,1.7297,0.2549624,-0.03504575,1.745703,NA,NA,NotTracked,NotTracked,
0.9453125,-0.3037109,0.03320313,0.9091797,0.3535156,0.1220703,-2,0,0,-2,-2,0,1,0,-3,-2,-2,0,-2,-1,-1,0,0.5,0.5,0.5,0.5625,0.5625,0.5625,2.628678,3.00441,9.150581,7.0109,3.117657,2.690035,-0.1213544,-0.3988245,1.635086,0.23384,-0.3887309,1.624942,0.07850973,0.5191067,1.707366,-0.1671793,-0.429182,1.633359,0.1816467,-0.382885,1.607046,0.06021766,0.05151452,1.749106,0.06237139,-0.2752624,1.743399,-0.1118111,0.2330472,1.726837,-0.01905732,-0.2691221,1.70124,-0.1468199,-0.02245588,1.729659,0.2549699,-0.03494167,1.745655,NA,NA,NotTracked,NotTracked,
0.9453125,-0.3037109,0.03320313,0.90625,0.3583984,0.1196289,-2,0,0,-2,-2,0,1,0,0,0,-1,-1,-1,-1,-1,1,0.5,0.5,0.5,1,1,1,2.628678,3.00441,9.150581,7.011435,3.117962,2.689914,-0.1219664,-0.399423,1.635272,0.2340493,-0.3881321,1.625357,0.07854356,0.5191106,1.707343,-0.1680128,-0.4099514,1.63396,0.1812938,-0.3828979,1.6043,0.06021404,0.05152443,1.749114,0.06235353,-0.2752129,1.743417,-0.1123328,0.2331969,1.726219,-0.01906829,-0.2690854,1.70124,-0.1468057,-0.02233247,1.729748,0.2549712,-0.03474601,1.745656,NA,NA,NotTracked,NotTracked,
0.9453125,-0.3037109,0.03320313,0.9038086,0.3554688,0.1171875,-2,0,0,-2,-2,0,1,0,-1,-2,-2,0,0,-1,0,-2,0.5,0.5,0.5,0,0,0,2.628678,3.00441,9.150581,7.011624,3.117724,2.689861,-0.1217477,-0.3984455,1.634784,0.2334312,-0.388739,1.62492,0.07854825,0.5191085,1.707329,-0.1692179,-0.4098333,1.641,0.1803253,-0.380076,1.607406,0.06021068,0.05151055,1.749123,0.06237363,-0.2752318,1.743405,-0.1122233,0.2331667,1.726306,-0.01905244,-0.2691058,1.701227,-0.1468108,-0.02238454,1.729809,0.2549444,-0.03445161,1.745656,NA,NA,NotTracked,NotTracked,
0.9453125,-0.3037109,0.03320313,0.9013672,0.3520508,0.1123047,-2,0,0,-2,-2,0,1,0,0,-1,-1,0,-1,-1,-1,-2,0.5,0.5,0.5,0.125,0.125,0.125,2.628678,3.00441,9.150581,7.011049,3.118129,2.690294,-0.1216399,-0.3988497,1.63664,0.2337184,-0.3887992,1.626298,0.07866141,0.5190941,1.707456,-0.1673102,-0.4217353,1.633231,0.1841352,-0.3430606,1.610778,0.06022272,0.05150787,1.749169,0.06243119,-0.2752317,1.743451,-0.1118228,0.2331287,1.726693,-0.01900396,-0.269114,1.701258,-0.1467236,-0.02192857,1.730062,0.254903,-0.03526471,1.746144,NA,NA,NotTracked,NotTracked,
0.9453125,-0.3037109,0.03320313,0.902832,0.3540039,0.1147461,-2,0,0,-2,-2,0,1,0,0,-1,0,0,0,1,0,-1,0.5,0.5,0.5,-0.875,-0.875,-0.875,2.628678,3.00441,9.150581,7.011049,3.118129,2.690294,-0.1215538,-0.3985071,1.635821,0.2340649,-0.3886228,1.625795,0.07868461,0.5190759,1.707457,-0.1672574,-0.4061699,1.635829,0.1833881,-0.3545423,1.609348,0.06022365,0.05151013,1.749186,0.06243744,-0.2752321,1.743457,-0.1117189,0.2330853,1.726815,-0.01900023,-0.2691155,1.701257,-0.1467739,-0.02169263,1.730149,0.254947,-0.03480746,1.746098,NA,NA,NotTracked,NotTracked,
0.9453125,-0.3037109,0.03320313,0.9042969,0.3520508,0.1206055,-2,0,0,-2,-2,0,1,0,-1,0,-1,1,0,1,-1,-1,0.5,0.5,0.5,-1.1875,-1.1875,-1.1875,2.628678,3.00441,9.150581,7.007991,3.118253,2.691941,-0.1217945,-0.3980232,1.634907,0.2333437,-0.3887475,1.624747,0.0787065,0.5190133,1.707399,-0.1677422,-0.4238642,1.635733,0.1809946,-0.3869878,1.605191,0.0602105,0.05148895,1.749195,0.06243093,-0.2752612,1.743441,-0.1116981,0.2329879,1.726864,-0.01901054,-0.2691334,1.701243,-0.1468726,-0.02180446,1.730103,0.2549498,-0.03465229,1.746016,NA,NA,NotTracked,NotTracked,
0.9453125,-0.3037109,0.03320313,0.9013672,0.359375,0.1137695,-2,0,0,-2,-2,0,1,0,-2,-2,-3,-3,-1,-2,-2,-1,0.5,0.5,0.5,-0.25,-0.25,-0.25,2.628678,3.00441,9.150581,7.008094,3.118288,2.691694,-0.1221423,-0.3983564,1.635744,0.2334613,-0.3889675,1.625513,0.07877555,0.5189204,1.707406,-0.1682167,-0.4059458,1.637031,0.1813034,-0.3849882,1.608411,0.06021492,0.05146778,1.749218,0.06244086,-0.2752642,1.74345,-0.1116838,0.2330475,1.726956,-0.01899821,-0.2691354,1.701263,-0.1468814,-0.02182486,1.730136,0.2549233,-0.03433729,1.746065,NA,NA,NotTracked,NotTracked,
0.9453125,-0.3037109,0.03320313,0.902832,0.3574219,0.1196289,-2,0,0,-2,-2,0,1,0,0,0,0,0,0,-1,0,-2,0.5,0.5,0.5,-0.375,-0.375,-0.375,2.628678,3.00441,9.150581,7.008273,3.11839,2.691653,-0.121939,-0.3984524,1.635868,0.2330997,-0.3887107,1.625833,0.07879987,0.5188932,1.707441,-0.1680523,-0.4139205,1.636015,0.1804487,-0.3920991,1.609,0.06021079,0.05146091,1.749244,0.06244999,-0.2752728,1.74347,-0.1116056,0.2330044,1.727137,-0.01899102,-0.2691416,1.701281,-0.1469772,-0.02189643,1.730095,0.2549485,-0.03401372,1.746112,NA,NA,NotTracked,NotTracked,
0.9453125,-0.3037109,0.03320313,0.8974609,0.3583984,0.1142578,-2,0,0,-2,-2,0,1,0,0,-1,-2,-1,-1,-1,-1,-1,0.5,0.5,0.5,0.75,0.75,0.75,2.628678,3.00441,9.150581,7.007699,3.118794,2.692085,-0.1216589,-0.3983111,1.63551,0.2335433,-0.3891402,1.625682,0.07883555,0.5186434,1.707446,-0.1684455,-0.4096119,1.637131,0.1818268,-0.3715723,1.607567,0.06018227,0.05137341,1.749298,0.0624314,-0.2753358,1.743497,-0.1122933,0.2330225,1.726552,-0.01900935,-0.2691976,1.701276,-0.1469977,-0.02190981,1.730101,0.2549421,-0.03502357,1.746217,NA,NA,NotTracked,NotTracked,
0.9453125,-0.3037109,0.03320313,0.9047852,0.3588867,0.125,-2,0,0,-2,-2,0,1,0,-2,-2,-2,0,-1,1,-1,0,0.5,0.5,0.5,0.75,0.75,0.75,2.628678,3.00441,9.150581,7.007878,3.118896,2.692044,-0.1219646,-0.398637,1.636067,0.2333787,-0.3891026,1.625768,0.07883523,0.5186473,1.70743,-0.1686999,-0.4063222,1.637638,0.1814402,-0.3725816,1.606865,0.06020537,0.05135925,1.749287,0.06246315,-0.2753519,1.743492,-0.112258,0.2328502,1.726707,-0.01898349,-0.2692192,1.701271,-0.1470193,-0.02192553,1.730105,0.2548144,-0.03446096,1.746263,NA,NA,NotTracked,NotTracked,
0.9453125,-0.3037109,0.03320313,0.90625,0.3549805,0.1210938,-2,0,0,-2,-2,0,1,0,-1,-1,-1,-1,-2,-4,-2,-1,0.5,0.5,0.5,3.25,3.25,3.25,2.628678,3.00441,9.150581,7.010029,3.118115,2.692436,-0.1212969,-0.3983417,1.635789,0.2331736,-0.3892702,1.626242,0.07884311,0.5185603,1.707435,-0.1672942,-0.4105787,1.634256,0.1837934,-0.3492728,1.612491,0.06018691,0.05131479,1.749347,0.06244443,-0.2753793,1.743568,-0.1122871,0.2328112,1.726905,-0.01900149,-0.2692665,1.701353,-0.1470139,-0.0220603,1.730236,0.2544499,-0.03676532,1.746554,NA,NA,NotTracked,NotTracked,
0.9453125,-0.3037109,0.03320313,0.9047852,0.3525391,0.1152344,-2,0,0,-2,-2,0,1,0,-2,0,-1,-1,-2,-1,0,0,0.5,0.5,0.5,2.3125,2.3125,2.3125,2.628678,3.00441,9.150581,7.015203,3.117259,2.692063,-0.1214228,-0.3985027,1.636253,0.2333346,-0.3894387,1.626137,0.07885724,0.5185416,1.707413,-0.1676822,-0.4218411,1.636312,0.1819386,-0.3720267,1.607522,0.06017378,0.05131499,1.749391,0.06244355,-0.2753789,1.743581,-0.1122767,0.2327988,1.72698,-0.01900341,-0.2692691,1.701414,-0.1470324,-0.02207799,1.730265,0.2545172,-0.0359712,1.746565,NA,NA,NotTracked,NotTracked,
0.9453125,-0.3037109,0.03320313,0.902832,0.3540039,0.1230469,-2,0,0,-2,-2,0,1,0,0,-2,-1,-1,-2,0,0,-1,0.5,0.5,0.5,2.3125,2.3125,2.3125,2.628678,3.00441,9.150581,7.013465,3.116337,2.696347,-0.1219841,-0.3988915,1.636894,0.2337305,-0.3896118,1.626509,0.07883281,0.518509,1.707448,-0.1676133,-0.4123662,1.635518,0.1833307,-0.3431154,1.610108,0.06018908,0.05128518,1.749452,0.06244647,-0.275414,1.74362,-0.1121985,0.2327212,1.727165,-0.0190067,-0.2693022,1.701473,-0.1469441,-0.02244582,1.730446,0.2545903,-0.03521094,1.746695,NA,NA,NotTracked,NotTracked,
0.9453125,-0.3037109,0.03320313,0.9033203,0.3544922,0.1157227,-2,0,0,-2,-2,0,1,0,-2,-1,0,-1,-1,-1,-2,-2,0.5,0.5,0.5,3.3125,3.3125,3.3125,2.628678,3.00441,9.150581,7.014906,3.115812,2.696742,-0.1221432,-0.3989371,1.636807,0.2330277,-0.3889005,1.626414,0.07882441,0.5184723,1.707444,-0.1682096,-0.4035656,1.637,0.1824161,-0.3598236,1.608737,0.06013267,0.05131142,1.749608,0.06237395,-0.2753499,1.743715,-0.1127709,0.2329811,1.726895,-0.01905467,-0.2692578,1.701552,-0.1471266,-0.02213605,1.730584,0.2547071,-0.03410461,1.746809,NA,NA,NotTracked,NotTracked,
0.9453125,-0.3037109,0.03320313,0.9077148,0.3486328,0.1118164,-2,0,0,-2,-2,0,1,0,0,-2,-1,0,0,-1,-3,0,0.5,0.5,0.5,2.375,2.375,2.375,2.628678,3.00441,9.150581,7.017537,3.11442,2.699341,-0.1219946,-0.3984454,1.635367,0.2334425,-0.3887875,1.625773,0.07881006,0.5184762,1.707445,-0.1674585,-0.4132626,1.634451,0.1811124,-0.3923422,1.609158,0.06011922,0.05130741,1.749608,0.06236899,-0.2753569,1.743719,-0.1126917,0.2329661,1.72708,-0.01905939,-0.2692596,1.701561,-0.1471652,-0.02198159,1.730623,0.254686,-0.03362165,1.746697,NA,NA,NotTracked,NotTracked,
0.9453125,-0.3037109,0.03320313,0.9042969,0.3496094,0.1186523,-2,0,0,-2,-2,0,1,0,-1,0,-1,-2,-2,-1,0,-2,0.5,0.5,0.5,2.5,2.5,2.5,2.628678,3.00441,9.150581,7.018444,3.113924,2.6997,-0.1221358,-0.399242,1.6362,0.2308416,-0.3996168,1.623885,0.07884591,0.5180963,1.707741,-0.1676839,-0.4257976,1.632579,0.1804224,-0.3969324,1.609084,0.06009019,0.05120948,1.749695,0.06233862,-0.2754281,1.743794,-0.1126213,0.2329775,1.727362,-0.01909679,-0.2693271,1.701663,-0.1473929,-0.02158196,1.730685,0.2546804,-0.03359114,1.746723,NA,NA,NotTracked,NotTracked,
0.9453125,-0.3037109,0.03320313,0.9067383,0.3486328,0.1137695,-2,0,0,-2,-2,0,1,0,0,0,0,-3,0,1,-3,0,0.5,0.5,0.5,1.8125,1.8125,1.8125,2.628678,3.00441,9.150581,7.02055,3.113382,2.699853,-0.1217468,-0.398872,1.636286,0.2321668,-0.3937564,1.624955,0.07884644,0.5180911,1.707754,-0.1667955,-0.4307517,1.631,0.1808442,-0.3521053,1.607111,0.06008738,0.05120969,1.749712,0.06233798,-0.2754287,1.743795,-0.1125983,0.2329008,1.7275,-0.01909714,-0.2693262,1.701663,-0.1473485,-0.02202738,1.730836,0.2547585,-0.0326171,1.746576,NA,NA,NotTracked,NotTracked,
0.9453125,-0.3037109,0.03320313,0.9018555,0.3544922,0.1123047,-2,0,0,-2,-2,0,1,0,-1,0,-1,-1,0,1,-2,-1,0.5,0.5,0.5,1.0625,1.0625,1.0625,2.628678,3.00441,9.150581,7.024786,3.112785,2.697738,-0.1214804,-0.3982826,1.635047,0.2320788,-0.3912379,1.624319,0.07882693,0.5179899,1.707782,-0.1672464,-0.4196457,1.63329,0.179694,-0.3686606,1.60275,0.06006919,0.05114178,1.749765,0.06233611,-0.2754864,1.743831,-0.1125683,0.2327992,1.727661,-0.01911302,-0.2694128,1.701727,-0.1473757,-0.02264315,1.730861,0.2547317,-0.03611697,1.746432,NA,NA,NotTracked,NotTracked,
0.9453125,-0.3037109,0.03320313,0.9057617,0.3515625,0.1113281,-2,0,0,-2,-2,0,1,0,1,-1,-1,-1,-2,-1,2,-1,0.5,0.5,0.5,0.5625,0.5625,0.5625,2.628678,3.00441,9.150581,7.024786,3.112785,2.697738,-0.1215571,-0.3987316,1.635797,0.2322906,-0.3916327,1.625032,0.07883595,0.5180249,1.707821,-0.1650502,-0.4299973,1.626834,0.1814375,-0.3740678,1.607385,0.06006838,0.05114077,1.749767,0.06234456,-0.2754863,1.743832,-0.1125968,0.2327676,1.727701,-0.01910209,-0.2694148,1.701727,-0.1473796,-0.02266223,1.730849,0.2547773,-0.03571609,1.746364,NA,NA,NotTracked,NotTracked,
0.9453125,-0.3037109,0.03320313,0.9072266,0.3515625,0.1083984,-2,0,0,-2,-2,0,1,0,-1,0,0,-1,-2,0,0,-1,0.5,0.5,0.5,0.6875,0.6875,0.6875,2.628678,3.00441,9.150581,7.024111,3.112814,2.698411,-0.1221995,-0.3983291,1.635638,0.2324937,-0.3900339,1.625324,0.07884167,0.5180292,1.707877,-0.1681569,-0.4339756,1.638429,0.18037,-0.39246,1.609312,0.06004746,0.05115923,1.749781,0.06234006,-0.275472,1.743842,-0.1124261,0.2328717,1.727773,-0.01910836,-0.269386,1.701735,-0.1473906,-0.02264741,1.730857,0.2547391,-0.03546222,1.746314,NA,NA,NotTracked,NotTracked,
0.9453125,-0.3037109,0.03320313,0.902832,0.3510742,0.1157227,-2,0,0,-2,-2,0,1,0,0,-1,-1,-2,0,0,-1,0,0.5,0.5,0.5,-0.1875,-0.1875,-0.1875,2.628678,3.00441,9.150581,7.024111,3.112814,2.698411,-0.1215616,-0.3982766,1.635824,0.2327225,-0.3897081,1.62578,0.07880916,0.5179636,1.707984,-0.1660095,-0.4355413,1.629783,0.1808595,-0.3808414,1.60844,0.06004066,0.05116091,1.749803,0.06234051,-0.2754759,1.743849,-0.112372,0.2328801,1.727776,-0.01910708,-0.2693892,1.70175,-0.1473416,-0.02273692,1.730832,0.2547803,-0.03485974,1.746243,NA,NA,NotTracked,NotTracked,
0.9453125,-0.3037109,0.03320313,0.9018555,0.3540039,0.1152344,-2,0,0,-2,-2,0,1,0,-1,-1,-1,0,-1,-1,1,-1,0.5,0.5,0.5,0.375,0.375,0.375,2.628678,3.00441,9.150581,7.024292,3.112914,2.698368,-0.121653,-0.3981534,1.635628,0.2326221,-0.3894643,1.625102,0.07880855,0.5180106,1.708041,-0.1665617,-0.4275345,1.63194,0.1798139,-0.3938179,1.60925,0.06003789,0.05116398,1.749806,0.06234353,-0.2754768,1.74385,-0.1121728,0.2329371,1.727845,-0.01910342,-0.2693875,1.701749,-0.1473221,-0.02267364,1.730813,0.2547521,-0.03632894,1.74631,NA,NA,NotTracked,NotTracked,
0.9453125,-0.3037109,0.03320313,0.902832,0.3520508,0.1049805,-2,0,0,-2,-2,0,1,0,-1,-1,0,-1,-1,-2,-2,-2,0.5,0.5,0.5,0.6875,0.6875,0.6875,2.628678,3.00441,9.150581,7.024292,3.112914,2.698368,-0.1215708,-0.3989406,1.635805,0.2334207,-0.3897721,1.626159,0.07878651,0.5180581,1.708078,-0.1681988,-0.4220533,1.637752,0.1799372,-0.3905443,1.611083,0.060031,0.05116065,1.749812,0.06236476,-0.2754828,1.743834,-0.1120843,0.2328249,1.727793,-0.01908723,-0.2693901,1.701741,-0.1472891,-0.02247392,1.730629,0.2548048,-0.03543669,1.746085,NA,NA,NotTracked,NotTracked,
0.9453125,-0.3037109,0.03320313,0.9091797,0.3500977,0.1181641,-2,0,0,-2,-2,0,1,0,-1,-1,-1,-1,-2,0,0,0,0.5,0.5,0.5,0.6875,0.6875,0.6875,2.628678,3.00441,9.150581,7.023719,3.11298,2.698797,-0.1209438,-0.3983721,1.635971,0.2331611,-0.3895532,1.626168,0.0787892,0.5181034,1.708075,-0.1659597,-0.4266649,1.6285,0.1797344,-0.3773392,1.606663,0.06007018,0.05119562,1.749838,0.06244208,-0.2754571,1.74388,-0.1120604,0.2328082,1.727795,-0.0190198,-0.2693847,1.701759,-0.1472969,-0.02248669,1.730641,0.2548237,-0.03491787,1.746043,NA,NA,NotTracked,NotTracked,
0.9453125,-0.3037109,0.03320313,0.902832,0.3500977,0.1171875,-2,0,0,-2,-2,0,1,0,-1,0,-2,0,0,-2,-1,-2,0.5,0.5,0.5,2.1875,2.1875,2.1875,2.628678,3.00441,9.150581,7.025115,3.112691,2.698531,-0.1214453,-0.3988978,1.634891,0.2332851,-0.3894874,1.62501,0.07879834,0.5180612,1.708075,-0.1665521,-0.4142232,1.632079,0.1809325,-0.382908,1.608458,0.06008783,0.05118835,1.749807,0.06245919,-0.2754557,1.74386,-0.112039,0.2328044,1.727796,-0.01900383,-0.2693855,1.701736,-0.1473706,-0.02276934,1.730451,0.2548864,-0.0343116,1.745776,NA,NA,NotTracked,NotTracked,
0.9453125,-0.3037109,0.03320313,0.8959961,0.3525391,0.1108398,-2,0,0,-2,-2,0,1,0,-1,-1,-1,-1,-1,0,-1,-1,0.5,0.5,0.5,1.9375,1.9375,1.9375,2.628678,3.00441,9.150581,7.032003,3.111062,2.695883,-0.121104,-0.3983693,1.635393,0.2335473,-0.3894556,1.62601,0.07882901,0.5180793,1.708102,-0.1667714,-0.4107216,1.634275,0.1804374,-0.3871417,1.608019,0.06008914,0.05118984,1.749809,0.06246191,-0.2754541,1.743861,-0.1120414,0.2327977,1.727819,-0.01899996,-0.2693809,1.701736,-0.1473788,-0.02267234,1.730444,0.2549852,-0.03524768,1.745894,NA,NA,NotTracked,NotTracked,
0.9453125,-0.3037109,0.03320313,0.9018555,0.3496094,0.109375,-2,0,0,-2,-2,0,1,0,0,0,-1,1,0,0,0,-2,0.5,0.5,0.5,0.9375,0.9375,0.9375,2.628678,3.00441,9.150581,7.030078,3.109543,2.699238,-0.1214616,-0.398692,1.634954,0.2331666,-0.3892693,1.624666,0.07886846,0.5180598,1.7081,-0.167779,-0.4291008,1.63465,0.1818107,-0.3613336,1.60735,0.06010671,0.05118455,1.749795,0.0624686,-0.2754575,1.743844,-0.1119859,0.2328269,1.72782,-0.01899051,-0.2693752,1.701712,-0.1473078,-0.02255684,1.730384,0.2549455,-0.03662493,1.745528,NA,NA,NotTracked,NotTracked,
0.9453125,-0.3037109,0.03320313,0.9057617,0.3476563,0.1049805,-2,0,0,-2,-2,0,1,0,-1,-1,-1,-1,0,0,-2,-1,0.5,0.5,0.5,1.5625,1.5625,1.5625,2.628678,3.00441,9.150581,7.029955,3.108543,2.700926,-0.1213982,-0.3983436,1.634244,0.2332418,-0.3885588,1.624308,0.07889904,0.5182339,1.707973,-0.1683868,-0.4289453,1.633467,0.1824801,-0.4022203,1.607818,0.06015611,0.05119124,1.749705,0.06249389,-0.2754658,1.743789,-0.1118226,0.2328707,1.7277,-0.01898098,-0.2693785,1.701683,-0.1473071,-0.02246284,1.730162,0.2551094,-0.03600093,1.745119,NA,NA,NotTracked,NotTracked,
0.9453125,-0.3037109,0.03320313,0.9077148,0.3525391,0.1079102,-2,0,0,-2,-2,0,1,0,0,-1,0,-3,-1,0,-1,-2,0.5,0.5,0.5,1.25,1.25,1.25,2.628678,3.00441,9.150581,7.030606,3.108215,2.701123,-0.1216276,-0.3979287,1.634304,0.2334714,-0.3881826,1.624614,0.07892527,0.518204,1.707975,-0.1652163,-0.4367952,1.625826,0.1811966,-0.3761864,1.606839,0.06015763,0.05119525,1.74968,0.06254175,-0.2754934,1.743703,-0.1116712,0.2328793,1.727592,-0.01895042,-0.2693941,1.701625,-0.1472367,-0.02275569,1.730015,0.2551705,-0.03542072,1.744723,NA,NA,NotTracked,NotTracked,
0.9453125,-0.3037109,0.03320313,0.90625,0.3486328,0.1103516,-2,0,0,-2,-2,0,1,0,1,-1,-1,0,1,0,-1,0,0.5,0.5,0.5,0.875,0.875,0.875,2.628678,3.00441,9.150581,7.030606,3.108215,2.701123,-0.1214273,-0.398355,1.634412,0.2338624,-0.3880509,1.624589,0.07898105,0.5184751,1.707822,-0.16889,-0.4197579,1.638083,0.1834519,-0.360636,1.608772,0.06018006,0.05124695,1.749604,0.06254104,-0.2754737,1.743669,-0.11165,0.2329101,1.727599,-0.01894994,-0.2693655,1.701579,-0.1472518,-0.02249721,1.729889,0.2553054,-0.03479891,1.744609,NA,NA,NotTracked,NotTracked,
0.9453125,-0.3037109,0.03320313,0.9077148,0.3540039,0.1074219,-2,0,0,-2,-2,0,1,0,1,1,0,0,-2,1,-1,-1,0.5,0.5,0.5,-1.5625,-1.5625,-1.5625,2.628678,3.00441,9.150581,7.028687,3.108985,2.702051,-0.1217959,-0.3987469,1.634484,0.2335208,-0.3888079,1.62404,0.07902337,0.5185665,1.70776,-0.1677011,-0.4249237,1.635039,0.1823649,-0.3895954,1.608946,0.06020251,0.05128716,1.749562,0.06255628,-0.2754313,1.743629,-0.1116528,0.2329288,1.727583,-0.01892914,-0.2693213,1.701531,-0.1472382,-0.02258864,1.72963,0.2553281,-0.03457938,1.744475,NA,NA,NotTracked,NotTracked,
0.9453125,-0.3037109,0.03320313,0.909668,0.3466797,0.1098633,-2,0,0,-2,-2,0,1,0,-2,-3,-1,-1,0,0,0,0,0.5,0.5,0.5,-2.375,-2.375,-2.375,2.628678,3.00441,9.150581,7.027057,3.109073,2.701284,-0.1216516,-0.3989741,1.634026,0.2336541,-0.3888197,1.623067,0.07914778,0.5186182,1.707529,-0.1674888,-0.3919541,1.634225,0.1829714,-0.3588268,1.605813,0.06022978,0.05128724,1.749423,0.06260449,-0.275458,1.743529,-0.1115372,0.2328774,1.72749,-0.01886784,-0.2693415,1.701371,-0.1471827,-0.02269789,1.729494,0.2554798,-0.03429453,1.744112,NA,NA,NotTracked,NotTracked,
0.9453125,-0.3037109,0.03320313,0.9057617,0.3476563,0.1108398,-2,0,0,-2,-2,0,1,0,-2,-1,-2,-1,-2,-1,0,1,0.5,0.5,0.5,-2.75,-2.75,-2.75,2.628678,3.00441,9.150581,7.022866,3.109267,2.702238,-0.121742,-0.3985643,1.633466,0.2338879,-0.3888086,1.623412,0.07921319,0.518572,1.707499,-0.1660423,-0.4391708,1.62875,0.1839343,-0.3604333,1.608508,0.06026205,0.05127983,1.749343,0.06265628,-0.2754691,1.743398,-0.1114692,0.2329041,1.72741,-0.01880447,-0.2693394,1.701228,-0.1471617,-0.02215644,1.729188,0.2555309,-0.0354795,1.743782,NA,NA,NotTracked,NotTracked,
