ALX,ALY,ALZ,ARX,ARY,ARZ,EMG0L,EMG1L,EMG2L,EMG3L,EMG4L,EMG5L,EMG6L,EMG7L,EMG0R,EMG1R,EMG2R,EMG3R,EMG4R,EMG5R,EMG6R,EMG7R,GLX,GLY,GLZ,GRX,GRY,GRZ,ORL,OPL,OYL,ORR,OPR,OYR,LHNX,LHNY,LHNZ,RHNX,RHNY,RHNZ,HX,HY,HZ,LTX,LTY,LTZ,RTX,RTY,RTZ,SpineMidX,SpineMidY,SpineMidZ,SpineBaseX,SpineBaseY,SpineBaseZ,ShoulderLeftX,ShoulderLeftY,ShoulderLeftZ,ShoulderRightX,ShoulderRightY,ShoulderRightZ,ElbowLeftX,ElbowLeftY,ElbowLeftZ,ElbowRightX,ElbowRightY,ElbowRightZ,Myo_Pose_left,Myo_Pose_Right,Kinect_pose_left,Kinect_pose_right
0.934082,-0.3110352,0.04736328,0.9135742,0.328125,0.07714844,-1,-1,0,0,-1,-2,0,-1,-1,1,-1,-1,-1,0,0,0,1.75,1.75,1.75,6.9375,6.9375,6.9375,2.645845,2.997254,6.838183,7.115525,3.060465,8.318064,-0.1017604,-0.4040531,1.603226,0.2508253,-0.4050262,1.622604,0.09812998,0.5306353,1.710406,-0.1465304,-0.4009832,1.587257,0.2998664,-0.4181236,1.614914,0.07889307,0.05948832,1.740109,0.08105049,-0.2686051,1.736355,-0.09230899,0.2381149,1.710452,-0.0002018411,-0.2620278,1.694529,-0.1287919,-0.0238021,1.714067,0.2741597,-0.04501189,1.738145,NA,NA,NotTracked,Unknown,
0.934082,-0.3110352,0.04736328,0.9125977,0.3349609,0.09375,-2,-1,-2,0,0,0,-1,-1,-1,-1,-2,0,-2,0,-1,0,1.75,1.75,1.75,-2,-2,-2,2.645845,2.997254,6.838183,7.10647,3.06199,8.326363,-0.1020887,-0.403691,1.602795,0.2505918,-0.4065335,1.621443,0.09755903,0.5305641,1.710229,-0.1374274,-0.409163,1.568698,0.2978203,-0.4179834,1.608603,0.0781713,0.05941629,1.73965,0.080489,-0.2685655,1.735905,-0.09310745,0.2380316,1.709886,-0.0006875916,-0.2620011,1.694039,-0.1291821,-0.02397762,1.713588,0.2736974,-0.04521786,1.738011,NA,NA,NotTracked,Unknown,
0.9448242,-0.3100586,0.04150391,0.9086914,0.3413086,0.09423828,-1,-2,-1,0,0,-1,-2,-1,-1,1,-2,0,0,-2,0,-2,15.125,15.125,15.125,-6.9375,-6.9375,-6.9375,2.665645,3.001953,6.831198,7.101775,3.066284,8.325453,-0.1031121,-0.4042428,1.602932,0.2500795,-0.4067002,1.622265,0.09715939,0.5305219,1.709996,-0.1508141,-0.4016375,1.594067,0.2975638,-0.4186273,1.608119,0.07783691,0.05939064,1.739505,0.08017676,-0.2685972,1.735684,-0.09341598,0.2379992,1.709759,-0.0009705528,-0.2620443,1.693835,-0.1294677,-0.02391586,1.713442,0.2734252,-0.04516724,1.737921,NA,NA,NotTracked,Unknown,
0.9428711,-0.2998047,0.04882813,0.9111328,0.3320313,0.08984375,-2,-1,-1,-1,-2,-1,-1,-1,1,-1,-1,-1,-1,-1,0,-1,17.0625,17.0625,17.0625,-12,-12,-12,2.679359,3.003936,6.827032,7.097406,3.072039,8.317096,-0.1036247,-0.404137,1.605337,0.2501255,-0.4072502,1.622588,0.09681766,0.5305909,1.709973,-0.1431406,-0.4082182,1.579729,0.2987999,-0.421079,1.60989,0.07752626,0.05943883,1.739436,0.07987561,-0.2685829,1.735532,-0.09380679,0.2378363,1.709626,-0.001258824,-0.2620359,1.693692,-0.129894,-0.02396945,1.713178,0.2730269,-0.04503271,1.73782,NA,NA,NotTracked,Unknown,
0.9428711,-0.2998047,0.04882813,0.9106445,0.3364258,0.1015625,-3,-2,-1,-1,1,-1,-1,-1,-1,-1,0,1,0,-1,-1,0,17.0625,17.0625,17.0625,-10.375,-10.375,-10.375,2.679359,3.003936,6.827032,7.090548,3.07714,8.310336,-0.1038202,-0.4047174,1.604721,0.2492368,-0.4076377,1.621991,0.09635972,0.5306336,1.709754,-0.1566329,-0.4146776,1.6066,0.2988346,-0.42154,1.609724,0.07719695,0.05943892,1.739251,0.07978341,-0.2685955,1.735383,-0.09402025,0.2377652,1.709456,-0.001332662,-0.262067,1.693505,-0.1300862,-0.02405921,1.713002,0.2726955,-0.04491026,1.737736,NA,NA,NotTracked,Unknown,
0.9501953,-0.3012695,0.04638672,0.9125977,0.3432617,0.078125,-1,1,-2,-1,-3,-3,-1,-2,-1,-1,0,-2,-1,-1,0,2,0.0625,0.0625,0.0625,-8.4375,-8.4375,-8.4375,2.694358,2.998657,6.8348,7.080112,3.080741,8.311356,-0.1039677,-0.4046965,1.60606,0.2492046,-0.4078229,1.622961,0.0958058,0.5307531,1.709527,-0.1532341,-0.4015246,1.601623,0.2983052,-0.4218167,1.610137,0.07655969,0.05937985,1.738935,0.07914636,-0.2686515,1.734988,-0.09449459,0.2378005,1.709155,-0.001915001,-0.2621002,1.692929,-0.1306496,-0.02437934,1.712318,0.2719993,-0.04479112,1.737586,NA,NA,NotTracked,Unknown,
0.9506836,-0.300293,0.05761719,0.9257813,0.3344727,0.1201172,-1,-2,-1,-1,-2,-2,0,1,3,-5,-3,0,0,0,5,-5,-1.625,-1.625,-1.625,-5.375,-5.375,-5.375,2.695884,2.99621,6.83194,7.04939,3.087467,8.335027,-0.1040853,-0.4048854,1.605706,0.2482689,-0.4073085,1.622758,0.09551316,0.5308093,1.70954,-0.1547546,-0.418327,1.599333,0.2972508,-0.4212024,1.60832,0.07619613,0.05938592,1.738787,0.07881371,-0.2686622,1.734814,-0.09470135,0.2378238,1.70903,-0.002214971,-0.262099,1.692786,-0.1309266,-0.02435389,1.712201,0.2717673,-0.04479376,1.737534,NA,NA,NotTracked,Unknown,
0.9506836,-0.300293,0.05761719,1.016113,0.3188477,0.05761719,-2,-1,-2,-2,0,-1,1,-2,3,-9,8,-1,-4,1,0,9,-1.625,-1.625,-1.625,0.5,0.5,0.5,2.695884,2.99621,6.83194,7.025311,3.097603,8.362885,-0.1042429,-0.4052116,1.605943,0.2477075,-0.4070783,1.622219,0.09527934,0.5309075,1.709446,-0.1544596,-0.3890366,1.603879,0.2929073,-0.419206,1.606586,0.075967,0.05939664,1.738745,0.07856077,-0.2686556,1.734745,-0.094916,0.2378601,1.709047,-0.002467194,-0.2621142,1.6927,-0.131163,-0.0244554,1.71217,0.2715659,-0.04480201,1.737489,NA,NA,NotTracked,Unknown,
0.9506836,-0.300293,0.05761719,1.248047,0.5458984,0.07373047,-1,-2,-2,-1,-1,1,-3,-2,2,-45,-9,-15,-6,-13,10,0,-1.625,-1.625,-1.625,-24.125,-24.125,-24.125,2.695884,2.99621,6.83194,6.817961,3.150038,8.569375,-0.1039455,-0.4043887,1.604063,0.2456745,-0.4032528,1.618162,0.09506539,0.5308232,1.709186,-0.1542282,-0.3916727,1.606273,0.2898857,-0.4180837,1.59945,0.07562961,0.05939427,1.738546,0.07812842,-0.2686604,1.734398,-0.09532201,0.2377567,1.708888,-0.002868186,-0.2621137,1.692396,-0.1313024,-0.02444354,1.711917,0.2712935,-0.04460059,1.73735,NA,NA,NotTracked,Unknown,
0.9521484,-0.3110352,0.05419922,1.257324,0.5615234,0.3432617,-3,-2,-1,-2,-3,-1,0,-2,-2,25,102,17,10,20,-5,3,2.1875,2.1875,2.1875,86.0625,86.0625,86.0625,2.688148,3.000742,6.840398,6.612397,3.312749,8.84982,-0.1035507,-0.4045012,1.603978,0.2420224,-0.3991702,1.612479,0.09471269,0.530756,1.70879,-0.1532346,-0.3986073,1.59926,0.2844093,-0.4131873,1.5925,0.07535864,0.05938604,1.738336,0.07767644,-0.2686269,1.734089,-0.09559505,0.2377088,1.708769,-0.003296107,-0.2620873,1.692177,-0.1315932,-0.0248346,1.711585,0.2711501,-0.04426654,1.737388,NA,NA,NotTracked,Unknown,
0.9521484,-0.3110352,0.05419922,1.036133,0.9023438,0.675293,-2,-2,0,-1,-2,0,2,2,2,33,14,1,-8,14,9,5,2.1875,2.1875,2.1875,176.75,176.75,176.75,2.688148,3.000742,6.840398,6.563153,3.557337,9.120605,-0.1039808,-0.4048225,1.602628,0.2108107,-0.3550969,1.576416,0.09432144,0.5307543,1.708562,-0.1526122,-0.3991615,1.598189,0.2419103,-0.3604284,1.534413,0.07431107,0.05947352,1.737773,0.07495262,-0.2682312,1.732877,-0.09611595,0.2377945,1.708776,-0.006248595,-0.2614016,1.691113,-0.1319305,-0.0250036,1.711201,0.2726405,-0.04239064,1.737696,NA,NA,NotTracked,Unknown,
0.9350586,-0.2861328,0.046875,0.3676758,1.087891,0.6835938,-7,-3,0,0,-1,0,0,-1,5,42,7,-19,-10,-6,-2,0,-35.5,-35.5,-35.5,184.875,184.875,184.875,2.682055,3.004299,6.806553,6.561322,3.903345,9.416275,-0.1038048,-0.404096,1.60303,0.1887407,-0.2938807,1.56115,0.09425969,0.5307198,1.708532,-0.1503488,-0.4204457,1.58975,0.2299771,-0.3346845,1.572,0.07226702,0.05958741,1.736986,0.06926908,-0.2676986,1.731359,-0.0963023,0.2377836,1.708606,-0.01317347,-0.2596892,1.689553,-0.1320358,-0.02477625,1.7111,0.2828486,-0.02093321,1.735061,NA,NA,NotTracked,Unknown,
0.9306641,-0.3188477,0.08984375,-0.1303711,0.8056641,0.6103516,-6,-1,0,2,0,1,3,8,-1,-8,3,23,7,5,0,-1,-51.4375,-51.4375,-51.4375,121.75,121.75,121.75,2.682661,2.993591,6.752494,6.562202,4.280348,9.691132,-0.1034234,-0.4044324,1.602254,0.1306825,-0.2434009,1.565515,0.09409661,0.5307659,1.708515,-0.1458448,-0.413003,1.579018,0.183353,-0.3272977,1.601809,0.07142153,0.05955799,1.736737,0.06814037,-0.2678511,1.731241,-0.09645589,0.2377442,1.708362,-0.01433204,-0.2592929,1.689372,-0.132226,-0.02411208,1.710367,0.290504,-1.980968E-05,1.730317,NA,NA,NotTracked,Unknown,
0.9262695,-0.3325195,0.1054688,-0.2192383,0.6601563,0.7167969,3,-1,-1,-1,-3,-1,0,4,0,0,-4,1,-9,-24,-1,1,-64,-64,-64,116.4375,116.4375,116.4375,2.665791,2.987655,6.733757,6.597148,4.637872,9.954651,-0.1020384,-0.4051126,1.602422,0.1044788,-0.191395,1.570808,0.09407902,0.5307657,1.70851,-0.1507424,-0.4185089,1.600875,0.1101137,-0.2736383,1.588698,0.07130793,0.0595964,1.736767,0.06808578,-0.267778,1.731343,-0.09639508,0.2379044,1.707851,-0.01423221,-0.2592249,1.689437,-0.1325114,-0.02337953,1.709553,0.2973494,0.01186607,1.725381,NA,NA,NotTracked,Unknown,
0.9394531,-0.3041992,0.05664063,-0.3623047,0.6342773,0.6938477,9,-2,-3,-4,-3,-5,-7,-19,-16,-3,-5,-2,-14,-18,-3,-7,-90.5,-90.5,-90.5,107.9375,107.9375,107.9375,2.514762,2.97626,6.745758,6.683391,4.951515,0.1946063,-0.1009017,-0.4040394,1.60299,0.1035053,-0.1405565,1.579264,0.09407465,0.5307628,1.708507,-0.1463205,-0.4141666,1.59039,0.08132659,-0.2078255,1.582257,0.0713989,0.05983606,1.736903,0.06845348,-0.2674038,1.731491,-0.09619246,0.2380391,1.707008,-0.01352734,-0.2588468,1.689533,-0.1323448,-0.02149288,1.707862,0.3025808,0.01610088,1.716724,NA,NA,NotTracked,Unknown,
0.9394531,-0.3041992,0.05664063,-0.3623047,0.6342773,0.6938477,9,-2,-3,-4,-3,-5,-7,-19,-16,-3,-5,-2,-14,-18,-3,-7,-90.5,-90.5,-90.5,107.9375,107.9375,107.9375,2.514762,2.97626,6.745758,6.683391,4.951515,0.1946063,-0.09924277,-0.4051672,1.602112,0.03976889,-0.05444558,1.569336,0.09406603,0.5307952,1.708512,-0.1406169,-0.4326822,1.586463,0.07783804,-0.05922714,1.5054,0.07177214,0.06033528,1.737184,0.06928854,-0.2663806,1.731794,-0.09563136,0.2377024,1.705754,-0.01236394,-0.2579486,1.689835,-0.131837,-0.01987904,1.704306,0.3005554,0.01731564,1.69849,NA,NA,NotTracked,Unknown,
0.9628906,-0.2973633,-0.004394531,-0.1992188,0.5913086,0.7509766,-2,-1,0,0,1,-1,1,9,8,6,5,-13,-3,-1,2,-1,-81.4375,-81.4375,-81.4375,87.0625,87.0625,87.0625,2.392615,2.979073,6.774497,6.789215,5.179095,0.4129709,-0.09617767,-0.4043051,1.601778,0.02914767,-0.01776792,1.576887,0.09413141,0.5309184,1.708687,-0.1383618,-0.4290703,1.588675,0.0920378,-0.005004992,1.517129,0.07245577,0.06111502,1.737716,0.0705137,-0.2648827,1.732469,-0.09523544,0.2377755,1.70511,-0.01060538,-0.2565573,1.690649,-0.1314781,-0.02278482,1.699157,0.2827262,0.01720908,1.673581,NA,NA,NotTracked,Unknown,
0.9716797,-0.2973633,-0.01953125,-0.1259766,0.6933594,0.7475586,1,0,1,-1,-1,-2,-3,4,6,-4,-3,4,4,-13,-5,-6,-67.25,-67.25,-67.25,78.6875,78.6875,78.6875,2.345437,2.982304,6.784933,6.899537,5.332321,0.6112098,-0.09385215,-0.4043172,1.599749,0.03264371,0.002215734,1.587471,0.09431186,0.5309144,1.708748,-0.1339322,-0.4329737,1.583625,0.0585321,0.07533666,1.61496,0.07331049,0.06201821,1.738212,0.07204494,-0.2632799,1.732871,-0.09443939,0.2384079,1.70439,-0.008589374,-0.2550127,1.690918,-0.1308744,-0.02403336,1.692777,0.2603991,0.0194452,1.638542,NA,NA,NotTracked,Unknown,
0.9707031,-0.2646484,-0.06201172,0.07080078,0.7592773,0.5751953,-12,-2,2,0,1,2,3,13,-4,-1,-2,19,-13,31,-6,-4,-43.375,-43.375,-43.375,59.9375,59.9375,59.9375,2.232981,2.990513,6.818671,7.005606,5.41752,0.7733247,-0.09217104,-0.4032328,1.599696,-0.04494718,0.06719877,1.558509,0.09461748,0.5310217,1.709007,-0.1395038,-0.4050455,1.597214,-0.009163612,0.108995,1.6016,0.07425343,0.06284375,1.73875,0.07330668,-0.26171,1.733277,-0.09353127,0.2389111,1.703795,-0.007149879,-0.2536472,1.691109,-0.124229,-0.01176176,1.675605,0.2506106,0.02468929,1.628191,NA,NA,NotTracked,Unknown,
0.9506836,-0.2583008,-0.105957,0.2045898,0.809082,0.5375977,3,1,-1,-3,-1,-1,-2,-6,4,-4,-5,-8,-3,-28,1,4,-43,-43,-43,22.125,22.125,22.125,2.151298,2.9919,6.853195,7.06693,5.471817,0.9009407,-0.08998858,-0.4023106,1.597127,0.007565888,0.050154,1.584976,0.09495398,0.5311835,1.709705,-0.1287423,-0.4099394,1.578428,-0.02298268,-0.009851229,1.625532,0.07508554,0.06337272,1.739233,0.07455229,-0.2606652,1.733584,-0.09291492,0.2393971,1.703358,-0.005493402,-0.2526299,1.691638,-0.1247204,-0.008570139,1.674062,0.2317975,0.03587656,1.61365,NA,NA,NotTracked,Unknown,
0.9477539,-0.2568359,-0.1108398,0.2490234,0.7841797,0.4238281,-4,-2,-1,-1,1,0,1,-1,4,0,4,2,-11,2,-9,-2,-41.3125,-41.3125,-41.3125,34.5,34.5,34.5,2.115987,2.991971,6.865682,7.104155,5.485422,0.9703216,-0.08601079,-0.402425,1.592583,-0.04467587,0.1015097,1.596452,0.09602457,0.5312488,1.710758,-0.1306515,-0.4154598,1.582774,-0.0910555,0.1516697,1.6294,0.07641156,0.06445459,1.740054,0.07684709,-0.2586913,1.734001,-0.09215815,0.2402839,1.702715,-0.003104361,-0.251309,1.692707,-0.1255536,2.265716E-05,1.672832,0.2090207,0.04088545,1.598821,NA,NA,Unknown,Unknown,
0.9663086,-0.2680664,-0.1206055,0.3300781,0.9194336,0.1923828,2,0,-1,-2,-2,-4,0,0,6,5,4,1,13,15,9,5,-37.5,-37.5,-37.5,2.4375,2.4375,2.4375,2.017468,2.994287,6.901027,7.129284,5.479075,1.003494,-0.08459296,-0.4004035,1.591122,-0.04355687,0.1032791,1.597812,0.09629693,0.5312748,1.711053,-0.1246233,-0.4092584,1.572293,-0.08695495,0.1556316,1.628642,0.0768647,0.06481796,1.740234,0.07735457,-0.2581915,1.733927,-0.09232609,0.2403526,1.702698,-0.002685632,-0.2510889,1.692874,-0.1261251,0.000640062,1.673532,0.1989699,0.04162201,1.594015,NA,NA,Unknown,Unknown,
0.953125,-0.2421875,-0.1489258,0.2089844,0.9033203,0.1245117,-3,0,-2,-1,-3,-1,-1,-1,6,1,-2,5,2,9,-5,0,-23,-23,-23,-27.6875,-27.6875,-27.6875,1.960286,2.998885,6.927531,7.113615,5.463152,1.015179,-0.08259192,-0.3994248,1.590833,-0.03924721,0.1036252,1.597486,0.09644239,0.5314677,1.711694,-0.1223588,-0.4023615,1.569506,-0.08763325,0.1608887,1.624,0.07716585,0.06508246,1.740388,0.07776253,-0.2578842,1.733816,-0.09088436,0.2401369,1.704391,-0.002325357,-0.2509126,1.693096,-0.1265228,0.000799553,1.674346,0.194188,0.04836063,1.595265,NA,NA,Unknown,Unknown,
0.9428711,-0.2680664,-0.1303711,0.1757813,0.9316406,0.1582031,-3,-1,-1,0,-1,-1,0,2,-9,-9,0,0,0,-2,1,-3,6.8125,6.8125,6.8125,-4.875,-4.875,-4.875,1.948795,3.005488,6.93314,7.09593,5.452014,0.9745147,-0.08252446,-0.3986229,1.590475,-0.03718289,0.1027299,1.597726,0.09634035,0.5315472,1.712015,-0.1259968,-0.4157186,1.577664,-0.0007028472,0.1631361,1.629936,0.07734162,0.06522369,1.740518,0.07801861,-0.2576269,1.733694,-0.09167436,0.2402668,1.704514,-0.002079611,-0.2507731,1.693271,-0.127148,0.0008703282,1.675785,0.187147,0.04545349,1.592824,NA,NA,Unknown,Unknown,
0.940918,-0.2768555,-0.121582,0.1772461,0.9672852,0.2993164,-4,-1,1,-3,-2,-3,0,-8,-24,-10,-1,0,-4,-36,3,-23,14.6875,14.6875,14.6875,12.0625,12.0625,12.0625,1.962134,3.008185,6.927492,7.082298,5.434185,0.8881273,-0.08195898,-0.3965236,1.591714,-0.09809284,0.1439289,1.624795,0.09614061,0.5314798,1.712652,-0.1265804,-0.4122981,1.577317,-0.06433465,0.1925694,1.644116,0.07736371,0.06540331,1.740661,0.07815526,-0.2573637,1.733586,-0.09092402,0.240346,1.70601,-0.001975544,-0.2506083,1.693368,-0.1275877,0.001128341,1.678084,0.1864627,0.04424728,1.59244,NA,NA,Unknown,Unknown,
0.940918,-0.2768555,-0.121582,0.1772461,0.9672852,0.2993164,-4,-1,1,-3,-2,-3,0,-8,-24,-10,-1,0,-4,-36,3,-23,14.6875,14.6875,14.6875,12.0625,12.0625,12.0625,1.962134,3.008185,6.927492,7.082298,5.434185,0.8881273,-0.08209382,-0.3970478,1.592404,-0.03584634,0.1059457,1.598353,0.09550752,0.5316083,1.713498,-0.1263697,-0.411019,1.57583,-0.08365278,0.1661607,1.632334,0.07728817,0.06559605,1.740825,0.07818065,-0.2571232,1.733538,-0.09061741,0.2404842,1.70709,-0.001955265,-0.2504886,1.693424,-0.1277841,-0.0007471353,1.681476,0.1891358,0.04346595,1.593634,NA,NA,Unknown,Unknown,
0.9394531,-0.2924805,-0.1054688,-0.222168,1.003906,0.465332,2,-1,-1,-2,-1,-3,-4,-8,-5,-4,-5,3,-10,-21,-1,2,27.3125,27.3125,27.3125,-15.5625,-15.5625,-15.5625,2.008991,3.015268,6.906844,7.027882,5.432349,0.7619505,-0.08289148,-0.3974315,1.594455,-0.03455112,0.1047724,1.597799,0.09465685,0.5316154,1.713705,-0.1289814,-0.4087481,1.581599,-0.0379243,0.1729763,1.628619,0.07709564,0.06575974,1.741066,0.0781454,-0.2569161,1.733535,-0.09051248,0.240768,1.708422,-0.001980445,-0.2503368,1.693489,-0.1282425,-0.01037159,1.691823,0.1958413,0.04037183,1.597059,NA,NA,Unknown,Unknown,
0.9604492,-0.2949219,-0.08447266,-0.7392578,0.987793,0.519043,-2,-1,-2,-3,-2,-2,-4,-7,4,-2,2,13,67,19,2,-1,21.875,21.875,21.875,10.375,10.375,10.375,2.068069,3.021991,6.889971,6.962716,5.398877,0.5040334,-0.08409674,-0.3977375,1.596963,-0.03339609,0.1029193,1.593913,0.09291789,0.5315453,1.714337,-0.1319156,-0.4027725,1.588568,0.002516447,0.1629474,1.633806,0.07645325,0.0660524,1.741394,0.07773998,-0.2564145,1.733424,-0.09077673,0.2407051,1.709638,-0.00231303,-0.249961,1.69351,-0.12821,-0.0144461,1.69593,0.2103196,0.03253732,1.604143,NA,NA,Unknown,Unknown,
0.9501953,-0.2944336,-0.07861328,-1.015625,0.9003906,0.4829102,-2,-1,-2,-1,-2,-1,-1,1,-13,14,11,3,11,-17,-37,4,19.5,19.5,19.5,7.25,7.25,7.25,2.080742,3.023268,6.888097,6.947412,5.37586,0.428175,-0.08620824,-0.3988267,1.601345,-0.03162978,0.1033661,1.586949,0.09046425,0.5314426,1.715281,-0.1361605,-0.4034769,1.593963,0.0005085119,0.163226,1.633644,0.07561365,0.06605891,1.741731,0.07713773,-0.2563745,1.733369,-0.0911879,0.2404889,1.710975,-0.002888101,-0.2499714,1.693673,-0.1289348,-0.01799479,1.698615,0.224906,0.027181,1.609656,NA,NA,Unknown,Unknown,
0.9082031,-0.3745117,-0.008300781,-0.9492188,0.5820313,0.4804688,4,1,-1,-2,-1,0,0,3,3,3,-4,-3,-4,-6,-4,4,29.625,29.625,29.625,33.625,33.625,33.625,2.167201,3.023484,6.840768,6.937723,5.361948,0.3348301,-0.08806268,-0.3990065,1.604197,0.01893032,0.07592423,1.571505,0.08856919,0.5311872,1.715446,-0.1358836,-0.3978478,1.593097,-0.009847679,0.03202529,1.607095,0.07442798,0.06603059,1.741965,0.0755799,-0.2560821,1.733224,-0.09856743,0.2405383,1.712949,-0.004241576,-0.249867,1.693912,-0.1296667,-0.01831735,1.699626,0.233734,0.02840343,1.612698,NA,NA,Unknown,Unknown,
0.890625,-0.4052734,0.06494141,-0.6640625,0.6723633,0.4731445,-3,-1,0,0,-1,-1,0,-6,3,-14,-3,-7,8,25,-6,-5,37.375,37.375,37.375,61.625,61.625,61.625,2.27929,3.013477,6.769923,6.980255,5.374836,0.3158825,-0.09186012,-0.4001015,1.613174,-0.03201938,0.08810424,1.556296,0.08545783,0.5309551,1.71574,-0.1461217,-0.4012988,1.622286,-0.01822541,0.03459767,1.616083,0.07153735,0.06591184,1.742666,0.07249313,-0.2559853,1.733458,-0.1025939,0.2394559,1.714303,-0.00711359,-0.2498765,1.694522,-0.1316932,-0.01900416,1.701983,0.2439236,0.02895623,1.615652,NA,NA,Unknown,Unknown,
0.9013672,-0.4067383,0.07958984,-0.5048828,0.8168945,0.465332,-1,-1,-3,-3,0,-2,-3,-6,1,-4,-6,-2,-14,-8,-2,-4,26.125,26.125,26.125,6.3125,6.3125,6.3125,2.318862,3.005473,6.745148,6.994794,5.390508,0.3313103,-0.09369007,-0.3989327,1.614519,0.01669096,0.07283154,1.55758,0.0843625,0.5307325,1.715946,-0.1428734,-0.4029543,1.611297,0.006030181,0.1332537,1.610333,0.07063221,0.06574493,1.742902,0.07168347,-0.2560579,1.7335,-0.1037424,0.2390537,1.71413,-0.007857185,-0.2499431,1.694579,-0.1324007,-0.0195537,1.702114,0.2451047,0.02884528,1.615664,NA,NA,Unknown,Unknown,
0.9726563,-0.3300781,0.01318359,-0.4116211,0.7949219,0.4560547,0,0,0,0,-5,-9,-4,-2,6,5,4,1,7,3,-2,3,-1.8125,-1.8125,-1.8125,-18.875,-18.875,-18.875,2.320387,2.995859,6.750893,6.979608,5.395304,0.3396926,-0.09506664,-0.3997973,1.615772,-0.02945039,0.08678379,1.548547,0.0835243,0.5307305,1.716159,-0.1430418,-0.3949419,1.610911,-0.02186134,0.035303,1.614083,0.06972208,0.06562936,1.743204,0.07109907,-0.2560906,1.733685,-0.1045662,0.2388841,1.714008,-0.008442401,-0.2500063,1.694836,-0.1326935,-0.02019909,1.702101,0.2462692,0.02892555,1.615975,NA,NA,Unknown,Closed,
0.9824219,-0.2797852,-0.02978516,-0.2963867,0.9638672,0.4604492,4,0,0,1,0,3,5,30,0,5,5,-1,3,-1,-1,-2,-12.3125,-12.3125,-12.3125,-22.6875,-22.6875,-22.6875,2.296542,2.99469,6.769,6.931444,5.399297,0.3574245,-0.09474353,-0.3994108,1.613801,0.005608212,0.06932598,1.560874,0.08264865,0.5306504,1.716095,-0.1411234,-0.397021,1.60312,-0.008072902,0.04056177,1.617269,0.06921604,0.06566703,1.743436,0.07076739,-0.2559716,1.733787,-0.1054138,0.2387014,1.714027,-0.008705693,-0.249909,1.694931,-0.1327255,-0.02032706,1.701886,0.2461186,0.02897357,1.616081,NA,NA,Unknown,Closed,
0.9692383,-0.2402344,-0.07958984,-0.355957,1.063965,0.3779297,1,-2,-1,-2,-1,-2,0,-3,2,-2,-6,-4,-9,-7,2,-2,-29.5,-29.5,-29.5,-36.6875,-36.6875,-36.6875,2.229192,2.987072,6.793927,6.899766,5.407351,0.3728396,-0.09422797,-0.3996996,1.609626,0.0008428301,0.06837347,1.562592,0.08219812,0.530597,1.716192,-0.140291,-0.4111575,1.599149,-0.003359221,0.03357695,1.615842,0.06886644,0.06566487,1.743557,0.07061779,-0.2559386,1.733838,-0.1058947,0.238742,1.713944,-0.008845905,-0.249865,1.695008,-0.1330753,-0.02047023,1.701337,0.2446982,0.02866877,1.616716,NA,NA,Unknown,Unknown,
0.9516602,-0.2675781,-0.06005859,-0.4438477,1.054199,0.4047852,1,0,-1,-3,-2,-3,-1,2,-3,-1,-1,0,0,-1,2,-5,-54.4375,-54.4375,-54.4375,-34.0625,-34.0625,-34.0625,2.150997,2.977433,6.796367,6.868214,5.43389,0.3934518,-0.09126911,-0.4007978,1.603727,-0.01489912,0.07506123,1.561156,0.08138625,0.5305777,1.716621,-0.1355466,-0.4174558,1.587844,-0.01532427,0.04320661,1.615697,0.06837425,0.06567852,1.743805,0.07057276,-0.2558764,1.73392,-0.1017698,0.2386498,1.714649,-0.008898056,-0.2498236,1.695105,-0.1334824,-0.02112403,1.701152,0.2352723,0.02613894,1.616756,NA,NA,Unknown,Unknown,
0.9433594,-0.2983398,-0.07177734,-0.5375977,0.9887695,0.3198242,8,-1,-3,-3,-4,-6,-13,-53,1,3,2,-3,6,-1,-5,6,-59.5,-59.5,-59.5,-31.375,-31.375,-31.375,2.075847,2.979674,6.805934,6.845664,5.505906,0.4678839,-0.09072743,-0.4005872,1.603793,-0.05483048,0.103222,1.543403,0.0811009,0.530538,1.716736,-0.1346717,-0.4081969,1.587518,-0.03328341,0.05002918,1.616,0.06815652,0.06561315,1.744061,0.0705528,-0.2558972,1.734004,-0.100842,0.238618,1.714851,-0.008958358,-0.2498904,1.695352,-0.1335326,-0.02189335,1.701256,0.2288693,0.0251123,1.616082,NA,NA,Unknown,Unknown,
0.9448242,-0.296875,-0.06298828,-0.53125,0.9550781,0.3569336,0,-1,-1,-1,-3,-4,0,4,1,2,1,1,-1,9,2,8,-49.3125,-49.3125,-49.3125,-36.4375,-36.4375,-36.4375,2.018198,2.981224,6.805881,6.838532,5.530507,0.5026338,-0.09046372,-0.3992543,1.60316,-0.02567365,0.09098054,1.560855,0.08079255,0.5304371,1.716848,-0.1372556,-0.4104252,1.595122,-0.02500484,0.05648493,1.61956,0.06808994,0.06562324,1.74412,0.07055003,-0.2558811,1.734025,-0.1000016,0.2387629,1.714827,-0.008978369,-0.2498484,1.695453,-0.1336837,-0.02250937,1.70123,0.2208188,0.02892075,1.613488,NA,NA,Unknown,Closed,
0.9370117,-0.2939453,-0.1049805,-0.3334961,0.8330078,0.4956055,-2,-3,16,5,1,-2,0,-1,28,-11,-4,0,-4,-3,22,-5,-50.75,-50.75,-50.75,-42.25,-42.25,-42.25,1.996026,2.988948,6.773892,6.817593,5.548675,0.5889421,-0.08976322,-0.4010271,1.605971,-0.0313045,0.09857319,1.557472,0.08051766,0.5303108,1.717202,-0.1367422,-0.4065735,1.599936,-0.02003137,0.0479332,1.617812,0.06792992,0.0657796,1.744404,0.07061554,-0.2554524,1.73433,-0.0991116,0.2393095,1.715013,-0.008950825,-0.2494593,1.695834,-0.133669,-0.02259742,1.701316,0.2126996,0.03258301,1.612032,NA,NA,Unknown,Closed,
0.9755859,-0.2475586,-0.1162109,-0.128418,0.7988281,0.6269531,0,0,4,0,-1,-3,1,5,13,14,15,14,15,8,-24,-4,-97.25,-97.25,-97.25,-56.4375,-56.4375,-56.4375,2.029038,3.00731,6.638208,6.792678,5.534338,0.7224622,-0.0885707,-0.4005633,1.606584,-0.05677994,0.1240935,1.545161,0.08043601,0.5303066,1.717507,-0.1355226,-0.4108034,1.595304,-0.03604658,0.05770781,1.617133,0.06780026,0.06602687,1.744659,0.07068162,-0.2547788,1.734628,-0.1023667,0.2425019,1.714154,-0.008864387,-0.2488563,1.696309,-0.1337624,-0.02250681,1.701301,0.2050363,0.03651162,1.607285,NA,NA,Unknown,Unknown,
1.015625,-0.2099609,-0.1230469,-0.04003906,0.6538086,0.6108398,1,3,33,-1,-2,-3,-2,3,-19,0,-3,-5,0,18,9,0,-128.3125,-128.3125,-128.3125,-51.4375,-51.4375,-51.4375,2.041904,3.006823,6.549588,6.776684,5.538025,0.8637098,-0.08740419,-0.3991934,1.608707,-0.06726865,0.1435991,1.546689,0.08021083,0.5302891,1.718218,-0.1282323,-0.3995745,1.587757,-0.04107169,0.09158517,1.6188,0.06767267,0.06646401,1.745171,0.07080046,-0.2539282,1.734893,-0.09865519,0.2452324,1.713134,-0.008743923,-0.2479508,1.696837,-0.1350733,-0.02141775,1.700199,0.1869183,0.04534055,1.593968,NA,NA,Unknown,Unknown,
0.9970703,-0.3129883,-0.07763672,-0.1777344,0.6977539,0.4394531,1,5,10,0,-1,-2,-2,4,-7,-1,-3,-7,-9,-8,14,9,-140.8125,-140.8125,-140.8125,-10.625,-10.625,-10.625,2.0092,2.997322,6.319962,6.77387,5.576644,0.9393619,-0.08493896,-0.3985121,1.603484,-0.07752141,0.1567244,1.549418,0.08017124,0.53031,1.718383,-0.1254546,-0.3988312,1.580257,-0.07274274,0.1530731,1.5831,0.06769618,0.06666563,1.745247,0.07095296,-0.2535244,1.734886,-0.09685469,0.2449612,1.713053,-0.00860266,-0.2474576,1.697024,-0.136563,-0.01961736,1.698805,0.1775443,0.05244769,1.589351,NA,NA,Unknown,Unknown,
0.8774414,-0.4482422,-0.03125,-0.1176758,0.6108398,0.3764648,5,-1,4,-2,-3,-1,-2,-1,-24,-14,-7,-6,-10,-11,35,-47,-84.5625,-84.5625,-84.5625,-40.375,-40.375,-40.375,2.051798,3.014092,6.15885,6.741853,5.56581,1.007168,-0.08381676,-0.3969666,1.600636,-0.080942,0.1588814,1.557972,0.08008271,0.5303506,1.71882,-0.1229693,-0.3993404,1.576834,-0.04568033,0.1119427,1.6232,0.0688374,0.06714217,1.746679,0.07108639,-0.2531784,1.734962,-0.09570834,0.2449931,1.712999,-0.008468183,-0.2468639,1.697589,-0.1374913,-0.01767951,1.697567,0.1702446,0.05313866,1.585948,NA,NA,Unknown,Unknown,
0.9130859,-0.2666016,-0.03613281,-0.03710938,0.5800781,0.4418945,-1,0,27,-6,-2,-2,-2,-16,-25,-15,-10,-7,-2,-8,12,-29,-26.0625,-26.0625,-26.0625,-31.3125,-31.3125,-31.3125,2.086296,3.026558,6.080193,6.723663,5.537912,1.017204,-0.08080959,-0.3935596,1.59595,-0.1003675,0.170751,1.585051,0.08006357,0.5303887,1.718973,-0.1193421,-0.3972604,1.569094,-0.1253045,0.1459063,1.651571,0.0694705,0.06721682,1.747359,0.07114333,-0.2531318,1.734937,-0.09503395,0.24492,1.712965,-0.008454643,-0.2467946,1.697904,-0.1386084,-0.01580198,1.69586,0.1672777,0.05618879,1.586652,NA,NA,Unknown,Unknown,
0.9550781,-0.1601563,-0.08251953,0.05908203,0.6445313,0.3837891,-12,-8,-3,-2,1,1,6,-2,-13,-7,-11,-12,-7,5,44,-38,-18.4375,-18.4375,-18.4375,-52.5,-52.5,-52.5,2.019764,3.025536,6.124269,6.666733,5.398755,1.018262,-0.07656498,-0.3893588,1.595403,-0.1114555,0.1571701,1.587034,0.07973182,0.5304736,1.719853,-0.1154886,-0.4029586,1.567857,-0.1228475,0.1197452,1.650769,0.07072175,0.06732883,1.748718,0.07139972,-0.2529919,1.734995,-0.0943697,0.2446232,1.713214,-0.008150306,-0.2465086,1.69868,-0.1390783,-0.01576148,1.694605,0.1634914,0.05464903,1.587999,NA,NA,Unknown,Open,
0.9326172,-0.2998047,-0.1074219,0.005859375,0.6079102,0.4541016,4,-6,-36,1,0,0,-2,-11,-9,-4,2,2,14,81,-67,-55,-12.125,-12.125,-12.125,-55.75,-55.75,-55.75,1.928934,3.029191,6.201431,6.63174,5.330246,1.013263,-0.07553712,-0.3891492,1.59587,-0.1157576,0.1447173,1.594685,0.0795715,0.530492,1.719993,-0.1193859,-0.4000347,1.574266,-0.1302273,0.1028878,1.650029,0.07105539,0.06729229,1.749014,0.07149259,-0.2530082,1.734959,-0.09394201,0.2442927,1.713672,-0.008082059,-0.2465917,1.698741,-0.1389795,-0.01777343,1.692667,0.1627284,0.05368574,1.58999,NA,NA,Unknown,Unknown,
0.9311523,-0.3110352,-0.1347656,0.04980469,0.7993164,0.5698242,-1,-2,-20,1,-3,-3,-3,-6,11,3,7,9,8,-45,-39,29,11.25,11.25,11.25,-27.6875,-27.6875,-27.6875,1.893508,3.037659,6.245986,6.588965,5.168538,0.9985131,-0.0756225,-0.3892938,1.596975,-0.1123232,0.1253626,1.602746,0.07922602,0.5305921,1.720337,-0.1147362,-0.4002763,1.569368,-0.1286023,0.07765125,1.641948,0.07075411,0.06734264,1.748816,0.07149658,-0.2530281,1.734946,-0.09367757,0.2438116,1.714138,-0.008164253,-0.2467672,1.698906,-0.1379966,-0.0285895,1.688736,0.1655113,0.05054749,1.593513,NA,NA,Unknown,Unknown,
0.9438477,-0.2924805,-0.1396484,-0.1264648,1.094727,0.8056641,-1,2,26,-3,-2,-1,0,0,-3,-3,-2,0,-4,30,53,-33,20.625,20.625,20.625,-38.6875,-38.6875,-38.6875,1.902651,3.041301,6.257049,6.536004,4.941805,0.9601125,-0.07700715,-0.3904929,1.599886,-0.1105232,0.1054616,1.6149,0.07898554,0.5307044,1.720608,-0.1231009,-0.3987833,1.584833,-0.08986636,0.1525442,1.654614,0.07025855,0.06734124,1.748734,0.07142086,-0.2530712,1.734995,-0.0987188,0.243998,1.716738,-0.00836907,-0.2469525,1.699148,-0.1430277,-0.02229431,1.68125,0.1696413,0.04591056,1.598248,NA,NA,Unknown,Unknown,
0.9277344,-0.3027344,-0.1098633,-0.1162109,1.057617,0.7216797,6,1,16,-3,-2,-3,-4,-9,3,0,-3,-1,3,23,6,-7,30.875,30.875,30.875,-8.625,-8.625,-8.625,1.961561,3.045952,6.227872,6.516105,4.842891,0.9419777,-0.07834815,-0.3901805,1.599352,-0.1043688,0.05262082,1.611524,0.07866271,0.5307078,1.720814,-0.1216578,-0.4143836,1.577512,-0.1390926,-0.002573,1.645466,0.06966491,0.06730543,1.748539,0.07129469,-0.2531117,1.734993,-0.1012938,0.2443854,1.717972,-0.008632441,-0.2470624,1.699259,-0.1443341,-0.02341585,1.679305,0.1773131,0.03868296,1.602443,NA,NA,Unknown,Unknown,
0.9370117,-0.3305664,-0.06835938,-0.015625,1.04834,0.6547852,-12,0,-8,0,0,0,4,12,-2,2,6,4,5,4,-42,-30,29.4375,29.4375,29.4375,-14.9375,-14.9375,-14.9375,2.023072,3.042961,6.200476,6.512881,4.7769,0.9286045,-0.08249434,-0.3915724,1.602748,-0.04941144,-0.01903096,1.601417,0.07820653,0.5307832,1.721062,-0.1248158,-0.4050384,1.576854,-0.09025042,-0.01889915,1.549379,0.06852762,0.06733879,1.74821,0.07086673,-0.253196,1.735096,-0.1003861,0.2449498,1.719431,-0.009411077,-0.2472131,1.699772,-0.146761,-0.020264,1.677648,0.1941745,0.03271873,1.613924,NA,NA,Unknown,Unknown,
0.9331055,-0.3549805,-0.04931641,-0.06347656,1.038574,0.7158203,-3,-3,0,0,2,0,-3,-7,0,1,2,0,-17,-30,-40,10,13.8125,13.8125,13.8125,-11.75,-11.75,-11.75,2.049846,3.036124,6.193305,6.508013,4.762774,0.9237995,-0.08398237,-0.3922458,1.603019,-0.04932821,-0.02415932,1.60425,0.07774363,0.5305153,1.721217,-0.1331287,-0.4078503,1.58519,-0.1082841,-0.03039613,1.551,0.06778216,0.06730603,1.748003,0.07017115,-0.2532926,1.735092,-0.1024231,0.2453193,1.71994,-0.01017191,-0.2471792,1.699875,-0.1470484,-0.01814189,1.677429,0.1971897,0.03095192,1.61616,NA,NA,Unknown,Unknown,
0.9399414,-0.3310547,-0.06152344,0.05175781,0.9482422,0.6523438,-1,-1,-8,-1,-1,-3,-1,-4,0,0,-1,0,10,33,38,7,11,11,11,-3.0625,-3.0625,-3.0625,2.048437,3.032932,6.208892,6.511252,4.771376,0.8893092,-0.08610568,-0.3943117,1.604109,-0.03614291,-0.03931346,1.605939,0.07731476,0.5304742,1.721439,-0.128449,-0.4062045,1.579552,-0.06874005,-0.0323955,1.538444,0.06719646,0.0672528,1.748075,0.06960718,-0.2533712,1.735347,-0.1039976,0.2456499,1.72048,-0.01082612,-0.2471821,1.70034,-0.1472855,-0.01762597,1.677339,0.1993136,0.02941333,1.618066,NA,NA,Unknown,Unknown,
0.9438477,-0.3227539,-0.06445313,0.04199219,0.8554688,0.6113281,4,0,2,-1,-3,-3,-4,-12,4,0,-1,3,7,24,-9,-3,17.25,17.25,17.25,-4.4375,-4.4375,-4.4375,2.049946,3.034429,6.226955,6.51104,4.796216,0.85986,-0.08689035,-0.3938267,1.604356,-0.03431445,-0.04057504,1.605218,0.07684746,0.5304061,1.721359,-0.1344364,-0.4080829,1.586032,-0.07361386,-0.03197081,1.533952,0.0665327,0.06730536,1.748096,0.06900875,-0.2533529,1.735597,-0.1054234,0.2461522,1.720903,-0.01149378,-0.2471093,1.700836,-0.1472854,-0.01728804,1.677438,0.2010453,0.02869641,1.619009,NA,NA,Unknown,Unknown,
0.9462891,-0.3110352,-0.08154297,0.3427734,0.8994141,0.3134766,1,2,26,-2,-1,-2,-2,-8,-7,-6,-2,-3,-8,-8,-34,-38,17.625,17.625,17.625,14.9375,14.9375,14.9375,2.04624,3.038625,6.253473,6.548406,4.807017,0.8123605,-0.08693174,-0.3940426,1.604297,-0.03441725,-0.03987978,1.603837,0.07633205,0.530261,1.721382,-0.1294006,-0.4087376,1.57993,0.01290979,-0.1408142,1.605571,0.06594931,0.0672072,1.74811,0.06846102,-0.2535164,1.735802,-0.1061456,0.2463808,1.721028,-0.01206917,-0.247218,1.701156,-0.1473491,-0.01731135,1.677443,0.2014833,0.02723243,1.619682,NA,NA,Unknown,Unknown,
0.9462891,-0.3110352,-0.08154297,0.3427734,0.8994141,0.3134766,1,2,26,-2,-1,-2,-2,-8,-7,-6,-2,-3,-8,-8,-34,-38,17.625,17.625,17.625,14.9375,14.9375,14.9375,2.04624,3.038625,6.253473,6.548406,4.807017,0.8123605,-0.08763976,-0.3934676,1.605681,-0.06212797,-0.01547151,1.603418,0.07623579,0.530199,1.721415,-0.1283261,-0.4078228,1.580953,-0.03328504,-0.02489518,1.525014,0.0656068,0.06725348,1.748197,0.06811324,-0.2534304,1.736043,-0.1067446,0.2465821,1.721242,-0.01242653,-0.2470714,1.701386,-0.1474733,-0.01739065,1.677792,0.2020121,0.02672277,1.620591,NA,NA,Unknown,Unknown,
0.9472656,-0.3120117,-0.08154297,0.1499023,0.4799805,0.9404297,-3,-3,-36,-2,-4,-3,-2,-5,-1,4,4,2,-2,-1,5,-6,10,10,10,4.8125,4.8125,4.8125,2.047908,3.040334,6.265799,6.527114,4.830319,0.7996184,-0.08752571,-0.3937732,1.606818,-0.004073123,-0.01392568,1.60082,0.07610746,0.5302554,1.721447,-0.1289459,-0.4070591,1.581918,0.01018235,-0.02255036,1.52534,0.06516375,0.06733302,1.748311,0.06774969,-0.2533846,1.736311,-0.1071318,0.2468625,1.721406,-0.01277771,-0.2469924,1.701585,-0.1476935,-0.01736918,1.677841,0.2026501,0.02664031,1.621483,NA,NA,Unknown,Unknown,
0.934082,-0.3320313,-0.08349609,-0.3574219,0.4560547,0.5024414,5,-2,-7,-2,-2,-5,-6,-7,-2,1,1,0,-2,-5,3,-1,4,4,4,17.3125,17.3125,17.3125,2.054773,3.041871,6.270258,6.521617,4.829067,0.7764238,-0.0871752,-0.3934009,1.605586,-0.004664025,-0.01305752,1.598764,0.07598694,0.5302738,1.721476,-0.1288802,-0.4068476,1.581328,-0.0449867,-0.06429373,1.640745,0.06487701,0.06733402,1.74832,0.06747623,-0.2534282,1.736436,-0.1073744,0.2470832,1.721288,-0.01306855,-0.2470827,1.70167,-0.1481161,-0.01679968,1.677807,0.2027367,0.0264538,1.621564,NA,NA,Unknown,Unknown,
0.9443359,-0.3144531,-0.08447266,0.4794922,0.6430664,0.5844727,0,-3,-2,-1,0,0,1,-4,-1,-3,-5,-7,-1,-1,0,0,4.6875,4.6875,4.6875,6.125,6.125,6.125,2.053744,3.041421,6.274242,6.524707,4.805542,0.7430788,-0.08754197,-0.3937492,1.606169,-0.06146972,-0.02014336,1.596199,0.07585492,0.5302922,1.721532,-0.1287558,-0.4082418,1.581343,-0.04979609,-0.07919428,1.636949,0.06427913,0.06746664,1.748355,0.06702187,-0.2532619,1.736628,-0.1077314,0.247422,1.721254,-0.01352961,-0.246865,1.701764,-0.1481102,-0.01693952,1.677987,0.2030292,0.02636098,1.621846,NA,NA,Unknown,Unknown,
0.9418945,-0.300293,-0.09179688,0.3198242,0.6147461,0.5351563,0,-1,3,-3,-3,-3,-3,-13,-1,-2,-3,-1,1,-2,-3,-1,18.0625,18.0625,18.0625,16.5,16.5,16.5,2.051072,3.040246,6.292476,6.539941,4.755062,0.6723881,-0.08796234,-0.3938115,1.605679,-0.02804847,-0.06347162,1.590762,0.07578595,0.5303567,1.721553,-0.1294813,-0.4075772,1.582692,-0.01371703,-0.1147896,1.617457,0.06410365,0.06745461,1.748385,0.06682777,-0.2533034,1.736778,-0.1079797,0.2475207,1.721302,-0.01369786,-0.2468529,1.701807,-0.1447152,-0.03254551,1.676654,0.2046925,0.02519381,1.622629,NA,NA,Unknown,Unknown,
0.9492188,-0.3027344,-0.07910156,0.3051758,0.8056641,0.4970703,4,-3,-4,0,1,2,2,11,1,-1,-4,1,-1,0,5,-1,66,66,66,1.4375,1.4375,1.4375,2.071844,3.044056,6.349367,6.567777,4.693839,0.5682238,-0.08866307,-0.393869,1.605719,-0.0123408,-0.08564163,1.594438,0.07569045,0.5304628,1.721745,-0.1294927,-0.4076611,1.582126,-0.09233478,-0.006832,1.517333,0.06334763,0.06733049,1.748588,0.06577706,-0.2537982,1.737405,-0.1089135,0.2473709,1.721727,-0.01484151,-0.2473088,1.702063,-0.1469387,-0.02264881,1.680368,0.2135861,0.02354129,1.630334,NA,NA,Unknown,Unknown,
0.9477539,-0.3037109,-0.07666016,0.3852539,0.7314453,0.5678711,0,-2,-5,-1,-2,-1,-2,-6,-1,-2,-1,-2,-3,-2,1,-10,103.3125,103.3125,103.3125,-9.75,-9.75,-9.75,2.083458,3.044214,6.397975,6.582872,4.618617,0.4369631,-0.08918044,-0.3928769,1.604046,-0.004914565,-0.04236335,1.582555,0.07560612,0.5306464,1.721902,-0.1312554,-0.4099383,1.581957,0.05522028,-0.04941454,1.520888,0.06273402,0.06718677,1.74861,0.06485814,-0.2542793,1.737715,-0.1098896,0.2470356,1.721756,-0.01572012,-0.2476016,1.702045,-0.1474004,-0.03290087,1.67976,0.2197725,0.01958494,1.636856,NA,NA,Unknown,Unknown,
0.9492188,-0.2758789,-0.1010742,0.3398438,0.7617188,0.6030273,-1,0,1,0,-1,-3,-1,-4,3,-2,0,0,-3,-1,-2,10,146.875,146.875,146.875,11.125,11.125,11.125,2.141064,3.049198,6.503007,6.620481,4.527442,0.3108282,-0.0911412,-0.3920571,1.605839,-0.1063653,-0.08399338,1.546867,0.07551142,0.5307752,1.722077,-0.1387201,-0.4094085,1.590539,-0.1170002,-0.05880103,1.5005,0.06159125,0.06685888,1.748675,0.063266,-0.2551007,1.738156,-0.1107057,0.246861,1.722175,-0.0172619,-0.2482394,1.702123,-0.1548537,0.02337885,1.708877,0.2266373,0.01736732,1.64469,NA,NA,Unknown,Unknown,
0.953125,-0.3393555,-0.04003906,0.2265625,0.8007813,0.5473633,-4,-1,-1,0,0,-2,0,-1,-1,1,0,0,0,0,2,-1,184.3125,184.3125,184.3125,16,16,16,2.334924,3.066335,6.605614,6.643692,4.469341,0.2629202,-0.09679631,-0.3805433,1.608849,-0.02912996,-0.1261318,1.569116,0.07544883,0.5307971,1.722167,-0.1422278,-0.3794208,1.594097,-0.004402796,-0.08220395,1.5026,0.06085439,0.06648552,1.748621,0.0620449,-0.2561797,1.738377,-0.1115978,0.2462324,1.722428,-0.01827301,-0.2491735,1.701934,-0.1529231,0.01732681,1.710532,0.2341618,0.01726304,1.655344,NA,NA,NotTracked,Unknown,
0.9521484,-0.3393555,-0.03173828,0.2773438,0.7626953,0.4023438,-2,0,-2,-4,-1,-1,-1,-4,1,-1,-4,-4,0,-6,1,4,197.3125,197.3125,197.3125,-23.3125,-23.3125,-23.3125,2.420631,3.066403,6.63088,6.676615,4.218626,0.1361514,-0.1188836,-0.3046858,1.628696,-0.002822485,-0.1529616,1.561704,0.07532921,0.530945,1.722327,-0.1594009,-0.2944021,1.61425,0.00995098,-0.1137693,1.497036,0.06002751,0.06599281,1.748368,0.06098302,-0.2572857,1.738386,-0.1127657,0.2451992,1.722686,-0.01927457,-0.25032,1.701688,-0.1524431,0.005262571,1.713539,0.2412231,0.01939814,1.664561,NA,NA,NotTracked,NotTracked,
0.9941406,-0.137207,-0.01220703,0.2128906,0.7197266,0.1645508,-1,-1,-3,-3,-2,0,0,-3,-1,0,1,1,-1,3,0,-3,146.3125,146.3125,146.3125,-40.375,-40.375,-40.375,2.722982,3.0484,6.626176,6.714537,4.041036,9.987348,-0.111623,-0.4004917,1.612354,0.06409995,-0.2163906,1.571875,0.07512017,0.5310538,1.722464,-0.1537469,-0.4181111,1.59651,0.0467699,-0.1908735,1.489586,0.05748951,0.06472188,1.74878,0.05616255,-0.2608025,1.741187,-0.114351,0.2438423,1.723273,-0.02447052,-0.2545035,1.704289,-0.1524137,-0.006963952,1.719191,0.2630259,0.01932454,1.689954,NA,NA,NotTracked,Unknown,
0.8579102,-0.2626953,0.01171875,0.6484375,0.6113281,0.5419922,1,-1,0,1,-1,0,-1,1,6,-2,-3,-4,-1,-2,-1,2,41.5,41.5,41.5,-145.0625,-145.0625,-145.0625,2.795491,3.003554,6.630484,6.655275,3.826174,9.829221,-0.1143687,-0.4007083,1.617977,0.1006254,-0.213444,1.58775,0.07495691,0.5311942,1.72253,-0.1678108,-0.4028674,1.619842,0.03356497,-0.1793322,1.595737,0.05626192,0.0641416,1.748928,0.0541765,-0.261879,1.742277,-0.115215,0.2430583,1.723518,-0.02713033,-0.2552388,1.705168,-0.152446,-0.009017983,1.720829,0.2642869,0.02219767,1.691778,NA,NA,Unknown,Unknown,
0.9829102,-0.409668,0.09277344,0.8354492,0.644043,0.4106445,1,0,-2,0,-1,-2,-2,0,3,-1,-6,0,-3,-4,-3,-1,19.0625,19.0625,19.0625,-98.9375,-98.9375,-98.9375,2.713492,2.990359,6.731646,6.689406,3.651014,9.607084,-0.1197049,-0.4059189,1.623412,0.1029849,-0.2877609,1.526183,0.07481194,0.5312549,1.722556,-0.1677595,-0.4090208,1.612615,0.08180612,-0.2747481,1.485714,0.0547353,0.06345526,1.74893,0.05224422,-0.263162,1.742775,-0.1162746,0.24184,1.72394,-0.02922406,-0.25578,1.705304,-0.152712,-0.0129926,1.723789,0.2643808,0.02078154,1.693426,NA,NA,Unknown,Unknown,
0.9804688,-0.3730469,0.1015625,0.8876953,0.7529297,0.4604492,-4,-4,-3,0,-2,-2,-1,-4,0,-1,0,-2,0,-1,0,0,42.5625,42.5625,42.5625,-150.25,-150.25,-150.25,2.699968,2.980981,6.771224,6.705245,3.494245,9.395864,-0.1246316,-0.4046959,1.6304,0.1397474,-0.3005719,1.537784,0.07460004,0.5314748,1.722626,-0.1769305,-0.4020337,1.629464,0.1015681,-0.3127054,1.483053,0.05297772,0.06300321,1.748721,0.04927333,-0.2637649,1.742918,-0.1169892,0.241555,1.724179,-0.03269562,-0.256011,1.705182,-0.1534684,-0.01461839,1.725427,0.2631968,0.01440231,1.698781,NA,NA,Unknown,Unknown,
0.9755859,-0.2192383,0.02587891,0.8071289,0.3720703,0.5,1,-1,0,-1,0,0,-1,-1,0,-3,-3,-3,-3,-2,1,-3,24.8125,24.8125,24.8125,-172.5625,-172.5625,-172.5625,2.647171,2.944131,6.889942,6.670636,3.359325,9.194142,-0.1291144,-0.405932,1.636434,0.1632641,-0.3260992,1.53861,0.07436059,0.5316331,1.72258,-0.1816957,-0.3910171,1.638846,0.1728441,-0.3414729,1.491569,0.05163535,0.06269438,1.748349,0.04691853,-0.264531,1.743063,-0.1107527,0.240396,1.72341,-0.03535677,-0.2564217,1.705173,-0.1544677,-0.01846597,1.727774,0.2638162,0.006726701,1.702358,NA,NA,Unknown,Unknown,
0.9658203,-0.2358398,0.04980469,0.8867188,0.4541016,0.4013672,-2,0,-2,-1,-2,-1,0,0,-1,-2,1,1,-1,-1,0,-1,14.5,14.5,14.5,-90.5625,-90.5625,-90.5625,2.623748,2.933005,6.922976,6.772157,3.238538,8.9459,-0.1344874,-0.4075497,1.64826,0.2058762,-0.3710487,1.557863,0.07396816,0.5318732,1.722437,-0.1874108,-0.4003389,1.651379,0.2441828,-0.3833107,1.551,0.05102607,0.06238188,1.748286,0.04660197,-0.2649798,1.743599,-0.1148319,0.2391726,1.724305,-0.03545924,-0.2571881,1.705729,-0.1563268,-0.02439715,1.731673,0.2630455,-0.01369566,1.710111,NA,NA,NotTracked,Unknown,
0.9584961,-0.2802734,0.09179688,0.8857422,0.5283203,0.2607422,-1,-2,-1,-1,-1,-2,-3,-3,-2,0,-1,-1,-1,-1,-1,1,8.5625,8.5625,8.5625,-114.375,-114.375,-114.375,2.573616,2.906092,6.992064,6.872639,3.135984,8.707794,-0.1362012,-0.4056376,1.654106,0.2296892,-0.384836,1.571405,0.07386542,0.5319787,1.722323,-0.1881638,-0.3856285,1.656024,0.2652355,-0.4070492,1.560278,0.0509904,0.06230227,1.748328,0.04691917,-0.2652967,1.744331,-0.1155486,0.2394558,1.724496,-0.0348495,-0.2576972,1.70655,-0.1572147,-0.02614546,1.73334,0.2628605,-0.01705011,1.713141,NA,NA,NotTracked,Unknown,
0.9594727,-0.2924805,0.08984375,0.925293,0.3608398,0.1791992,1,-1,-2,-1,-1,0,1,4,0,-1,-1,0,-2,-1,-2,-1,12.0625,12.0625,12.0625,-119.625,-119.625,-119.625,2.567915,2.90082,7.005699,6.960067,3.046817,8.467119,-0.1376227,-0.4062576,1.657581,0.2488405,-0.3966462,1.586058,0.07369621,0.5320267,1.722211,-0.1895449,-0.4042262,1.662905,0.2874565,-0.4039046,1.578044,0.05089926,0.06210072,1.748355,0.04721427,-0.2658682,1.744968,-0.1162223,0.2393817,1.72454,-0.0344009,-0.2583541,1.707107,-0.1578586,-0.02736483,1.7349,0.261996,-0.01939045,1.71518,NA,NA,NotTracked,Unknown,
0.9541016,-0.2851563,0.08496094,0.9985352,0.3046875,0.1357422,0,-1,0,0,-2,1,-2,2,-1,-2,-1,-1,-1,1,0,1,17.875,17.875,17.875,-81.9375,-81.9375,-81.9375,2.569722,2.892705,7.024689,7.087907,2.972542,8.224115,-0.1381228,-0.4048564,1.660632,0.2632031,-0.4149583,1.60133,0.07362224,0.5320947,1.722127,-0.1895753,-0.403142,1.666692,0.3034527,-0.4234491,1.596883,0.0508173,0.06191294,1.748396,0.04748135,-0.2664576,1.745768,-0.1167297,0.239528,1.724573,-0.03403103,-0.25894,1.70788,-0.1583038,-0.02819759,1.736152,0.2608849,-0.02408445,1.718183,NA,NA,NotTracked,Unknown,
0.9741211,-0.3085938,0.08789063,1.033691,0.2236328,0.08935547,5,2,-2,1,0,0,-1,4,-1,-1,-2,0,-2,-1,0,0,23.9375,23.9375,23.9375,-46.3125,-46.3125,-46.3125,2.595578,2.892206,7.024086,7.192384,2.917468,8.050261,-0.1393716,-0.4032705,1.663835,0.2758721,-0.4223908,1.639232,0.07337157,0.532293,1.721997,-0.1891497,-0.4046561,1.669588,0.3183278,-0.4190707,1.628364,0.0506971,0.06154438,1.748636,0.04810463,-0.2674597,1.747643,-0.1173495,0.2395762,1.724771,-0.03321411,-0.2599005,1.70961,-0.1590608,-0.02893282,1.738717,0.2571162,-0.04191258,1.725413,NA,NA,NotTracked,Unknown,
0.9492188,-0.2900391,0.03222656,1.026367,0.1601563,0.08837891,-1,0,0,1,-2,-3,0,0,-2,-1,0,-1,-1,0,-1,0,28.875,28.875,28.875,6.5625,6.5625,6.5625,2.640626,2.897862,7.011414,7.209069,2.878036,8.022835,-0.1371089,-0.4072563,1.660545,0.2732403,-0.4249506,1.653822,0.07324166,0.5324354,1.721866,-0.1876253,-0.4117217,1.669616,0.3194449,-0.4235813,1.6446,0.05065924,0.06148196,1.748693,0.04826027,-0.2676958,1.748027,-0.1178578,0.2397299,1.724881,-0.03303646,-0.260123,1.709916,-0.1590063,-0.02907665,1.739502,0.2565533,-0.04193519,1.725998,NA,NA,NotTracked,NotTracked,
0.9458008,-0.2788086,0.02148438,0.984375,0.2329102,0.1552734,-1,-1,-2,-1,0,0,0,-1,-1,-2,0,0,-1,-2,-1,1,10.875,10.875,10.875,57.8125,57.8125,57.8125,2.674124,2.905997,6.994814,7.051999,2.856108,8.262893,-0.1364391,-0.404728,1.659383,0.2680035,-0.4221712,1.663575,0.0731228,0.5326476,1.72177,-0.1814486,-0.4147949,1.656429,0.3162611,-0.4229955,1.6566,0.05063566,0.06142658,1.74873,0.04839787,-0.2678943,1.748402,-0.1180981,0.2398065,1.72488,-0.03284973,-0.260359,1.710315,-0.1589561,-0.02931123,1.739949,0.25517,-0.04400676,1.727991,NA,NA,NotTracked,NotTracked,
0.953125,-0.2822266,0.01757813,0.9638672,0.2587891,0.1621094,1,-3,-4,0,-1,0,-3,-2,0,-2,-2,-2,-1,-1,-1,-1,3.625,3.625,3.625,61.375,61.375,61.375,2.68583,2.910562,6.984718,6.96112,2.860721,8.389151,-0.1347527,-0.4050769,1.657975,0.259558,-0.4217908,1.668832,0.072988,0.5327986,1.721721,-0.1816271,-0.407239,1.656469,0.3076435,-0.4213924,1.6637,0.05063257,0.06138617,1.748816,0.04877313,-0.2679606,1.748929,-0.1184091,0.2399766,1.724961,-0.03238194,-0.2605546,1.710814,-0.1589955,-0.0294447,1.740165,0.2543142,-0.04500049,1.73023,NA,NA,NotTracked,NotTracked,
