ALX,ALY,ALZ,ARX,ARY,ARZ,EMG0L,EMG1L,EMG2L,EMG3L,EMG4L,EMG5L,EMG6L,EMG7L,EMG0R,EMG1R,EMG2R,EMG3R,EMG4R,EMG5R,EMG6R,EMG7R,GLX,GLY,GLZ,GRX,GRY,GRZ,ORL,OPL,OYL,ORR,OPR,OYR,LHNX,LHNY,LHNZ,RHNX,RHNY,RHNZ,HX,HY,HZ,LTX,LTY,LTZ,RTX,RTY,RTZ,SpineMidX,SpineMidY,SpineMidZ,SpineBaseX,SpineBaseY,SpineBaseZ,ShoulderLeftX,ShoulderLeftY,ShoulderLeftZ,ShoulderRightX,ShoulderRightY,ShoulderRightZ,ElbowLeftX,ElbowLeftY,ElbowLeftZ,ElbowRightX,ElbowRightY,ElbowRightZ,Myo_Pose_left,Myo_Pose_Right,Kinect_pose_left,Kinect_pose_right
-0.9335938,-0.3911133,-0.1225586,-0.9667969,0.2802734,-0.02246094,-1,1,-1,-1,1,-1,0,-1,2,0,-1,0,-1,0,-2,-2,-0.1875,-0.1875,-0.1875,-0.1875,-0.1875,-0.1875,2.140377,6.857707,5.496056,7.579808,7.04719,7.020432,-0.1175286,-0.4109103,1.587729,0.2917216,-0.4242812,1.535758,0.0913016,0.4667282,1.688375,-0.07021051,-0.4005397,1.551772,0.3378002,-0.432988,1.533997,0.09345254,-0.005226736,1.67838,0.096619,-0.3330652,1.657162,-0.09000984,0.1699667,1.676641,0.01562396,-0.3268273,1.624896,-0.1266463,-0.09757061,1.68813,0.302221,-0.09574842,1.648154,NA,NA,NotTracked,NotTracked,
-0.9326172,-0.3911133,-0.1098633,-0.965332,0.2724609,-0.01806641,-1,-1,-2,0,0,-2,-1,1,0,2,-2,-1,0,-1,-2,-2,1.4375,1.4375,1.4375,0.75,0.75,0.75,2.14383,6.858121,5.499812,7.576044,7.046828,7.015679,-0.1172188,-0.4112208,1.587722,0.2915831,-0.4245761,1.537095,0.09124579,0.4666954,1.688437,-0.07213558,-0.3967008,1.554196,0.3381046,-0.430306,1.5405,0.09336358,-0.005214331,1.678454,0.09659117,-0.3330276,1.657232,-0.09014101,0.1699795,1.676631,0.01561085,-0.3268055,1.624948,-0.1271663,-0.09750395,1.688105,0.3018492,-0.09549884,1.648585,NA,NA,NotTracked,NotTracked,
-0.9384766,-0.3828125,-0.1157227,-0.980957,0.2744141,-0.01708984,-3,0,0,-1,1,-1,1,-1,-1,-1,0,0,0,-4,0,-1,1.4375,1.4375,1.4375,-1.5,-1.5,-1.5,2.145585,6.860202,5.500361,7.57058,7.04568,7.009768,-0.1169481,-0.4105887,1.5868,0.2905475,-0.4242379,1.536206,0.09118526,0.4666418,1.688439,-0.07110555,-0.393824,1.550452,0.3328939,-0.4299794,1.5284,0.09305972,-0.005212156,1.678595,0.09643427,-0.3330119,1.65728,-0.09021534,0.1700093,1.676619,0.01543944,-0.3267678,1.62497,-0.1272739,-0.09747445,1.688053,0.3016553,-0.09549103,1.648674,NA,NA,NotTracked,NotTracked,
-0.9423828,-0.3930664,-0.1191406,-0.9663086,0.2680664,-0.02539063,0,-2,1,1,-2,1,-1,0,0,-1,-2,-3,0,-2,-3,-2,0.8125,0.8125,0.8125,-1.6875,-1.6875,-1.6875,2.147263,6.860682,5.50351,7.56394,7.044915,7.004519,-0.1169801,-0.4104179,1.585607,0.2898141,-0.4239669,1.535655,0.09113482,0.4666165,1.688429,-0.07144691,-0.3954468,1.550301,0.3342522,-0.4298355,1.531055,0.09297666,-0.005208913,1.678597,0.09625674,-0.332951,1.657327,-0.09031821,0.1701033,1.676568,0.01527694,-0.3266735,1.625004,-0.1275543,-0.09740728,1.687564,0.3014589,-0.09547321,1.648787,NA,NA,NotTracked,NotTracked,
-0.9267578,-0.3916016,-0.1162109,-0.9628906,0.2749023,-0.02587891,-2,-2,0,0,-2,2,-2,-3,-2,-3,-3,-1,-2,1,-1,-2,0.1875,0.1875,0.1875,0.8125,0.8125,0.8125,2.146247,6.861009,5.504486,7.564589,7.045559,7.00433,-0.1170033,-0.4105855,1.587187,0.2896309,-0.4247152,1.537694,0.09102903,0.4665944,1.688472,-0.07030848,-0.4120453,1.552437,0.3355781,-0.4329473,1.53307,0.09281548,-0.005209365,1.67873,0.09618172,-0.3329078,1.657412,-0.09040391,0.1701407,1.676631,0.01521947,-0.326636,1.625027,-0.1276756,-0.09736212,1.68765,0.3011384,-0.09541266,1.648982,NA,NA,NotTracked,NotTracked,
-0.9394531,-0.387207,-0.1206055,-0.9697266,0.2758789,-0.02246094,-1,-1,1,1,1,-2,-2,-2,-2,-2,-1,-1,0,-3,-3,0,1.4375,1.4375,1.4375,-0.625,-0.625,-0.625,2.146175,6.861383,5.503302,7.565553,7.045265,7.005156,-0.1168952,-0.4108096,1.587785,0.2896382,-0.4248559,1.538175,0.09089281,0.4664766,1.688484,-0.0712046,-0.3949173,1.552398,0.3319025,-0.4196396,1.5339,0.09271938,-0.005237434,1.678818,0.09615151,-0.3328941,1.657507,-0.09052326,0.1701995,1.676732,0.0152076,-0.3266355,1.625072,-0.1276888,-0.09731697,1.687766,0.3008963,-0.09533927,1.649373,NA,NA,NotTracked,NotTracked,
-0.9316406,-0.3955078,-0.1147461,-0.9633789,0.2753906,-0.02490234,-2,-1,0,-1,-1,-3,0,0,-2,0,-2,0,-3,-2,1,0,0.0625,0.0625,0.0625,-0.8125,-0.8125,-0.8125,2.143742,6.860978,5.502966,7.567426,7.045768,7.007032,-0.1171482,-0.410219,1.587837,0.2896879,-0.4246335,1.537494,0.0908739,0.4664536,1.688484,-0.07140745,-0.3932002,1.552588,0.3345802,-0.4285658,1.533501,0.09266526,-0.005253444,1.678852,0.09609523,-0.3328792,1.65753,-0.09053598,0.1702139,1.676737,0.01513176,-0.3266205,1.625098,-0.1277813,-0.09729373,1.687748,0.3007112,-0.09529272,1.649529,NA,NA,NotTracked,NotTracked,
-0.9716797,-0.4067383,-0.1064453,-1.070801,0.2724609,-0.0390625,15,-2,-3,-2,-3,-3,-1,9,1,-28,-12,0,0,2,3,5,0.25,0.25,0.25,5.875,5.875,5.875,2.145465,6.858457,5.504263,7.508836,7.02848,6.940811,-0.1167248,-0.4102949,1.587667,0.2894005,-0.4241314,1.537167,0.09086314,0.4663804,1.688526,-0.07134872,-0.3917482,1.552955,0.3339663,-0.4333575,1.533188,0.09269035,-0.005244425,1.678954,0.0961161,-0.3328618,1.657591,-0.09063224,0.1701957,1.67684,0.01515772,-0.3266106,1.625146,-0.1279553,-0.0972995,1.687854,0.3004775,-0.09507798,1.650048,NA,NA,NotTracked,NotTracked,
-1.281738,-0.6430664,-0.1181641,-1.447754,0.2714844,0.1118164,-71,8,8,-3,3,11,-8,1,-47,5,8,-18,-2,0,-20,-7,-27.6875,-27.6875,-27.6875,51.125,51.125,51.125,2.286836,6.787131,5.677277,7.25275,6.908455,6.623152,-0.1132871,-0.4065861,1.57193,0.2767347,-0.4105425,1.522382,0.09078058,0.4662657,1.688539,-0.06984837,-0.3827102,1.549387,0.3222789,-0.4379421,1.521667,0.09257898,-0.005251859,1.678953,0.09592754,-0.3327999,1.657613,-0.09070057,0.1702549,1.676844,0.01489616,-0.3264626,1.625081,-0.1289458,-0.09688602,1.689687,0.3028224,-0.09276748,1.65508,NA,NA,NotTracked,NotTracked,
-1.407715,-1.6875,0.07714844,-1.436035,1.508789,0.3144531,57,-76,-11,-87,-11,13,106,-1,-19,-24,5,1,-5,-22,-59,-5,-139.375,-139.375,-139.375,148.75,148.75,148.75,2.580716,6.258197,6.278814,7.087356,6.492742,6.242429,-0.1001399,-0.348193,1.539761,0.2239135,-0.3178517,1.486855,0.09063978,0.4658836,1.68795,-0.06160526,-0.3364704,1.527215,0.2470978,-0.3695068,1.4709,0.0921354,-0.005011165,1.678134,0.09434076,-0.3316781,1.656386,-0.09097978,0.1705648,1.677124,0.01270821,-0.3248007,1.623962,-0.1350674,-0.0929668,1.706874,0.3167294,-0.07361836,1.672128,NA,NA,NotTracked,Unknown,
-0.6811523,-1.325195,0.1826172,-0.3125,0.7563477,0.3110352,-1,120,-9,-119,-8,-8,-54,46,32,7,2,6,3,6,-20,-18,189.25,189.25,189.25,-67.6875,-67.6875,-67.6875,2.788195,5.611341,6.45431,6.84631,5.715961,5.987023,-0.0495827,-0.23965,1.508796,0.1580674,-0.1738944,1.487735,0.09035695,0.4653951,1.68574,-0.04472116,-0.3006307,1.541744,0.1781063,-0.2424363,1.522552,0.09213575,-0.004301176,1.676653,0.09528498,-0.3288559,1.654814,-0.0912157,0.1726669,1.678212,0.01347952,-0.3225508,1.622371,-0.1479411,-0.06068081,1.727645,0.3342076,-0.04452576,1.6808,NA,NA,NotTracked,Lasso,
0.1606445,-0.05371094,-0.2724609,0.1279297,0.3056641,0.05761719,25,-20,4,5,2,-19,-6,70,32,10,21,30,32,13,22,51,118.25,118.25,118.25,-20.0625,-20.0625,-20.0625,3.140831,5.038072,6.62199,6.739858,5.113596,5.860798,-0.006601703,-0.0979678,1.476831,0.1455859,-0.04368633,1.478065,0.08984371,0.4634383,1.682414,0.03307844,-0.0931256,1.442923,0.1353382,-0.1027982,1.524558,0.09219556,-0.003643193,1.676765,0.09567252,-0.3251199,1.655672,-0.09028499,0.1763124,1.680649,0.01409478,-0.319069,1.623012,-0.1514632,-0.04739022,1.724973,0.3381973,-0.03689887,1.661416,NA,NA,NotTracked,NotTracked,
0.2211914,-0.546875,-0.3164063,0.08691406,0.7182617,0.09375,74,15,3,30,-10,-7,-2,11,-38,-25,-4,1,0,-6,-15,-19,-180.5625,-180.5625,-180.5625,36.25,36.25,36.25,2.922966,4.4675,6.750963,6.882139,4.469448,5.766304,-0.002986084,0.02546935,1.456406,0.1510007,0.03865563,1.42526,0.08876073,0.4613467,1.680507,0.03946052,0.01092143,1.516231,0.1257955,0.008192005,1.412739,0.09241889,-0.003201078,1.677802,0.09655101,-0.3229532,1.656631,-0.09030021,0.177285,1.68259,0.01565628,-0.3167756,1.623611,-0.1506173,-0.04315577,1.699739,0.342561,-0.04364888,1.615201,NA,NA,NotTracked,NotTracked,
-0.3999023,-1.104492,0.1269531,0.04052734,0.5639648,0.2568359,48,-56,-19,-3,19,1,-39,84,16,-8,0,17,8,0,-7,0,-144.375,-144.375,-144.375,-35,-35,-35,2.648467,4.37674,6.704635,6.863029,4.256664,5.71104,-0.00419808,0.08306108,1.449094,0.1709011,0.03877943,1.396026,0.0878569,0.4586436,1.680023,-0.02288927,0.1185074,1.447182,0.1121696,0.01980989,1.4134,0.09354012,-0.003840595,1.679865,0.09686068,-0.3223031,1.657371,-0.08908357,0.1778051,1.685267,0.01602508,-0.316292,1.623966,-0.1619347,-0.07558177,1.655098,0.3406101,-0.02863393,1.570176,NA,NA,NotTracked,NotTracked,
-0.1757813,-1.195801,0.59375,-0.05175781,0.75,0.3808594,31,-123,-5,-113,-4,5,111,7,25,1,7,0,6,2,2,0,-52.375,-52.375,-52.375,33.4375,33.4375,33.4375,2.54052,4.364669,6.713072,6.912592,4.254927,5.666156,0.006589707,0.09378952,1.453092,0.1933048,0.06293189,1.442515,0.08644197,0.456726,1.680993,-0.03250076,0.1141688,1.420063,0.132284,0.04735501,1.481286,0.09231938,-0.003631548,1.682091,0.09692772,-0.3216984,1.657816,-0.0927159,0.1804515,1.690334,0.01616568,-0.3157952,1.624394,-0.1579012,-0.07603426,1.6485,0.3559968,-0.01792962,1.558677,NA,NA,NotTracked,NotTracked,
0.7739258,-0.159668,-0.3203125,0.4799805,0.8530273,0.3652344,-30,-7,-1,15,1,38,-126,-41,-37,-12,-12,-13,0,-2,-6,-14,245.875,245.875,245.875,-24.4375,-24.4375,-24.4375,3.015156,4.29848,6.922054,6.897197,4.31114,5.598808,0.003431775,0.09795153,1.44694,0.1999876,0.1061337,1.465305,0.08575343,0.4559932,1.681624,-0.02184231,0.1308457,1.439067,0.1428049,0.09549975,1.512294,0.09167035,-0.003328881,1.682948,0.09660519,-0.3208513,1.65791,-0.09397973,0.1821735,1.691839,0.01577413,-0.3150064,1.624641,-0.1554342,-0.07277737,1.640537,0.368147,-0.009326912,1.561672,NA,NA,NotTracked,NotTracked,
0.3398438,-0.1499023,-0.2397461,0.5629883,0.8793945,0.2973633,-12,5,-7,-49,-30,-15,1,115,-12,-9,-4,-6,-9,-5,-5,13,-222,-222,-222,-17.9375,-17.9375,-17.9375,2.850667,4.135373,6.887186,6.866065,4.304154,5.593562,0.006763834,0.09416663,1.449776,0.1891327,0.1113307,1.420287,0.08543389,0.455294,1.681927,-0.02110954,0.1235957,1.44116,0.1205409,0.1177745,1.472333,0.09200776,-0.003544395,1.683316,0.0963376,-0.3204144,1.657791,-0.09414157,0.1823387,1.691964,0.01546556,-0.3147134,1.62463,-0.1568129,-0.07312641,1.640926,0.3701468,-0.006216724,1.562187,NA,NA,NotTracked,NotTracked,
-0.2651367,-1.657227,1,0.465332,0.8134766,0.2519531,-45,126,46,-114,30,-26,-1,14,-2,-9,-4,-2,7,4,3,3,-83,-83,-83,-8.625,-8.625,-8.625,2.561186,4.286356,6.660479,6.843459,4.285562,5.625557,0.006083269,0.09415562,1.449155,0.2039983,0.08472092,1.404731,0.08570744,0.4543512,1.682094,-0.02340568,0.1241855,1.445455,0.1738413,0.05519717,1.4185,0.0916791,-0.00372223,1.683717,0.09641044,-0.3205363,1.657702,-0.09027915,0.1792903,1.689846,0.01552406,-0.3148328,1.624388,-0.1566984,-0.07286742,1.641082,0.3729514,-0.005917323,1.559473,NA,NA,NotTracked,Unknown,
1.110352,-0.7792969,0.03125,0.4370117,0.8339844,0.3183594,-48,122,-6,-3,-21,-12,-117,-30,-25,-5,-9,-8,-2,-3,-1,-2,217.9375,217.9375,217.9375,4.0625,4.0625,4.0625,2.87548,4.341934,6.727041,6.845829,4.28522,5.660213,0.01200702,0.108825,1.438367,0.2017866,0.091649,1.426598,0.08565705,0.453925,1.681995,-0.01613746,0.128939,1.437636,0.1611778,0.06610268,1.453333,0.0915086,-0.003666632,1.683979,0.09646802,-0.3203566,1.657706,-0.09206726,0.1801559,1.691175,0.01559046,-0.3145638,1.624158,-0.1558268,-0.07375929,1.642064,0.3734156,-0.005884458,1.55977,NA,NA,NotTracked,NotTracked,
0.4960938,-0.8486328,-0.152832,0.4858398,0.8056641,0.3520508,-6,-69,8,9,15,14,-50,10,17,9,2,7,0,5,3,17,-75.375,-75.375,-75.375,11.9375,11.9375,11.9375,2.865884,4.233778,6.719831,6.850543,4.28771,5.677002,0.00871624,0.1085728,1.435314,0.2002012,0.09743739,1.428471,0.0856608,0.4534878,1.681153,-0.004800447,0.1275572,1.42315,0.1538197,0.07900288,1.44525,0.09145666,-0.003734089,1.684076,0.09647669,-0.3203191,1.657736,-0.08919998,0.1782985,1.689062,0.01551905,-0.3145498,1.624063,-0.1394442,-0.05256849,1.6464,0.3717918,-0.008407752,1.563005,NA,NA,NotTracked,NotTracked,
0.3828125,-0.6884766,0.1572266,0.3647461,0.7885742,0.347168,-4,-5,1,6,-5,-2,-19,-1,7,2,1,4,8,0,0,6,48.8125,48.8125,48.8125,6.875,6.875,6.875,2.909577,4.224006,6.630463,6.857035,4.301656,5.686773,0.00880951,0.1072875,1.43009,0.1979884,0.09364115,1.413191,0.08579246,0.452345,1.679451,-0.004074317,0.128306,1.42071,0.1598878,0.07157209,1.429545,0.09140172,-0.003749117,1.684107,0.09639656,-0.3201974,1.65782,-0.0908541,0.1798544,1.689379,0.01543819,-0.3144356,1.624085,-0.1371303,-0.05112738,1.644679,0.3655571,-0.01324844,1.562362,NA,NA,NotTracked,NotTracked,
0.2885742,-0.6118164,0.184082,0.3359375,0.7451172,0.2602539,0,12,-2,-5,2,-1,6,-6,-4,-5,0,1,1,0,-3,-1,-28.25,-28.25,-28.25,-1.8125,-1.8125,-1.8125,2.939479,4.285881,6.526816,6.857343,4.337135,5.712417,-0.002901019,0.08665482,1.431978,0.2002806,0.07330922,1.395278,0.08643143,0.4519098,1.677734,-0.03183908,0.1143644,1.424053,0.1735196,0.04485042,1.404765,0.09143797,-0.003845557,1.684089,0.09671223,-0.3203487,1.657891,-0.08693735,0.1768822,1.686547,0.01567259,-0.3145824,1.624109,-0.1459086,-0.0641782,1.635744,0.3589677,-0.02305182,1.559905,NA,NA,NotTracked,NotTracked,
0.1445313,-0.6166992,0.1674805,0.2856445,0.4970703,0.1879883,-1,2,-1,-2,-3,-2,-31,-2,-4,-5,-1,2,-3,-6,-2,-2,-2.25,-2.25,-2.25,-0.1875,-0.1875,-0.1875,2.962548,4.487374,6.423935,6.80572,4.522092,5.809534,-0.004416222,0.06385323,1.415719,0.2083227,0.02335947,1.372727,0.08689681,0.451769,1.67619,-0.03474975,0.08614174,1.402722,0.1904151,-0.01222851,1.389875,0.09147872,-0.003871694,1.684095,0.09675933,-0.3203713,1.658006,-0.08677629,0.17707,1.686278,0.01571207,-0.3145379,1.624202,-0.1483425,-0.06875667,1.633428,0.3513636,-0.03975671,1.559665,NA,NA,Closed,Unknown,
-0.07470703,-0.7006836,0.2529297,-0.01171875,0.7333984,0.2670898,7,3,-2,3,-1,-6,-46,-2,6,3,-3,0,2,-1,-8,4,-45.6875,-45.6875,-45.6875,20.0625,20.0625,20.0625,2.932095,4.787938,6.337024,6.811222,4.807268,5.926112,-0.01227714,0.007356234,1.38849,0.2152708,-0.05329432,1.346557,0.08733257,0.451896,1.675396,-0.04555448,0.01682092,1.36707,0.2102068,-0.09856684,1.351941,0.09151705,-0.003884188,1.683922,0.09673161,-0.3203596,1.658007,-0.08726103,0.1778995,1.686641,0.01570715,-0.3144827,1.624206,-0.1551592,-0.07775447,1.636198,0.3692473,-0.0409788,1.561334,NA,NA,Closed,Closed,
-0.2851563,-0.8964844,0.1743164,-0.2036133,0.7983398,0.3774414,-16,-3,-1,1,1,-1,19,-8,-2,-3,-5,-1,1,-1,7,2,-39.625,-39.625,-39.625,21.6875,21.6875,21.6875,2.826556,5.305169,6.256441,6.840453,5.146315,6.051105,-0.02887017,-0.08251058,1.373261,0.2346406,-0.1550099,1.346965,0.08761582,0.4521409,1.675155,-0.05948909,-0.05618441,1.35395,0.1979488,-0.1579168,1.377546,0.09153139,-0.003902681,1.683849,0.09624285,-0.3207594,1.657957,-0.08706134,0.1783306,1.68673,0.01505779,-0.3147607,1.624198,-0.1390318,-0.04202778,1.674372,0.3719049,-0.04886985,1.587276,NA,NA,Unknown,Closed,
-0.7412109,-0.9780273,0.1987305,-0.5439453,0.8129883,0.3764648,7,2,-2,-5,-1,5,-7,-38,-2,-1,1,-2,0,-3,-1,-5,-54.625,-54.625,-54.625,12.6875,12.6875,12.6875,2.714602,5.735868,6.169709,6.912312,5.656224,6.190958,-0.04935483,-0.1908592,1.406957,0.2685719,-0.2355011,1.395033,0.08775514,0.4523177,1.675151,-0.08084984,-0.1997267,1.402854,0.2112479,-0.253468,1.3498,0.09155969,-0.004024436,1.6835,0.09608203,-0.3214961,1.657314,-0.08754204,0.1781153,1.686785,0.01486081,-0.3153059,1.623651,-0.1631271,-0.06605838,1.674997,0.324499,-0.04533625,1.646458,NA,NA,Unknown,Unknown,
-0.9370117,-0.9077148,0.01953125,-0.6850586,0.7431641,0.2949219,6,12,0,20,-3,-3,-31,30,3,-2,-7,-2,0,-2,-3,0,23.9375,23.9375,23.9375,-44.9375,-44.9375,-44.9375,2.626635,6.265212,6.01288,6.908645,6.072438,6.290877,-0.08259607,-0.2644528,1.479953,0.2815652,-0.3276431,1.42463,0.0879824,0.4528084,1.675368,-0.01962189,-0.2761664,1.467,0.2799646,-0.3224011,1.383564,0.09240444,-0.004450756,1.683066,0.09857676,-0.3233697,1.65663,-0.08880959,0.177423,1.686763,0.01734568,-0.3179548,1.622843,-0.1400333,-0.06089599,1.684727,0.3180907,-0.06504326,1.643265,NA,NA,Unknown,Unknown,
-1.116211,-0.8393555,-0.01855469,-1.028809,0.6728516,0.2402344,2,-4,0,-4,2,11,33,1,-3,-4,10,-4,-3,-1,-3,-3,-20.75,-20.75,-20.75,8.25,8.25,8.25,2.467676,6.5837,5.828919,7.016139,6.567342,6.469351,-0.08961903,-0.3089468,1.529188,0.2955783,-0.3810492,1.470985,0.08824363,0.4532954,1.675473,-0.03608735,-0.3077305,1.53847,0.3164805,-0.3899301,1.442954,0.09312711,-0.004940318,1.682539,0.1000984,-0.3254941,1.656039,-0.08983828,0.1766476,1.686417,0.01902499,-0.3204389,1.622395,-0.1353034,-0.07027878,1.682808,0.3131675,-0.07928554,1.641635,NA,NA,Unknown,Unknown,
-1.106445,-0.6982422,-0.1118164,-1.17334,0.5673828,0.1137695,22,-3,-2,-3,0,-6,0,-5,0,1,-1,1,-2,0,-3,-2,-12.375,-12.375,-12.375,-32.9375,-32.9375,-32.9375,2.25824,6.819207,5.608698,7.160725,6.814466,6.661591,-0.1123033,-0.3771923,1.528603,0.3029636,-0.4128529,1.512189,0.08862015,0.453715,1.675227,-0.08303348,-0.3819175,1.477556,0.3166088,-0.4156858,1.476108,0.09317707,-0.00545335,1.681926,0.09969345,-0.326984,1.655984,-0.09056444,0.1755999,1.685035,0.01867819,-0.3217022,1.62242,-0.1329269,-0.07850231,1.680515,0.3098697,-0.08480626,1.643849,NA,NA,Lasso,Unknown,
-1.023926,-0.5058594,-0.1577148,-1.040039,0.4594727,0.1352539,36,-11,-7,1,0,10,9,-2,1,2,-1,2,3,-1,-2,0,-29.6875,-29.6875,-29.6875,-9.6875,-9.6875,-9.6875,2.049501,6.940102,5.422737,7.249564,6.95217,6.79966,-0.1135149,-0.3976805,1.559885,0.299708,-0.4198352,1.549465,0.08893519,0.4542266,1.674662,-0.06808969,-0.3932508,1.546469,0.3366592,-0.4264774,1.532286,0.09321025,-0.005767921,1.681456,0.09906241,-0.3283532,1.656067,-0.09099299,0.1747561,1.683846,0.01798581,-0.322992,1.622708,-0.1307529,-0.08674335,1.681946,0.3083017,-0.08802588,1.647505,NA,NA,Unknown,NotTracked,
-0.9267578,-0.5429688,-0.1323242,-0.9580078,0.484375,0.09228516,-2,-3,-3,3,-2,-1,-6,-3,-1,2,-1,-4,0,-3,-2,-2,-24.8125,-24.8125,-24.8125,6.1875,6.1875,6.1875,1.985202,6.978321,5.434498,7.346342,7.012328,6.871436,-0.111986,-0.4049974,1.574905,0.2980835,-0.4237468,1.55887,0.08944693,0.4546503,1.673052,-0.06726731,-0.4029301,1.547273,0.3366894,-0.4242146,1.548824,0.09301622,-0.006257836,1.680491,0.09817362,-0.3292302,1.656032,-0.0912571,0.1744102,1.682465,0.0170938,-0.3236184,1.622727,-0.13008,-0.08990569,1.683877,0.3086928,-0.08947622,1.651897,NA,NA,NotTracked,NotTracked,
-0.9033203,-0.5292969,-0.07568359,-0.9272461,0.3618164,0.05615234,-12,1,-3,0,0,1,-3,0,-3,-4,-2,0,-1,-1,-4,1,13.8125,13.8125,13.8125,-7.25,-7.25,-7.25,2.071297,6.960757,5.520928,7.337441,7.027187,6.873536,-0.1123069,-0.4078302,1.583164,0.2972926,-0.4215074,1.562448,0.08990056,0.4546595,1.671587,-0.06948747,-0.3939516,1.548096,0.3383217,-0.4334429,1.556692,0.09298182,-0.006555735,1.679996,0.09764374,-0.3298844,1.656211,-0.09162458,0.1740459,1.681077,0.0165465,-0.324114,1.622863,-0.1291994,-0.09162793,1.686965,0.3099911,-0.09053705,1.657132,NA,NA,NotTracked,NotTracked,
-0.9130859,-0.4331055,-0.06982422,-0.9467773,0.3789063,0.04931641,-14,-1,-2,-1,-2,2,8,-3,-1,-2,0,-1,-3,-2,-1,-1,33.375,33.375,33.375,-7.125,-7.125,-7.125,2.155161,6.932505,5.556014,7.344308,7.028399,6.888015,-0.1117081,-0.4094854,1.584608,0.2971288,-0.4207756,1.558986,0.09017723,0.4546784,1.67,-0.06856664,-0.3993978,1.547345,0.3381757,-0.4353049,1.551307,0.09299585,-0.006805473,1.679578,0.09729515,-0.3302573,1.656271,-0.08833969,0.1720052,1.679117,0.01618137,-0.3243921,1.622939,-0.1281248,-0.09313206,1.689088,0.3103905,-0.09094568,1.660371,NA,NA,NotTracked,NotTracked,
-0.9448242,-0.4179688,-0.07958984,-0.9648438,0.2792969,0.0009765625,1,-1,-2,-2,-1,0,-77,-4,-4,-3,-2,-2,0,-2,-3,-2,-7.5,-7.5,-7.5,-9.25,-9.25,-9.25,2.186362,6.898203,5.577667,7.335876,7.02998,6.913959,-0.1114997,-0.4103442,1.582938,0.2957901,-0.4201138,1.553332,0.09028426,0.4545397,1.669106,-0.06896763,-0.3918325,1.548286,0.3366568,-0.4308916,1.544817,0.09300967,-0.007022135,1.679256,0.09697835,-0.3306468,1.656325,-0.08905078,0.1721209,1.678142,0.01583282,-0.3246965,1.623068,-0.1270282,-0.09432187,1.689592,0.3106677,-0.09137689,1.661067,NA,NA,NotTracked,NotTracked,
-0.9462891,-0.4033203,-0.09228516,-0.9746094,0.2890625,-0.01367188,-4,0,-1,0,0,0,-15,2,2,-1,2,-1,-1,-1,-1,-3,-2.1875,-2.1875,-2.1875,16.6875,16.6875,16.6875,2.209879,6.872853,5.609484,7.355949,7.020578,6.914778,-0.111027,-0.4093103,1.58038,0.2935538,-0.4186798,1.546681,0.09033346,0.454542,1.668881,-0.06861751,-0.3900202,1.549378,0.3332,-0.42443,1.533,0.09297398,-0.007078646,1.679147,0.09668623,-0.3308709,1.656391,-0.08957091,0.1721521,1.677476,0.01552392,-0.3248765,1.623186,-0.1262106,-0.09504477,1.689367,0.3105517,-0.09150349,1.661158,NA,NA,NotTracked,NotTracked,
-0.9384766,-0.3691406,-0.1010742,-0.9833984,0.2807617,-0.01660156,-2,1,-1,0,1,0,-9,-2,1,-1,-1,-2,0,1,-2,-1,-8.875,-8.875,-8.875,20.0625,20.0625,20.0625,2.241012,6.841606,5.655608,7.367623,7.002292,6.892756,-0.1103176,-0.4074645,1.574855,0.2901807,-0.4159235,1.539314,0.0903707,0.45457,1.668821,-0.06836912,-0.3991908,1.546205,0.3318114,-0.4248045,1.5278,0.09293031,-0.007186993,1.679011,0.09646201,-0.3311191,1.656395,-0.08988788,0.1721966,1.677113,0.01530263,-0.3250191,1.623198,-0.125786,-0.09524218,1.688239,0.310145,-0.09153932,1.660578,NA,NA,NotTracked,NotTracked,
-0.9448242,-0.4003906,-0.08349609,-0.9643555,0.2739258,-0.01025391,0,-1,-1,-1,0,-1,6,-1,-1,0,-1,-2,-3,-1,-1,1,1.4375,1.4375,1.4375,5.75,5.75,5.75,2.263508,6.81272,5.689454,7.363497,6.974622,6.857949,-0.1098156,-0.4054231,1.568323,0.2869875,-0.4161359,1.529662,0.09037953,0.4545937,1.668824,-0.0679736,-0.4089013,1.545263,0.324036,-0.4189841,1.511783,0.09288488,-0.007307704,1.678825,0.0963256,-0.3313728,1.6563,-0.09013187,0.1721595,1.676628,0.01514807,-0.3252438,1.623135,-0.1256866,-0.0954912,1.685937,0.3094883,-0.09171683,1.659138,NA,NA,NotTracked,NotTracked,
-0.918457,-0.3862305,-0.1000977,-0.9438477,0.2807617,0.003417969,0,-1,-1,-1,-2,-2,-3,1,3,0,1,-2,-2,-1,-3,-1,1.0625,1.0625,1.0625,0.5,0.5,0.5,2.284988,6.793511,5.710074,7.349145,6.958356,6.838633,-0.1085107,-0.4044307,1.563871,0.2860841,-0.415275,1.524318,0.09038591,0.4546687,1.668809,-0.06578337,-0.4047984,1.545853,0.3261603,-0.4284958,1.511272,0.09291632,-0.007337707,1.678706,0.09626446,-0.3314648,1.656286,-0.09035251,0.1721163,1.676307,0.01508027,-0.3253319,1.623197,-0.1259038,-0.09561908,1.683767,0.3085932,-0.09169675,1.657746,NA,NA,NotTracked,NotTracked,
-0.9189453,-0.4067383,-0.07226563,-0.9614258,0.2900391,0.01513672,-3,0,-1,-1,-1,-1,-83,-3,0,-3,0,0,-1,-2,-2,-2,10.75,10.75,10.75,3,3,3,2.294078,6.781856,5.710324,7.354004,6.952445,6.838928,-0.1099103,-0.4021663,1.562657,0.2871511,-0.4121523,1.52198,0.09043012,0.454857,1.668944,-0.06645635,-0.4055068,1.54651,0.3265572,-0.4201026,1.507625,0.09291837,-0.007336447,1.678704,0.09618491,-0.3315373,1.656385,-0.09046157,0.1722142,1.676123,0.0149843,-0.32543,1.623429,-0.1263489,-0.09528261,1.682716,0.3081479,-0.09202467,1.656405,NA,NA,NotTracked,NotTracked,
-0.9135742,-0.3735352,-0.09814453,-0.9501953,0.2832031,0.005859375,-4,3,-2,-1,-2,0,-40,1,-1,0,-3,0,-1,-1,-1,-2,1.25,1.25,1.25,-4.1875,-4.1875,-4.1875,2.291835,6.791746,5.687857,7.379108,6.959259,6.866783,-0.1111241,-0.4015018,1.562693,0.2886507,-0.4127356,1.521034,0.09051497,0.4551559,1.669055,-0.06444281,-0.3884363,1.545081,0.3272962,-0.4125062,1.508526,0.0929278,-0.007341274,1.678684,0.09613465,-0.3316428,1.65644,-0.09053792,0.1722147,1.675823,0.01494797,-0.3255187,1.623491,-0.1268631,-0.09528942,1.681502,0.3075735,-0.09217361,1.655185,NA,NA,NotTracked,NotTracked,
-0.9243164,-0.4047852,-0.08984375,-0.9560547,0.2885742,0.007324219,-1,-1,0,0,0,3,-2,-1,-4,-2,-3,-1,-1,-1,-4,0,-2.625,-2.625,-2.625,0.4375,0.4375,0.4375,2.275755,6.804013,5.676311,7.400412,6.973852,6.89271,-0.1124053,-0.4024405,1.563729,0.2897394,-0.4155774,1.521795,0.09063514,0.4552763,1.66914,-0.069658,-0.4165019,1.553021,0.3275931,-0.4146843,1.50943,0.09292755,-0.007373584,1.678564,0.09605563,-0.3317515,1.656512,-0.09043393,0.1723531,1.675269,0.01488005,-0.3255894,1.623562,-0.127546,-0.09505959,1.680184,0.3071969,-0.0920999,1.654249,NA,NA,NotTracked,NotTracked,
-0.9375,-0.4169922,-0.07861328,-0.9516602,0.2895508,0.009765625,0,0,-1,-2,-1,1,5,0,-2,1,1,-1,-1,-1,-1,-1,-2.25,-2.25,-2.25,1.375,1.375,1.375,2.266176,6.817841,5.669637,7.417668,6.987239,6.908779,-0.1130893,-0.4056142,1.564952,0.2915176,-0.4165068,1.524581,0.09082827,0.4554899,1.669199,-0.07032187,-0.4152753,1.554198,0.3258789,-0.4044254,1.507273,0.09297346,-0.007355154,1.678521,0.09600961,-0.3318492,1.656662,-0.09043149,0.1724287,1.674823,0.01483435,-0.3256748,1.623784,-0.1279174,-0.09508705,1.680004,0.3071227,-0.09226323,1.653898,NA,NA,NotTracked,NotTracked,
-0.9174805,-0.4169922,-0.08056641,-0.940918,0.2978516,0.015625,-2,1,1,-1,-1,1,-1,-1,0,0,-3,-2,0,-1,-2,1,3.5,3.5,3.5,-2.1875,-2.1875,-2.1875,2.253332,6.835387,5.653708,7.433805,7.004261,6.927732,-0.1138961,-0.406933,1.570121,0.2924183,-0.4170135,1.531221,0.09112351,0.4558583,1.669305,-0.06792778,-0.398385,1.55004,0.3331979,-0.4298992,1.521,0.09296174,-0.007326482,1.678503,0.09589934,-0.3318782,1.656977,-0.09034864,0.172608,1.674368,0.0147062,-0.3256359,1.624207,-0.1282084,-0.09514557,1.680027,0.3071127,-0.09226614,1.653957,NA,NA,NotTracked,NotTracked,
-0.9248047,-0.4125977,-0.08056641,-0.9731445,0.3251953,0.02294922,-1,-2,-2,0,-2,-2,-2,1,-1,-2,-2,-1,-3,-2,0,-1,3.875,3.875,3.875,4.0625,4.0625,4.0625,2.24293,6.849028,5.635095,7.454607,7.017203,6.94451,-0.1131642,-0.407995,1.571994,0.2923362,-0.419094,1.535101,0.09155522,0.456181,1.669018,-0.06710806,-0.3874971,1.549238,0.3350429,-0.4391875,1.5276,0.09300307,-0.007334346,1.678419,0.0957946,-0.3319473,1.657199,-0.09001736,0.1729948,1.673824,0.01460017,-0.3256686,1.624458,-0.1283499,-0.09509461,1.680336,0.3071353,-0.09230326,1.654005,NA,NA,NotTracked,NotTracked,
-0.9428711,-0.4125977,-0.07763672,-0.9580078,0.3178711,-0.0004882813,-2,-2,-25,0,2,-2,-3,-2,-1,-1,-2,-1,-3,0,-3,-2,4,4,4,-3.0625,-3.0625,-3.0625,2.238253,6.85931,5.622434,7.474341,7.02864,6.966486,-0.1133723,-0.4084761,1.575211,0.2928112,-0.4193113,1.53782,0.09219899,0.4564189,1.66854,-0.06706741,-0.406732,1.5465,0.3325398,-0.4195829,1.5254,0.09312081,-0.007415028,1.678225,0.09578742,-0.3320538,1.657383,-0.08935556,0.1729337,1.672696,0.01456356,-0.3257265,1.624602,-0.1281469,-0.09494203,1.680698,0.3072577,-0.0923449,1.654174,NA,NA,NotTracked,NotTracked,
