ALX,ALY,ALZ,ARX,ARY,ARZ,EMG0L,EMG1L,EMG2L,EMG3L,EMG4L,EMG5L,EMG6L,EMG7L,EMG0R,EMG1R,EMG2R,EMG3R,EMG4R,EMG5R,EMG6R,EMG7R,GLX,GLY,GLZ,GRX,GRY,GRZ,ORL,OPL,OYL,ORR,OPR,OYR,LHNX,LHNY,LHNZ,RHNX,RHNY,RHNZ,HX,HY,HZ,LTX,LTY,LTZ,RTX,RTY,RTZ,SpineMidX,SpineMidY,SpineMidZ,SpineBaseX,SpineBaseY,SpineBaseZ,ShoulderLeftX,ShoulderLeftY,ShoulderLeftZ,ShoulderRightX,ShoulderRightY,ShoulderRightZ,ElbowLeftX,ElbowLeftY,ElbowLeftZ,ElbowRightX,ElbowRightY,ElbowRightZ,Myo_Pose_left,Myo_Pose_Right,Kinect_pose_left,Kinect_pose_right
-0.9301758,-0.40625,-0.05810547,-0.9667969,0.2407227,-0.05273438,-1,-3,3,-13,-1,6,0,-1,-1,-1,1,0,-2,-1,-2,0,-8.3125,-8.3125,-8.3125,-0.0625,-0.0625,-0.0625,2.370755,6.842832,7.635273,7.787858,7.124115,7.289303,-0.05162575,-0.3887887,1.609571,0.3360922,-0.3958137,1.536035,0.1583696,0.4650443,1.693032,-0.08425824,-0.3851392,1.626118,0.3764817,-0.3678474,1.5306,0.1598001,-0.004431459,1.682388,0.1620079,-0.3303587,1.661346,-0.02417929,0.1675123,1.687466,0.07880337,-0.3238138,1.631917,-0.05356229,-0.102614,1.691424,0.3668849,-0.08980034,1.65342,NA,NA,NotTracked,NotTracked,
-0.9306641,-0.4091797,-0.06201172,-0.9648438,0.2265625,-0.04882813,-3,-7,-3,12,-1,-3,-12,-4,-2,-3,0,-1,-2,-2,1,-1,-6.9375,-6.9375,-6.9375,1.25,1.25,1.25,2.35988,6.843744,7.633409,7.785578,7.122942,7.286295,-0.05117173,-0.3896968,1.610469,0.3362911,-0.3957326,1.537254,0.1583855,0.4649878,1.69286,-0.08260926,-0.3930083,1.629975,0.3757086,-0.3723383,1.530527,0.1598085,-0.004454043,1.682382,0.1620333,-0.3303698,1.66138,-0.02407204,0.167515,1.687435,0.07883564,-0.3238354,1.63197,-0.0532946,-0.1026275,1.691414,0.3669121,-0.08965177,1.653344,NA,NA,NotTracked,NotTracked,
-0.9384766,-0.402832,-0.06787109,-0.980957,0.222168,-0.04980469,-3,-4,-2,6,-1,-2,-4,-2,1,-1,-2,-1,-1,0,-1,1,3.375,3.375,3.375,1.3125,1.3125,1.3125,2.36349,6.84493,7.638527,7.792519,7.122753,7.291418,-0.0517282,-0.3890689,1.610837,0.3364725,-0.395804,1.537493,0.158329,0.4649822,1.692707,-0.08501806,-0.3826951,1.626714,0.3753644,-0.3742139,1.530823,0.1598098,-0.004464289,1.682379,0.1620497,-0.3303766,1.661408,-0.02399106,0.1675479,1.687357,0.07885172,-0.3238352,1.63199,-0.05330541,-0.1025785,1.691414,0.3669385,-0.08958276,1.653334,NA,NA,NotTracked,NotTracked,
-0.9365234,-0.402832,-0.06738281,-0.9868164,0.2299805,-0.04980469,-2,-3,-4,-14,0,-2,-4,-1,0,-1,-2,-1,-1,0,0,1,5.3125,5.3125,5.3125,2.9375,2.9375,2.9375,2.369232,6.845375,7.642203,7.798009,7.123281,7.293971,-0.05143574,-0.3889128,1.60988,0.3364596,-0.3958704,1.537458,0.1583485,0.4650135,1.692458,-0.0835262,-0.3863232,1.630713,0.3727601,-0.3887524,1.529529,0.15984,-0.004475257,1.682359,0.1620772,-0.3303877,1.661412,-0.02399994,0.1675292,1.687345,0.07888866,-0.323846,1.632001,-0.05326494,-0.1026038,1.691388,0.3670109,-0.0894168,1.653258,NA,NA,NotTracked,NotTracked,
-0.9365234,-0.402832,-0.06738281,-0.9814453,0.2177734,-0.05322266,7,4,-4,2,0,2,8,3,3,-1,-1,-2,1,0,-1,0,5.3125,5.3125,5.3125,-1.875,-1.875,-1.875,2.369232,6.845375,7.642203,7.796612,7.123561,7.293549,-0.05146659,-0.3892758,1.610203,0.3367965,-0.3961503,1.537296,0.1583493,0.4648349,1.691983,-0.08429634,-0.3794544,1.630905,0.3715219,-0.3967575,1.529696,0.1598452,-0.004555463,1.682256,0.1620715,-0.3304112,1.661398,-0.02400817,0.1674942,1.687289,0.0788774,-0.3238644,1.632004,-0.05325193,-0.1026409,1.691332,0.3670222,-0.08937974,1.65322,NA,NA,NotTracked,NotTracked,
-0.9375,-0.4101563,-0.06152344,-0.9755859,0.2114258,-0.05029297,3,-4,0,-9,0,-3,8,3,-1,0,0,-1,-1,1,-1,1,1.5,1.5,1.5,-0.6875,-0.6875,-0.6875,2.379541,6.846311,7.648079,7.794963,7.124974,7.292087,-0.0515056,-0.3892794,1.610861,0.3367672,-0.3963178,1.538342,0.1583718,0.4647409,1.691808,-0.08301865,-0.3948332,1.62455,0.3746366,-0.3735765,1.528,0.1598946,-0.004599302,1.682251,0.1622002,-0.3304629,1.661454,-0.02398917,0.1674659,1.687276,0.07901224,-0.3239413,1.632079,-0.05325762,-0.1026646,1.691339,0.3671162,-0.08940629,1.653258,NA,NA,NotTracked,NotTracked,
-0.9272461,-0.4086914,-0.05419922,-0.9702148,0.2197266,-0.04833984,-3,-2,-3,-5,-1,-2,0,0,1,3,-2,-2,-1,-1,1,-1,-2.875,-2.875,-2.875,2.375,2.375,2.375,2.374915,6.847086,7.64667,7.792767,7.125743,7.287526,-0.05185443,-0.3891906,1.609736,0.3363482,-0.3956389,1.537401,0.1582826,0.4646447,1.691455,-0.08271885,-0.4023878,1.619429,0.3757164,-0.3702159,1.529625,0.1598781,-0.004650081,1.682216,0.1621841,-0.3304932,1.66146,-0.02396281,0.1672922,1.687186,0.07899072,-0.3239674,1.632081,-0.05327807,-0.1028295,1.691272,0.3671603,-0.08933112,1.653206,NA,NA,NotTracked,NotTracked,
-0.9272461,-0.4086914,-0.05419922,-0.972168,0.2285156,-0.05761719,-5,-7,-2,-2,-2,1,-1,-1,-3,-2,-3,-1,1,-1,1,-2,-2.875,-2.875,-2.875,-0.125,-0.125,-0.125,2.374915,6.847086,7.64667,7.791646,7.125171,7.285401,-0.05112309,-0.3890213,1.610667,0.3368117,-0.3961017,1.538137,0.1582214,0.4645869,1.691005,-0.08361938,-0.3836473,1.628591,0.3770482,-0.3875532,1.538,0.1599191,-0.004677746,1.682194,0.1622261,-0.3305115,1.661485,-0.02391266,0.1672319,1.687058,0.07901852,-0.3239872,1.632098,-0.05328612,-0.1028712,1.691282,0.3671994,-0.08931922,1.65317,NA,NA,NotTracked,NotTracked,
-0.9389648,-0.4116211,-0.06445313,-0.9829102,0.230957,-0.05810547,5,-1,-3,0,2,1,3,1,-5,-7,-2,-1,-2,-2,0,-1,-2.25,-2.25,-2.25,-1.25,-1.25,-1.25,2.369477,6.848578,7.647418,7.793116,7.125648,7.287438,-0.05107788,-0.3895177,1.610804,0.3371419,-0.3963276,1.538318,0.1582546,0.4644806,1.690771,-0.08359595,-0.3949406,1.625984,0.3732437,-0.4250904,1.535,0.1599776,-0.004730197,1.68218,0.162353,-0.3305412,1.661561,-0.02388669,0.1672506,1.687018,0.0791629,-0.3240388,1.632195,-0.05327166,-0.1028494,1.691268,0.3672549,-0.08928065,1.653128,NA,NA,NotTracked,NotTracked,
-0.9389648,-0.4116211,-0.06445313,-0.9765625,0.2275391,-0.05615234,-3,-6,-3,0,0,-1,-2,-1,-1,-2,-2,0,0,-1,-2,-2,-2.25,-2.25,-2.25,1,1,1,2.369477,6.848578,7.647418,7.793861,7.126181,7.287504,-0.05129606,-0.3893954,1.610892,0.3368252,-0.3962387,1.53759,0.1581832,0.464397,1.690503,-0.08334254,-0.3905997,1.632139,0.3702665,-0.3999749,1.5275,0.160007,-0.004760592,1.682119,0.1623607,-0.3305453,1.661559,-0.02389444,0.1671893,1.686972,0.0791679,-0.32404,1.632195,-0.05330247,-0.1029091,1.691205,0.3673846,-0.08921509,1.65307,NA,NA,NotTracked,NotTracked,
-0.9355469,-0.40625,-0.05566406,-0.9697266,0.2387695,-0.05126953,-2,-6,0,-1,0,5,-10,-2,0,1,-2,-1,-2,-1,-2,-1,-1.4375,-1.4375,-1.4375,1.6875,1.6875,1.6875,2.368062,6.849731,7.648861,7.792407,7.12408,7.283074,-0.05176571,-0.3892401,1.610508,0.337159,-0.3960823,1.537595,0.1582584,0.4642846,1.689817,-0.08364005,-0.3913441,1.62663,0.3740634,-0.4218437,1.538333,0.1600349,-0.004830069,1.682013,0.162397,-0.330577,1.661554,-0.02387642,0.1671587,1.68669,0.07920336,-0.3240677,1.632198,-0.05332451,-0.1029282,1.691013,0.3674528,-0.08891027,1.6529,NA,NA,NotTracked,NotTracked,
-0.9335938,-0.4082031,-0.05859375,-0.96875,0.2373047,-0.04833984,3,-26,1,-1,0,0,-1,-2,-3,0,0,-2,-1,-2,-2,0,0.125,0.125,0.125,1.5,1.5,1.5,2.36705,6.849356,7.64852,7.791663,7.122225,7.28144,-0.05203671,-0.3882319,1.609333,0.3367601,-0.3956931,1.537233,0.158311,0.4642161,1.689398,-0.08299168,-0.4167285,1.6166,0.3722467,-0.3865072,1.527259,0.1600291,-0.00487746,1.681891,0.1624399,-0.3306037,1.661513,-0.0238103,0.1671305,1.686518,0.0792442,-0.3241005,1.632146,-0.05330967,-0.1029393,1.690976,0.3675417,-0.0888629,1.652726,NA,NA,NotTracked,NotTracked,
-0.9272461,-0.4047852,-0.06298828,-0.96875,0.2216797,-0.05175781,-4,-3,0,-4,-3,-5,-14,-6,-2,-1,-2,-1,-2,0,-2,2,-2.875,-2.875,-2.875,-0.75,-0.75,-0.75,2.361417,6.849288,7.647377,7.792347,7.120823,7.282104,-0.05138148,-0.3885646,1.609671,0.3368039,-0.3954901,1.537082,0.1582938,0.464214,1.689134,-0.08517527,-0.3813477,1.636615,0.3724231,-0.397978,1.53003,0.1601087,-0.004878955,1.68177,0.1625037,-0.330606,1.661471,-0.02376692,0.1671483,1.68637,0.07929283,-0.3241122,1.632116,-0.05329998,-0.102909,1.690934,0.3676409,-0.08892889,1.652562,NA,NA,NotTracked,NotTracked,
-0.9267578,-0.4052734,-0.06884766,-0.9775391,0.2099609,-0.04931641,-6,-10,0,-2,1,2,-7,-7,-1,0,-2,-2,-1,1,-1,-1,-3.0625,-3.0625,-3.0625,0.6875,0.6875,0.6875,2.358765,6.849618,7.646651,7.798494,7.120118,7.28809,-0.05150256,-0.3880482,1.609412,0.3373113,-0.3959597,1.53707,0.1583143,0.4642117,1.689019,-0.08343405,-0.3898433,1.626038,0.3695955,-0.4274996,1.531333,0.1601209,-0.004904461,1.681726,0.1625608,-0.3306347,1.661453,-0.02372034,0.1671783,1.686234,0.0793465,-0.324139,1.632105,-0.05324316,-0.1028737,1.690882,0.3677003,-0.08893307,1.652504,NA,NA,NotTracked,NotTracked,
-0.9267578,-0.4052734,-0.06884766,-0.9873047,0.2197266,-0.05273438,1,0,-2,-1,-1,-6,-4,0,-1,-1,0,-1,-2,-1,-1,-1,-3.0625,-3.0625,-3.0625,1.8125,1.8125,1.8125,2.358765,6.849618,7.646651,7.80753,7.120219,7.295305,-0.05194122,-0.3881878,1.60828,0.3371168,-0.3961606,1.53687,0.1583465,0.4641845,1.688909,-0.08442128,-0.3866577,1.627195,0.373547,-0.3837773,1.527269,0.1602177,-0.004947212,1.681615,0.1626067,-0.3306532,1.661424,-0.02373348,0.1671714,1.686193,0.07940139,-0.3241609,1.63208,-0.05327922,-0.102893,1.690676,0.3677669,-0.08886372,1.652368,NA,NA,NotTracked,NotTracked,
-0.9389648,-0.4091797,-0.0546875,-0.9770508,0.2182617,-0.05078125,-1,0,0,-7,0,-1,-4,-3,2,2,-2,-2,-3,-1,-1,-1,1.3125,1.3125,1.3125,1.0625,1.0625,1.0625,2.364849,6.850148,7.654804,7.810726,7.120031,7.297795,-0.05222755,-0.3881676,1.609507,0.3369426,-0.3957329,1.537345,0.158437,0.4641604,1.688901,-0.0858791,-0.3739253,1.6367,0.3694014,-0.4344066,1.52775,0.1602251,-0.004954214,1.681592,0.1626174,-0.3306457,1.6614,-0.02374977,0.1671685,1.686154,0.0794147,-0.3241445,1.632015,-0.05328201,-0.1028966,1.690647,0.3677757,-0.08886163,1.652336,NA,NA,NotTracked,NotTracked,
-0.9404297,-0.3911133,-0.05810547,-0.972168,0.2138672,-0.05126953,7,2,-2,3,-2,1,4,4,-5,-4,-2,-2,-1,-2,-1,-2,-0.4375,-0.4375,-0.4375,-2.125,-2.125,-2.125,2.367867,6.853277,7.658,7.810358,7.120707,7.298565,-0.05172107,-0.3882022,1.609096,0.3375471,-0.3956631,1.537252,0.1585283,0.4641237,1.688847,-0.08362933,-0.4085068,1.623,0.3714241,-0.4237075,1.529968,0.1602359,-0.005014493,1.681532,0.1626366,-0.3306865,1.661367,-0.0237288,0.1671397,1.686044,0.07942816,-0.3241755,1.631994,-0.05336589,-0.1029131,1.690547,0.3678306,-0.08885662,1.652129,NA,NA,NotTracked,NotTracked,
-0.9355469,-0.3950195,-0.05712891,-0.9746094,0.2216797,-0.04931641,5,5,-2,-5,2,1,4,3,3,2,-1,1,0,-1,0,-2,-3.375,-3.375,-3.375,-1.1875,-1.1875,-1.1875,2.365141,6.853714,7.65938,7.8081,7.120568,7.297286,-0.05199989,-0.3876975,1.608448,0.3370953,-0.3950914,1.535627,0.1585975,0.4640762,1.688644,-0.08540588,-0.3922389,1.632207,0.3702237,-0.4239529,1.526901,0.1602845,-0.005094309,1.681381,0.1627094,-0.3307475,1.661243,-0.02373202,0.1671312,1.685948,0.07950236,-0.3242445,1.631883,-0.05338478,-0.1029523,1.690091,0.3679189,-0.0887702,1.651925,NA,NA,NotTracked,NotTracked,
-0.9355469,-0.3950195,-0.05712891,-0.9746094,0.2216797,-0.04931641,5,5,-2,-5,2,1,4,3,3,2,-1,1,0,-1,0,-2,-3.375,-3.375,-3.375,-1.1875,-1.1875,-1.1875,2.365141,6.853714,7.65938,7.8081,7.120568,7.297286,-0.05200254,-0.3886308,1.608012,0.3373863,-0.3952439,1.536821,0.1586085,0.464077,1.688645,-0.08485384,-0.3763359,1.629214,0.3710471,-0.4211711,1.529311,0.1603097,-0.005081032,1.681356,0.1628158,-0.3307394,1.66119,-0.0237424,0.1671268,1.685921,0.07962088,-0.3242307,1.631837,-0.05336561,-0.1029629,1.690032,0.367959,-0.08873896,1.651849,NA,NA,NotTracked,NotTracked,
-0.9335938,-0.4008789,-0.06494141,-0.9741211,0.2226563,-0.04296875,5,-1,-2,3,-2,-2,-2,0,-1,-1,0,0,-1,-1,2,0,-3.125,-3.125,-3.125,-1.4375,-1.4375,-1.4375,2.363513,6.85388,7.660327,7.801279,7.120602,7.292284,-0.05241178,-0.3878126,1.608104,0.3370884,-0.3951018,1.536062,0.1586397,0.4641135,1.688614,-0.08599994,-0.3806544,1.625422,0.3715522,-0.3906531,1.524536,0.1603474,-0.005083673,1.681309,0.1628263,-0.3307573,1.661164,-0.02374339,0.167134,1.685897,0.07963499,-0.3242473,1.631816,-0.05335915,-0.1029576,1.689998,0.368001,-0.08884563,1.651678,NA,NA,NotTracked,NotTracked,
-0.940918,-0.4023438,-0.06201172,-0.9682617,0.2324219,-0.04931641,0,-4,-2,2,0,-1,1,-2,1,-2,-3,-1,-1,-2,-2,-2,1.0625,1.0625,1.0625,-2.0625,-2.0625,-2.0625,2.365956,6.85376,7.66539,7.799131,7.120328,7.291116,-0.05167783,-0.3882433,1.608431,0.3375338,-0.3953027,1.53687,0.1587587,0.4641076,1.688641,-0.08446576,-0.3852267,1.629453,0.3694592,-0.4264814,1.524286,0.1604533,-0.005118004,1.681251,0.1628992,-0.3307821,1.661136,-0.02371597,0.1671354,1.685895,0.07969809,-0.3242624,1.631798,-0.05337028,-0.1029521,1.689995,0.3680236,-0.08881334,1.651621,NA,NA,NotTracked,NotTracked,
-0.940918,-0.4023438,-0.06201172,-0.965332,0.2231445,-0.05615234,-1,0,-3,-2,-2,2,1,1,2,-1,-1,1,-1,-1,-2,0,1.0625,1.0625,1.0625,-2.5,-2.5,-2.5,2.365956,6.85376,7.66539,7.796478,7.120577,7.291694,-0.05218286,-0.3878309,1.607812,0.3371625,-0.3952135,1.535544,0.1588381,0.4640717,1.688624,-0.08686506,-0.3780016,1.6388,0.3680946,-0.4232453,1.522942,0.1605305,-0.005138305,1.681146,0.1629404,-0.3307953,1.661074,-0.02371411,0.167134,1.685873,0.07974971,-0.3242835,1.631713,-0.05343246,-0.1029575,1.689847,0.3681026,-0.08884288,1.651373,NA,NA,NotTracked,NotTracked,
-0.9394531,-0.3994141,-0.05859375,-0.9672852,0.2280273,-0.0546875,1,3,-1,-17,-1,-2,-1,0,0,0,0,-2,-2,-1,-2,-1,2.625,2.625,2.625,-0.625,-0.625,-0.625,2.371142,6.853464,7.669036,7.796478,7.120577,7.291694,-0.05233025,-0.3885904,1.607835,0.33687,-0.3954165,1.534988,0.158949,0.4640504,1.688581,-0.08501852,-0.3797487,1.626195,0.3713602,-0.4169816,1.528401,0.1605166,-0.005139637,1.681102,0.1629722,-0.3308187,1.660946,-0.02367985,0.1671314,1.685786,0.07978899,-0.3243092,1.631555,-0.05357303,-0.1029117,1.69009,0.3681709,-0.08881394,1.651159,NA,NA,NotTracked,NotTracked,
-0.9316406,-0.3989258,-0.06396484,-0.9716797,0.2387695,-0.05566406,-1,1,-1,-5,-2,-1,-6,-7,-1,1,-2,1,-1,-2,1,-1,1.4375,1.4375,1.4375,0.1875,0.1875,0.1875,2.372068,6.851715,7.667328,7.797848,7.120595,7.292929,-0.05182517,-0.3883951,1.607748,0.337212,-0.396074,1.536253,0.1590708,0.4640162,1.688587,-0.08391193,-0.3857491,1.619762,0.3720543,-0.402517,1.527158,0.1605374,-0.005154275,1.681079,0.1630052,-0.3308243,1.660904,-0.02364068,0.1671694,1.685752,0.0798343,-0.3243034,1.631494,-0.05356116,-0.102869,1.690082,0.3681684,-0.08886687,1.651068,NA,NA,NotTracked,NotTracked,
-0.9365234,-0.40625,-0.06103516,-0.9790039,0.2314453,-0.05615234,-2,-7,0,-4,-1,-3,-4,-2,-1,-5,-2,-3,-1,0,-1,0,1.8125,1.8125,1.8125,-1.0625,-1.0625,-1.0625,2.373082,6.851143,7.667628,7.796294,7.119388,7.291893,-0.05184935,-0.3883473,1.607948,0.3371689,-0.3955986,1.534596,0.1591886,0.4639842,1.688544,-0.08407281,-0.3746553,1.624065,0.3694908,-0.4247932,1.523333,0.1606078,-0.005179908,1.681018,0.1630409,-0.3308371,1.660789,-0.02361,0.1671811,1.685726,0.07986073,-0.3242971,1.631434,-0.05347795,-0.102868,1.690005,0.3682115,-0.08891933,1.650891,NA,NA,NotTracked,NotTracked,
-0.9384766,-0.3994141,-0.06298828,-0.9672852,0.2265625,-0.05957031,0,2,-2,1,-2,-2,2,0,-2,-2,0,-1,-2,-3,-2,1,1.3125,1.3125,1.3125,-0.25,-0.25,-0.25,2.37406,6.850337,7.667295,7.798815,7.119104,7.294416,-0.05171733,-0.3882596,1.607951,0.3373864,-0.3952715,1.535101,0.1593586,0.4638996,1.688554,-0.08408453,-0.3872187,1.621164,0.364864,-0.4159092,1.51225,0.1607201,-0.005250157,1.680927,0.1631132,-0.3308789,1.6607,-0.02357426,0.1671479,1.685697,0.07992546,-0.3243286,1.63136,-0.05347572,-0.1028976,1.689972,0.3682261,-0.08890546,1.650829,NA,NA,NotTracked,NotTracked,
-0.9375,-0.3979492,-0.05908203,-0.9765625,0.2236328,-0.05615234,7,9,-1,2,0,-2,-1,0,-1,-2,-3,-2,-1,-2,-1,0,1.125,1.125,1.125,-0.1875,-0.1875,-0.1875,2.37542,6.850669,7.669323,7.801251,7.11809,7.296964,-0.0520241,-0.3877673,1.608328,0.3369886,-0.3954434,1.534777,0.1594699,0.4638483,1.688561,-0.08424152,-0.397728,1.630286,0.372968,-0.3894232,1.522167,0.1607292,-0.005245092,1.680899,0.163124,-0.3308927,1.660623,-0.02357167,0.1671711,1.685675,0.07993646,-0.3243394,1.631323,-0.05350301,-0.1028776,1.68988,0.3682651,-0.08898878,1.650669,NA,NA,NotTracked,NotTracked,
-0.9370117,-0.4130859,-0.05615234,-0.9750977,0.2236328,-0.05761719,-2,-3,0,-1,0,3,-1,1,-1,-3,-2,0,-1,-2,0,0,0.1875,0.1875,0.1875,-0.25,-0.25,-0.25,2.37571,6.850354,7.669702,7.802483,7.118815,7.298087,-0.05189569,-0.3878348,1.607759,0.3379159,-0.3946759,1.535749,0.1595772,0.4638034,1.688617,-0.08260771,-0.3979904,1.617136,0.3721553,-0.400356,1.525296,0.1607816,-0.005261315,1.680817,0.1631614,-0.3309019,1.660506,-0.02355581,0.1671812,1.685678,0.07999489,-0.3243337,1.631165,-0.05339412,-0.1028833,1.689825,0.368283,-0.0890037,1.650544,NA,NA,NotTracked,NotTracked,
-0.9331055,-0.40625,-0.05273438,-0.9726563,0.2260742,-0.06103516,-1,-4,1,-3,-1,-5,-5,0,-1,-1,-1,2,-2,-1,0,-1,-1.125,-1.125,-1.125,-1.5625,-1.5625,-1.5625,2.376706,6.84973,7.672719,7.803916,7.118694,7.300364,-0.05219864,-0.3879554,1.607267,0.3375394,-0.3947704,1.535246,0.1596293,0.4637634,1.688638,-0.08154208,-0.4148784,1.607562,0.3737695,-0.3893776,1.524263,0.1608316,-0.005269373,1.680796,0.1632132,-0.3309119,1.660421,-0.0235487,0.1671785,1.685704,0.08004578,-0.3243456,1.63109,-0.05336571,-0.1028931,1.689795,0.3683343,-0.08892526,1.650478,NA,NA,NotTracked,NotTracked,
-0.9301758,-0.4047852,-0.05810547,-0.9731445,0.2231445,-0.05224609,1,3,-1,-1,-2,0,0,-1,1,4,0,0,0,-2,-1,1,-4.0625,-4.0625,-4.0625,-1.9375,-1.9375,-1.9375,2.376813,6.848693,7.677282,7.801479,7.117978,7.29999,-0.05156432,-0.3877494,1.606917,0.3376998,-0.394831,1.534875,0.1597566,0.4637322,1.688722,-0.08487638,-0.3743914,1.6346,0.3731833,-0.3810701,1.522258,0.1609007,-0.005264812,1.680745,0.1632905,-0.3309134,1.660312,-0.02354136,0.1671837,1.685705,0.0801394,-0.3243431,1.630985,-0.05329278,-0.1029088,1.689643,0.3683967,-0.08875662,1.65022,NA,NA,NotTracked,NotTracked,
-0.9296875,-0.4082031,-0.05566406,-0.9770508,0.2260742,-0.05224609,-2,8,-1,-3,2,2,2,0,1,-2,2,0,-1,1,-1,-1,-5,-5,-5,-1.125,-1.125,-1.125,2.377453,6.848916,7.684767,7.801319,7.118392,7.30097,-0.0512917,-0.388359,1.608346,0.3376997,-0.3948381,1.534698,0.1598573,0.4637029,1.688743,-0.08215316,-0.3969069,1.626572,0.3681154,-0.3993968,1.515,0.1609055,-0.005276972,1.680712,0.1633679,-0.3309195,1.660205,-0.02345536,0.1672577,1.685663,0.08022021,-0.3243346,1.630883,-0.05325959,-0.1028425,1.689459,0.3684556,-0.08879538,1.650178,NA,NA,NotTracked,NotTracked,
-0.9375,-0.4116211,-0.05175781,-0.9750977,0.2338867,-0.05126953,-4,7,-2,-2,0,-1,-1,0,-2,1,-3,-2,-2,-2,0,-1,-5.875,-5.875,-5.875,-3.0625,-3.0625,-3.0625,2.375234,6.849007,7.690366,7.796441,7.117808,7.298457,-0.05135794,-0.3879241,1.607956,0.3377636,-0.3948878,1.534604,0.1599882,0.4637023,1.688893,-0.08359978,-0.3889265,1.626444,0.3683208,-0.4046921,1.516091,0.1609194,-0.005283297,1.680715,0.1633702,-0.3309243,1.660179,-0.02343917,0.1672108,1.685703,0.0802252,-0.3243319,1.630866,-0.05319167,-0.1028966,1.689474,0.3685569,-0.08867624,1.649837,NA,NA,NotTracked,NotTracked,
-0.9326172,-0.4121094,-0.05566406,-0.9697266,0.2333984,-0.05712891,-1,-5,1,-1,0,2,-5,-3,-1,2,-2,-1,-2,-1,-1,-1,-1.8125,-1.8125,-1.8125,-4.875,-4.875,-4.875,2.375875,6.847835,7.694369,7.794797,7.117767,7.299341,-0.05177768,-0.3882073,1.60691,0.3370681,-0.3952445,1.533681,0.1601765,0.4636861,1.689106,-0.08320919,-0.3838087,1.621492,0.372734,-0.3852135,1.52232,0.1609421,-0.005316597,1.680645,0.1634025,-0.3309771,1.659935,-0.02346452,0.1671483,1.685709,0.08025683,-0.3243875,1.630647,-0.05310632,-0.1029769,1.689409,0.3685878,-0.08875012,1.649332,NA,NA,NotTracked,NotTracked,
-0.9335938,-0.4091797,-0.06103516,-0.9692383,0.2333984,-0.06152344,-1,-1,-1,0,0,-2,-6,-1,-1,0,-1,1,-3,0,-1,-3,-0.4375,-0.4375,-0.4375,-2.5625,-2.5625,-2.5625,2.376133,6.847967,7.695461,7.794086,7.117136,7.302546,-0.05171568,-0.3883228,1.607168,0.3373959,-0.3949479,1.533126,0.1602478,0.4636923,1.689148,-0.08314152,-0.387357,1.62405,0.3790921,-0.3577866,1.5244,0.1609679,-0.005322105,1.680591,0.1634242,-0.3309961,1.6598,-0.02346372,0.1671543,1.68571,0.08028546,-0.3243972,1.630562,-0.05307344,-0.102976,1.689393,0.3685722,-0.08891218,1.649099,NA,NA,NotTracked,NotTracked,
-0.9335938,-0.4003906,-0.06201172,-0.9790039,0.2348633,-0.0546875,-3,-4,-1,5,1,1,-7,-3,1,0,-2,-2,-3,-1,-2,-1,-7.375,-7.375,-7.375,-2.3125,-2.3125,-2.3125,2.375337,6.847547,7.703633,7.791988,7.115747,7.302654,-0.05176274,-0.3888209,1.60776,0.3374501,-0.3952183,1.533111,0.1602688,0.4636842,1.689198,-0.08093256,-0.4204026,1.602647,0.368518,-0.40263,1.514591,0.1609752,-0.005333255,1.680573,0.1634548,-0.3310101,1.659707,-0.02342641,0.1671588,1.685713,0.08032032,-0.3244289,1.630473,-0.05302419,-0.1029723,1.689404,0.3688444,-0.08765379,1.648261,NA,NA,NotTracked,NotTracked,
-0.9277344,-0.40625,-0.05175781,-0.9663086,0.2368164,-0.05712891,1,-1,1,-12,-1,-3,1,-1,2,2,0,-1,-1,-1,-1,0,-7.25,-7.25,-7.25,-3.75,-3.75,-3.75,2.375154,6.847172,7.707829,7.79071,7.114167,7.304157,-0.0519195,-0.3883468,1.607886,0.3371067,-0.3948718,1.533281,0.1602859,0.4637311,1.689284,-0.08426473,-0.3842856,1.629273,0.3706644,-0.4159485,1.524333,0.1609718,-0.005331452,1.680564,0.1633598,-0.3310129,1.659553,-0.02342037,0.1671527,1.685897,0.08022548,-0.3244073,1.630325,-0.05304427,-0.1029845,1.689474,0.3688093,-0.08783624,1.648031,NA,NA,NotTracked,NotTracked,
-0.9414063,-0.4301758,-0.05078125,-0.9780273,0.2250977,-0.05712891,0,-3,0,-9,-1,1,2,3,-3,-4,0,1,-2,-1,1,1,-5.25,-5.25,-5.25,-5.75,-5.75,-5.75,2.375478,6.846248,7.711442,7.786098,7.112881,7.3061,-0.05245548,-0.3883132,1.608111,0.3370139,-0.3945807,1.533297,0.1602955,0.4637541,1.689398,-0.08325738,-0.4016039,1.614454,0.3718568,-0.3859373,1.52008,0.1609888,-0.005331798,1.680572,0.1633578,-0.3310073,1.659516,-0.02346689,0.1672015,1.685984,0.08022485,-0.3244056,1.630312,-0.05314175,-0.1029184,1.689696,0.3688225,-0.08779576,1.647957,NA,NA,NotTracked,NotTracked,
-0.9389648,-0.4106445,-0.07617188,-0.9736328,0.2255859,-0.05419922,-1,1,-5,-107,-3,-5,-6,-3,-3,-3,-2,-2,-1,-2,-1,-1,-6.5,-6.5,-6.5,-2.6875,-2.6875,-2.6875,2.37179,6.845173,7.715635,7.78569,7.112298,7.307216,-0.05201229,-0.3887843,1.607402,0.3368299,-0.3980614,1.531868,0.1603313,0.4636448,1.68953,-0.08428401,-0.3859056,1.621459,0.3651352,-0.437355,1.522444,0.1610027,-0.00537839,1.680545,0.1633101,-0.3311123,1.65934,-0.02349639,0.166985,1.686199,0.08019538,-0.3244943,1.630192,-0.05317937,-0.1031277,1.689942,0.3687842,-0.08780246,1.647806,NA,NA,NotTracked,NotTracked,
-0.9282227,-0.4125977,-0.07714844,-0.9741211,0.2373047,-0.05029297,9,10,-1,0,-1,-2,12,8,-3,1,-1,0,-3,-1,-1,-6,-11.5625,-11.5625,-11.5625,-2.9375,-2.9375,-2.9375,2.370565,6.844402,7.728831,7.783864,7.110389,7.307739,-0.05207047,-0.3886393,1.609334,0.3365411,-0.397822,1.532174,0.1603912,0.4635215,1.689964,-0.08764009,-0.3752651,1.6365,0.3679166,-0.4228952,1.518713,0.1610022,-0.005405742,1.680557,0.1632805,-0.3311451,1.659309,-0.02357342,0.1669448,1.686612,0.08018058,-0.324515,1.630179,-0.05301454,-0.1031981,1.690289,0.3687652,-0.08771919,1.647732,NA,NA,NotTracked,NotTracked,
-0.9287109,-0.4477539,-0.07226563,-0.9829102,0.2382813,-0.04785156,-8,-7,-1,43,1,4,-10,2,6,2,-3,-2,-1,-1,-2,0,-16.1875,-16.1875,-16.1875,-5,-5,-5,2.379182,6.841884,7.757323,7.778704,7.107782,7.307975,-0.05275759,-0.3876591,1.607236,0.3362589,-0.3966318,1.529888,0.1603098,0.4635223,1.690176,-0.08605057,-0.3665442,1.624187,0.3686166,-0.3981908,1.515074,0.1609756,-0.005409705,1.680562,0.1632429,-0.3311704,1.65925,-0.02365587,0.1667771,1.686854,0.08015845,-0.3245341,1.63015,-0.05300395,-0.1033912,1.690321,0.3687772,-0.08757423,1.647317,NA,NA,NotTracked,NotTracked,
-0.9672852,-0.5283203,-0.04492188,-0.984375,0.237793,-0.05273438,-6,16,-4,-18,0,5,2,-18,-1,-2,0,-2,1,0,1,-2,-10.75,-10.75,-10.75,-5.875,-5.875,-5.875,2.384823,6.821383,7.78013,7.774285,7.106011,7.309413,-0.05284424,-0.389159,1.608984,0.3362147,-0.396922,1.52839,0.1600841,0.4633907,1.690622,-0.08645822,-0.4226189,1.621667,0.3674136,-0.425434,1.518286,0.1609552,-0.005411267,1.680564,0.1631311,-0.3311837,1.659084,-0.02369881,0.1668931,1.687171,0.08009357,-0.324524,1.63003,-0.05300655,-0.103261,1.690851,0.368829,-0.08767141,1.646979,NA,NA,NotTracked,NotTracked,
-1.04248,-0.5620117,-0.008300781,-0.9780273,0.2294922,-0.06396484,8,-17,-2,-6,0,0,7,-11,0,0,-3,-1,1,-1,-1,-1,-10.875,-10.875,-10.875,-9.5,-9.5,-9.5,2.400063,6.799174,7.803167,7.769801,7.103333,7.314109,-0.05246029,-0.3879473,1.606631,0.3352778,-0.3969024,1.523426,0.159994,0.4634252,1.690818,-0.08654867,-0.3814484,1.6329,0.3699458,-0.3869475,1.509391,0.1609457,-0.005412078,1.680557,0.1630234,-0.3311762,1.658808,-0.0240605,0.1667981,1.687672,0.08002348,-0.3245325,1.629813,-0.0530466,-0.1034289,1.690868,0.3689089,-0.08779922,1.646523,NA,NA,NotTracked,NotTracked,
-1.13916,-0.7231445,-0.2070313,-0.9760742,0.2280273,-0.06005859,-6,57,1,-4,0,-5,3,29,0,0,-1,0,-1,-2,-1,-1,-1.75,-1.75,-1.75,-10.75,-10.75,-10.75,2.54039,6.64518,7.970317,7.764078,7.102382,7.314104,-0.05318834,-0.388413,1.607316,0.3327367,-0.4001042,1.514557,0.1598938,0.4634567,1.69128,-0.08425783,-0.4182293,1.621167,0.362655,-0.4213712,1.4998,0.1609401,-0.005409655,1.680552,0.1629258,-0.3311719,1.65868,-0.02427351,0.166811,1.688204,0.07995032,-0.3245151,1.629678,-0.05306417,-0.1034696,1.690983,0.3691577,-0.08779861,1.646349,NA,NA,NotTracked,NotTracked,
-1.150879,-0.8793945,-0.112793,-0.9638672,0.2055664,-0.05957031,-4,42,-4,-16,-4,1,-8,-9,0,2,1,-2,-2,-2,1,1,-44.0625,-44.0625,-44.0625,-6.6875,-6.6875,-6.6875,2.567938,6.551854,8.032945,7.753617,7.102252,7.312593,-0.05309599,-0.3886916,1.606268,0.3276674,-0.3928321,1.499812,0.1597941,0.4634826,1.69166,-0.08549593,-0.3931058,1.624286,0.3400546,-0.3827873,1.463761,0.160899,-0.005417801,1.680545,0.1627907,-0.3312336,1.658494,-0.02433906,0.1668652,1.688457,0.07982472,-0.3245395,1.629485,-0.05305223,-0.1034298,1.691157,0.3701198,-0.08819105,1.646187,NA,NA,NotTracked,NotTracked,
-1.148438,-1.621582,0.4121094,-0.965332,0.2182617,-0.03759766,43,2,5,-18,17,16,-33,-72,0,0,0,0,-1,1,0,-1,-50.1875,-50.1875,-50.1875,8.25,8.25,8.25,2.59179,6.302102,8.145208,7.752878,7.103672,7.306704,-0.05352408,-0.3880806,1.608286,0.2975348,-0.3147688,1.465514,0.1596152,0.4635041,1.692389,-0.08632796,-0.3932794,1.624166,0.3399237,-0.2787996,1.443091,0.1601116,-0.005231014,1.680483,0.1597035,-0.3305542,1.657727,-0.024723,0.1668426,1.689354,0.07651998,-0.3233878,1.628849,-0.05305856,-0.1035158,1.691715,0.3760996,-0.0836459,1.645399,NA,NA,NotTracked,Unknown,
-1.100098,-1.509277,0.4677734,-0.9545898,0.2583008,-0.02294922,-4,25,-7,-107,-9,-25,-9,17,-2,-3,-3,-2,-3,-3,-2,0,76.4375,76.4375,76.4375,17.875,17.875,17.875,2.743886,5.973775,8.283664,7.767579,7.106083,7.303686,-0.05570449,-0.383837,1.611349,0.2642774,-0.2656791,1.465713,0.1596171,0.4634968,1.692535,-0.0850696,-0.4093815,1.616231,0.2610024,-0.2544338,1.405117,0.1592734,-0.005235227,1.680447,0.1574157,-0.3303624,1.657514,-0.02475255,0.1668996,1.68958,0.0742726,-0.3229054,1.628715,-0.05315245,-0.1034281,1.692225,0.3873213,-0.06436335,1.644602,NA,NA,NotTracked,Unknown,
-1.100098,-1.509277,0.4677734,-0.9526367,0.277832,-0.007324219,-1,4,-4,17,4,-22,37,9,-1,2,-1,-1,-1,0,-2,2,76.4375,76.4375,76.4375,19.75,19.75,19.75,2.743886,5.973775,8.283664,7.79488,7.110063,7.309924,-0.0557508,-0.3794164,1.613782,0.2382751,-0.2077514,1.456572,0.1596331,0.4634406,1.692575,-0.08806917,-0.3836188,1.626375,0.2139939,-0.1977134,1.399266,0.1591863,-0.005231364,1.680541,0.1572874,-0.3303321,1.657668,-0.02471526,0.1669729,1.689688,0.07423704,-0.3228674,1.628856,-0.05328044,-0.1033068,1.692702,0.3943383,-0.05123597,1.640603,NA,NA,NotTracked,Unknown,
-0.909668,-1.269531,0.578125,-0.956543,0.2797852,-0.01220703,-1,4,-4,17,4,-22,37,9,1,-2,0,0,0,-1,0,0,95.6875,95.6875,95.6875,14.75,14.75,14.75,2.839031,5.797887,8.35869,7.810424,7.111713,7.318065,-0.05731317,-0.3804047,1.616243,0.2090995,-0.1428217,1.450394,0.1597096,0.463438,1.692643,-0.08668732,-0.394308,1.622465,0.2717751,-0.1386952,1.4248,0.1592037,-0.00521505,1.680581,0.1574623,-0.3302439,1.657756,-0.02464411,0.1669862,1.689729,0.07473624,-0.3228749,1.629104,-0.05331276,-0.1032684,1.693043,0.3956319,-0.03595174,1.628955,NA,NA,NotTracked,Unknown,
-0.3955078,-0.9267578,0.5205078,-0.987793,0.2651367,-0.01416016,80,127,10,3,17,19,55,2,-3,-1,0,-3,-1,0,-1,0,140.1875,140.1875,140.1875,3.6875,3.6875,3.6875,3.053521,5.426244,8.527005,7.833921,7.114799,7.337145,-0.05711503,-0.3817483,1.61646,0.1602945,-0.08792605,1.456347,0.1598468,0.463362,1.692764,-0.08855119,-0.3766337,1.633571,0.216252,-0.09716245,1.413451,0.1592658,-0.005025635,1.68081,0.1577981,-0.3297394,1.658071,-0.02358976,0.167141,1.689728,0.07516394,-0.3225072,1.629362,-0.05337008,-0.102991,1.693191,0.3958964,-0.0315938,1.62082,NA,NA,NotTracked,Unknown,
-0.1376953,-0.2617188,0.3852539,-1.009277,0.2407227,-0.05419922,-7,-60,7,-15,-8,-5,-126,3,0,-2,-3,0,0,0,-1,-2,73.9375,73.9375,73.9375,1.625,1.625,1.625,3.368914,4.768345,8.898763,7.839285,7.114707,7.340824,-0.05763277,-0.3816949,1.618495,0.1459242,-0.02974424,1.456866,0.1602874,0.4633869,1.693043,-0.08988325,-0.366836,1.633455,0.2026701,-0.03234742,1.416322,0.159655,-0.004552144,1.681423,0.1581368,-0.328222,1.659109,-0.02225164,0.1681495,1.690267,0.07595513,-0.3210484,1.63042,-0.05303857,-0.1018942,1.693599,0.3946985,-0.02343561,1.606009,NA,NA,NotTracked,Unknown,
-0.08447266,-0.2548828,0.3227539,-0.9941406,0.2348633,-0.06347656,1,-128,2,-6,-5,2,-34,12,-4,-2,0,1,-2,0,-2,-2,34.125,34.125,34.125,1.75,1.75,1.75,3.371439,4.634123,8.993382,7.813905,7.110171,7.311991,-0.05607365,-0.3812766,1.617888,0.153545,-0.0006684451,1.463413,0.1607025,0.4633496,1.693183,-0.08820117,-0.377928,1.62925,0.1878631,-0.005920916,1.420565,0.1598058,-0.0043526,1.681899,0.1584563,-0.3276201,1.659696,-0.0221862,0.168178,1.690327,0.07660353,-0.3203626,1.631142,-0.05298125,-0.1018643,1.693695,0.3878914,-0.02032205,1.590545,NA,NA,NotTracked,Unknown,
0.09716797,-0.4755859,0.4223633,-0.9799805,0.2338867,-0.07080078,0,-31,-1,5,-3,3,-4,-3,0,-2,0,0,0,0,-2,-2,16.125,16.125,16.125,-5.125,-5.125,-5.125,3.333105,4.42512,9.188267,7.780165,7.102858,7.280086,-0.05489583,-0.380152,1.61636,0.06814064,0.06126464,1.478443,0.1612335,0.463338,1.693324,-0.08725242,-0.3730066,1.631364,0.03026144,0.1273412,1.441278,0.1600651,-0.004122452,1.682329,0.1588563,-0.326909,1.660077,-0.02243124,0.1684741,1.690273,0.0774094,-0.319727,1.631898,-0.05274834,-0.1016315,1.693609,0.3794341,-0.01928251,1.578117,NA,NA,NotTracked,Unknown,
0.07470703,-0.5644531,0.3862305,-0.9663086,0.2265625,-0.06982422,18,112,1,33,-2,-1,-1,32,-3,0,-1,-1,1,0,1,-4,21.625,21.625,21.625,-9.6875,-9.6875,-9.6875,3.283764,4.298236,9.376348,7.759339,7.098757,7.263659,-0.05319388,-0.3818522,1.614974,0.1013572,0.05550424,1.474125,0.1618247,0.4633391,1.693568,-0.08631965,-0.3749065,1.631577,0.1292068,0.04666463,1.427322,0.1604432,-0.004006268,1.682759,0.1593367,-0.3264584,1.66046,-0.02303517,0.1689525,1.689952,0.07817931,-0.3192991,1.632577,-0.05267822,-0.1012164,1.693604,0.3602187,-0.02278347,1.555278,NA,NA,NotTracked,Unknown,
0.1015625,-0.5898438,0.3842773,-0.9453125,0.1967773,-0.09472656,-6,38,11,35,-2,0,-2,12,1,1,-2,-1,-3,-1,-1,-2,27.1875,27.1875,27.1875,-9.25,-9.25,-9.25,3.262852,4.263749,9.45974,7.734894,7.092364,7.248333,-0.05336505,-0.3777557,1.615539,0.04672932,0.08831222,1.497572,0.1624558,0.4633552,1.693732,-0.08531817,-0.3636584,1.637133,0.08298687,0.08640587,1.445195,0.1606717,-0.003834148,1.68312,0.1596035,-0.3261704,1.660663,-0.02406917,0.1692807,1.6889,0.07864473,-0.3191034,1.633086,-0.05248319,-0.1009463,1.693567,0.3557713,-0.01866263,1.550822,NA,NA,NotTracked,Unknown,
0.03808594,-0.7036133,0.2666016,-0.9526367,0.2001953,-0.08056641,8,-17,1,-8,5,4,-50,50,-1,-1,0,0,-1,-3,-1,0,-0.25,-0.25,-0.25,-10.9375,-10.9375,-10.9375,3.192432,4.253021,9.6669,7.726267,7.090196,7.256905,-0.05118514,-0.3768925,1.61473,0.02767745,0.08904511,1.509072,0.1633026,0.4632056,1.69393,-0.08250513,-0.3878836,1.624181,0.05765763,0.06017578,1.445231,0.1610397,-0.0037155,1.683767,0.1604351,-0.3255865,1.661149,-0.02498644,0.1697279,1.687689,0.07998691,-0.3186155,1.63438,-0.05213322,-0.100549,1.693553,0.3241845,-0.01552635,1.529037,NA,NA,NotTracked,Unknown,
-0.09130859,-0.7333984,0.2827148,-0.9628906,0.2041016,-0.07226563,0,-8,4,-9,-5,-2,10,2,-1,-2,-2,-1,0,-1,0,-2,-20.4375,-20.4375,-20.4375,-8.3125,-8.3125,-8.3125,3.13168,4.307558,9.749623,7.731211,7.09184,7.266356,-0.05000493,-0.3764654,1.613496,0.02087531,0.08315408,1.510471,0.1634683,0.4631044,1.693971,-0.07988265,-0.392541,1.619539,0.04931759,0.05749322,1.448,0.1611745,-0.003706923,1.684078,0.16072,-0.3254546,1.661366,-0.02515915,0.1697932,1.687355,0.08052568,-0.3185943,1.635252,-0.05193728,-0.1004955,1.693599,0.3193133,-0.01305063,1.526408,NA,NA,NotTracked,Lasso,
-0.2641602,-1.010254,0.2700195,-0.9882813,0.230957,-0.05761719,-2,-25,0,-12,-1,-7,-9,-7,-3,1,-3,-1,-3,-2,-3,-1,-21.25,-21.25,-21.25,-4.75,-4.75,-4.75,3.040292,4.49574,9.792477,7.744618,7.09952,7.289282,-0.05105659,-0.3747403,1.616929,0.04493405,0.04695767,1.49415,0.1636845,0.4628542,1.694164,-0.08211621,-0.3856959,1.624887,0.05502518,0.0314655,1.444205,0.1612447,-0.003546753,1.684492,0.1609493,-0.3249812,1.661627,-0.02545027,0.1709223,1.687741,0.08096632,-0.3181872,1.635981,-0.05145742,-0.09949275,1.693738,0.3155036,-0.01050795,1.525019,NA,NA,NotTracked,Unknown,
-0.4130859,-1.17334,0.2792969,-0.9741211,0.2949219,-0.04345703,11,53,-6,1,-11,-14,-2,9,-1,-1,-2,-1,0,-2,-1,-1,-32.8125,-32.8125,-32.8125,-8.8125,-8.8125,-8.8125,3.012908,4.599935,9.755,7.728579,7.099744,7.279961,-0.05077587,-0.3787097,1.616476,0.08986715,0.01386142,1.475912,0.1636348,0.4626087,1.694292,-0.08237706,-0.3839684,1.627414,0.07513537,0.03378306,1.436588,0.1611468,-0.003371241,1.685036,0.1609214,-0.3246717,1.661847,-0.026309,0.171331,1.689664,0.08104084,-0.3179846,1.636344,-0.05101044,-0.09935651,1.694167,0.324335,-0.009306437,1.530273,NA,NA,NotTracked,Unknown,
-0.1123047,-1.228516,0.3085938,-0.9667969,0.2485352,-0.05419922,-7,-8,-15,-29,-9,12,6,-10,0,3,0,0,-1,-2,-2,1,7.375,7.375,7.375,-0.125,-0.125,-0.125,3.008819,4.712478,9.626721,7.688519,7.102452,7.260917,-0.0515784,-0.3792662,1.618047,0.08754566,0.01978104,1.477285,0.1629714,0.4625501,1.694491,-0.08270797,-0.3817503,1.633504,0.1026993,0.004283049,1.427891,0.1608397,-0.003174508,1.685397,0.1607427,-0.3242769,1.661934,-0.0281563,0.1712068,1.69324,0.08094887,-0.3177884,1.63636,-0.05133146,-0.09982275,1.695243,0.3495628,-0.009179629,1.539064,NA,NA,NotTracked,Unknown,
-0.07226563,-1.133789,0.5561523,-0.9624023,0.2900391,-0.05175781,34,23,-10,71,-2,7,11,42,-1,1,0,-2,0,0,-2,-2,-34.375,-34.375,-34.375,8.4375,8.4375,8.4375,3.002259,4.790367,9.342358,7.728693,7.102536,7.288239,-0.053716,-0.377041,1.618886,0.06931612,0.02723143,1.481491,0.1612016,0.4620347,1.694642,-0.08692873,-0.3792156,1.633,0.09068056,0.02714529,1.430677,0.1601146,-0.003300995,1.685638,0.160308,-0.3241867,1.661746,-0.03171501,0.1688202,1.692681,0.08038356,-0.3177962,1.635999,-0.05222892,-0.1022676,1.696638,0.3865867,-0.01973142,1.550906,NA,NA,NotTracked,Unknown,
0.05615234,-0.9116211,0.6274414,-0.9975586,0.2490234,-0.02441406,8,2,1,-2,-5,-3,2,-19,0,-7,-2,-2,-1,0,-1,2,-32.75,-32.75,-32.75,7.4375,7.4375,7.4375,2.988908,4.882309,9.000397,7.79826,7.104063,7.345796,-0.05849998,-0.377802,1.620605,0.1889638,0.01038282,1.450662,0.159147,0.4615784,1.694324,-0.092316,-0.3601734,1.641539,0.230428,0.01166633,1.409401,0.1589158,-0.00367856,1.685748,0.1589028,-0.3247449,1.661431,-0.0307132,0.1685278,1.693657,0.07878324,-0.3183514,1.635523,-0.05312929,-0.1024109,1.697475,0.4148932,-0.01992066,1.563623,NA,NA,NotTracked,Unknown,
0.09521484,-0.875,0.6376953,-0.9765625,0.2524414,-0.03466797,-17,-16,-7,45,-19,-11,-9,-10,-6,-3,-1,-1,-1,-2,-3,-4,-52.25,-52.25,-52.25,6.4375,6.4375,6.4375,2.937783,4.958525,8.73416,7.848009,7.100981,7.381909,-0.06207247,-0.3747289,1.620047,0.2273862,0.008087558,1.444923,0.1576193,0.4612747,1.693301,-0.09332868,-0.3735481,1.63452,0.1997635,-0.02200049,1.515333,0.1577995,-0.003784562,1.685569,0.1576734,-0.3249584,1.66119,-0.03055601,0.1685042,1.693788,0.07726054,-0.3184876,1.635116,-0.05416231,-0.1023156,1.697777,0.4468189,-0.00707527,1.586252,NA,NA,NotTracked,Unknown,
0.2016602,-0.9008789,0.5996094,-0.9614258,0.1972656,-0.03027344,14,26,-4,-10,8,12,7,-2,-5,-5,-1,-1,-2,-2,-2,-4,-23.625,-23.625,-23.625,7.6875,7.6875,7.6875,2.846311,5.043957,8.403605,7.876758,7.103558,7.405263,-0.06620965,-0.3750075,1.617631,0.2815661,-0.0003154817,1.449592,0.1566719,0.4611638,1.691234,-0.0991863,-0.3836998,1.630833,0.2573535,-0.02675382,1.481273,0.1565003,-0.00399133,1.685093,0.1557253,-0.3255595,1.660707,-0.03032434,0.168475,1.693647,0.07476638,-0.3190951,1.63465,-0.05572175,-0.1021977,1.697431,0.46013,0.001891197,1.599802,NA,NA,NotTracked,Unknown,
0.2729492,-0.7368164,0.4643555,-0.9912109,0.2314453,-0.01806641,1,-21,-7,-13,-5,-8,30,18,-2,0,0,0,0,-2,0,-2,-20.9375,-20.9375,-20.9375,18.0625,18.0625,18.0625,2.820052,5.101497,8.213384,7.901438,7.110783,7.396044,-0.06709084,-0.380498,1.614268,0.3140122,-0.01015108,1.45724,0.1566568,0.4607197,1.688403,-0.09790447,-0.3707901,1.629095,0.2963633,-0.04023996,1.479687,0.1556859,-0.004515667,1.684272,0.154035,-0.3268298,1.659849,-0.02902356,0.168415,1.692158,0.07237857,-0.3201679,1.63329,-0.05772376,-0.1019178,1.696377,0.4616169,0.01335697,1.614335,NA,NA,NotTracked,Unknown,
0.1982422,-0.8618164,0.4404297,-0.9833984,0.2607422,-0.05517578,13,-8,-12,-13,-13,-34,-4,7,-2,-1,-1,0,-1,-1,-3,-2,-0.5,-0.5,-0.5,16.75,16.75,16.75,2.827504,5.126701,8.083164,7.895183,7.113582,7.358843,-0.06600396,-0.3845897,1.613477,0.3464645,-0.02297076,1.469516,0.1573612,0.4600312,1.685722,-0.09737296,-0.3852032,1.626342,0.3024176,-0.05713391,1.483,0.1555582,-0.004797953,1.683779,0.1537134,-0.3272219,1.659534,-0.02729747,0.1680801,1.689898,0.07182961,-0.320503,1.632707,-0.05803632,-0.1019566,1.695056,0.4592118,0.0311411,1.68694,NA,NA,NotTracked,Unknown,
0.07861328,-1.055664,0.3632813,-0.9780273,0.2387695,-0.08056641,5,35,7,-2,2,-20,-42,-30,2,2,1,0,-2,-1,-3,-3,10,10,10,11.5625,11.5625,11.5625,2.84832,5.14026,8.008305,7.872169,7.112377,7.312615,-0.06314774,-0.3823791,1.611671,0.3491495,-0.03333862,1.474444,0.1589601,0.4590911,1.684255,-0.09203672,-0.3933604,1.6105,0.2944233,-0.06597146,1.485167,0.1555763,-0.005244277,1.683482,0.153771,-0.3277558,1.659325,-0.02577896,0.1679617,1.687614,0.07176983,-0.3209786,1.631899,-0.05846154,-0.1018542,1.692748,0.5000533,0.04125768,1.721296,NA,NA,NotTracked,Unknown,
0.01025391,-1.118652,0.3134766,-0.9770508,0.2246094,-0.1098633,-8,6,-3,-2,-14,-35,-38,-17,-5,-20,-1,-1,0,-1,-2,-2,7.4375,7.4375,7.4375,16.375,16.375,16.375,2.885846,5.111646,7.973553,7.870633,7.10826,7.282989,-0.06057919,-0.3774782,1.609783,0.3465505,-0.03574005,1.474495,0.1609919,0.4582866,1.682701,-0.0928271,-0.3886857,1.62393,0.300902,-0.06844673,1.480667,0.1559096,-0.005554034,1.683234,0.1543619,-0.3279293,1.659081,-0.02432095,0.1680053,1.68494,0.07245493,-0.321172,1.630654,-0.05819156,-0.1017554,1.689208,0.4969578,0.03742984,1.720777,NA,NA,NotTracked,Unknown,
-0.04003906,-1.07959,0.2685547,-0.972168,0.2084961,-0.1010742,-3,-26,-3,-3,2,-7,-3,-14,2,3,-4,-1,-2,-1,-1,-1,13.25,13.25,13.25,13.25,13.25,13.25,2.902052,5.063234,7.971713,7.89979,7.100341,7.276545,-0.05903183,-0.373298,1.607637,0.3399628,-0.03163522,1.471294,0.1629541,0.4581063,1.682116,-0.09347393,-0.3503276,1.641818,0.3130583,-0.06516255,1.481165,0.1562718,-0.005665043,1.683202,0.1554214,-0.3280524,1.659128,-0.02331713,0.1683929,1.683236,0.07348564,-0.3212501,1.629777,-0.05755527,-0.1014494,1.686163,0.4577802,-0.0437988,1.575383,NA,NA,NotTracked,Unknown,
-0.05224609,-0.9414063,0.2592773,-0.9760742,0.2026367,-0.08349609,0,2,2,8,10,13,19,-2,-4,0,-1,1,0,-1,-1,0,3.8125,3.8125,3.8125,2.9375,2.9375,2.9375,2.915343,5.015174,7.976492,7.922727,7.096437,7.287541,-0.05969949,-0.3758803,1.603663,0.3353309,-0.02854154,1.465574,0.1648158,0.4580081,1.682297,-0.09153032,-0.3765634,1.616,0.3050584,-0.06292324,1.477916,0.1570097,-0.005951361,1.683193,0.1568124,-0.3283618,1.659033,-0.0223205,0.1688563,1.681241,0.07480974,-0.3215604,1.628612,-0.05683786,-0.09964025,1.683364,0.4508721,-0.04569194,1.574341,NA,NA,NotTracked,Unknown,
-0.06201172,-0.9633789,0.2866211,-0.9804688,0.1977539,-0.06884766,-18,-11,-1,-12,-5,20,-11,2,1,6,-2,0,-1,-1,-1,-3,9.6875,9.6875,9.6875,0.8125,0.8125,0.8125,2.944194,4.993219,7.985418,7.928053,7.094594,7.290687,-0.05856734,-0.3765948,1.60005,0.3329812,-0.02878436,1.462574,0.1661504,0.458163,1.683229,-0.09081714,-0.3657202,1.624991,0.3092658,-0.06262929,1.476456,0.1576681,-0.006157303,1.683184,0.1580345,-0.3286054,1.659145,-0.02152372,0.169126,1.680227,0.07586084,-0.3217495,1.627995,-0.05610218,-0.09817994,1.681171,0.4488109,-0.04668342,1.573082,NA,NA,NotTracked,Unknown,
-0.04882813,-1.054199,0.296875,-0.965332,0.1923828,-0.07617188,-13,-14,-1,-2,7,22,-11,-36,-1,-1,-1,-1,-2,-1,-2,-1,4.375,4.375,4.375,-5.4375,-5.4375,-5.4375,2.949394,4.990036,7.995816,7.931282,7.095737,7.302281,-0.05854002,-0.3802087,1.59724,0.268291,-0.01773025,1.434566,0.1673675,0.4586893,1.684463,-0.09166624,-0.3845403,1.6088,0.248043,-0.0339744,1.4415,0.1580426,-0.006150784,1.683436,0.158682,-0.3287946,1.659539,-0.0213225,0.1691567,1.680038,0.07623508,-0.3218725,1.628,-0.05615214,-0.09812216,1.680458,0.4315697,-0.05412557,1.557539,NA,NA,NotTracked,Closed,
