ALX,ALY,ALZ,ARX,ARY,ARZ,EMG0L,EMG1L,EMG2L,EMG3L,EMG4L,EMG5L,EMG6L,EMG7L,EMG0R,EMG1R,EMG2R,EMG3R,EMG4R,EMG5R,EMG6R,EMG7R,GLX,GLY,GLZ,GRX,GRY,GRZ,ORL,OPL,OYL,ORR,OPR,OYR,LHNX,LHNY,LHNZ,RHNX,RHNY,RHNZ,HX,HY,HZ,LTX,LTY,LTZ,RTX,RTY,RTZ,SpineMidX,SpineMidY,SpineMidZ,SpineBaseX,SpineBaseY,SpineBaseZ,ShoulderLeftX,ShoulderLeftY,ShoulderLeftZ,ShoulderRightX,ShoulderRightY,ShoulderRightZ,ElbowLeftX,ElbowLeftY,ElbowLeftZ,ElbowRightX,ElbowRightY,ElbowRightZ,Myo_Pose_left,Myo_Pose_Right,Kinect_pose_left,Kinect_pose_right
-0.9194336,-0.3266602,-0.2592773,-0.9667969,0.2475586,-0.05859375,2,-86,-1,1,-1,-1,-5,2,0,-1,1,-2,-3,-1,-2,-1,-0.4375,-0.4375,-0.4375,-2.125,-2.125,-2.125,1.509056,6.826483,9.908406,7.80157,7.084431,7.288748,-0.03402301,-0.4129175,1.582079,0.3444052,-0.4169239,1.525667,0.1748377,0.4676664,1.701042,-0.07677723,-0.4194621,1.590431,0.2997652,-0.4130703,1.505778,0.1737598,-0.006768491,1.684717,0.1756042,-0.3370451,1.657728,-0.01275415,0.1677913,1.68787,0.09163151,-0.3301757,1.628102,-0.0411286,-0.1000056,1.681288,0.379084,-0.08904622,1.640812,NA,NA,NotTracked,NotTracked,
-0.9082031,-0.3398438,-0.2700195,-0.9667969,0.2475586,-0.05859375,5,4,0,-1,-3,-1,2,-1,0,-1,1,-2,-3,-1,-2,-1,2.25,2.25,2.25,-2.125,-2.125,-2.125,1.51329,6.826011,9.911429,7.80157,7.084431,7.288748,-0.03459337,-0.4123301,1.581901,0.3435984,-0.4161997,1.524488,0.1749215,0.4676949,1.700986,-0.07900599,-0.429092,1.583154,0.29966,-0.4134346,1.505482,0.1738076,-0.006763035,1.684654,0.1755514,-0.337056,1.657647,-0.0179559,0.167052,1.687977,0.09160695,-0.3301892,1.628009,-0.04105464,-0.1001152,1.681479,0.3791346,-0.08905426,1.640535,NA,NA,NotTracked,NotTracked,
-0.9150391,-0.3359375,-0.2675781,-0.9667969,0.2475586,-0.05859375,2,20,-3,0,0,1,-7,1,0,-1,1,-2,-3,-1,-2,-1,1.5625,1.5625,1.5625,-2.125,-2.125,-2.125,1.513584,6.826946,9.910314,7.80157,7.084431,7.288748,-0.0348874,-0.4122252,1.581441,0.3442405,-0.4165541,1.524546,0.1750183,0.4676863,1.70093,-0.07712841,-0.4193552,1.58777,0.3000769,-0.4125701,1.505696,0.1738266,-0.006798571,1.684551,0.1754564,-0.3371499,1.657519,-0.01607097,0.1672078,1.68843,0.0915328,-0.3302506,1.627935,-0.04106025,-0.09994714,1.68172,0.3791259,-0.08926701,1.640166,NA,NA,NotTracked,NotTracked,
-0.918457,-0.3481445,-0.2573242,-0.9667969,0.2475586,-0.05859375,1,23,0,-1,1,0,-2,-4,0,-1,1,-2,-3,-1,-2,-1,3.6875,3.6875,3.6875,-2.125,-2.125,-2.125,1.517054,6.825026,9.909067,7.80157,7.084431,7.288748,-0.03533817,-0.4118417,1.580599,0.3439481,-0.4164062,1.524135,0.1750635,0.4676704,1.700896,-0.07754309,-0.4252509,1.576312,0.3002031,-0.4120286,1.504991,0.1737885,-0.00685203,1.684387,0.1753139,-0.3372433,1.657232,-0.01809027,0.1668723,1.688416,0.09142665,-0.3303404,1.627725,-0.0410649,-0.09996229,1.681709,0.3791498,-0.08943165,1.63972,NA,NA,NotTracked,NotTracked,
-0.9077148,-0.3364258,-0.2592773,-0.9667969,0.2475586,-0.05859375,-9,115,-2,2,1,-2,-15,-10,0,-1,1,-2,-3,-1,-2,-1,8.4375,8.4375,8.4375,-2.125,-2.125,-2.125,1.514595,6.824743,9.893432,7.80157,7.084431,7.288748,-0.03568327,-0.4105276,1.579407,0.3426718,-0.4163026,1.522995,0.1750705,0.4676638,1.70089,-0.07797723,-0.4117172,1.596312,0.2976699,-0.4157279,1.503729,0.1737838,-0.006974524,1.684116,0.1750946,-0.3374395,1.656773,-0.01992594,0.16659,1.688407,0.09123877,-0.3304789,1.627389,-0.04107007,-0.1000005,1.681718,0.3791257,-0.08948659,1.639506,NA,NA,NotTracked,NotTracked,
-0.9082031,-0.340332,-0.2832031,-0.9667969,0.2475586,-0.05859375,-1,-64,0,-1,1,0,-5,-3,0,-1,1,-2,-3,-1,-2,-1,8.875,8.875,8.875,-2.125,-2.125,-2.125,1.519318,6.823906,9.881244,7.80157,7.084431,7.288748,-0.03540925,-0.4102532,1.578187,0.3420217,-0.4168943,1.52271,0.1750851,0.4676735,1.700875,-0.07642997,-0.4161227,1.577769,0.2981858,-0.4137224,1.505388,0.1738084,-0.007057272,1.683808,0.1748824,-0.3376587,1.656178,-0.01703761,0.1671445,1.688679,0.0909761,-0.3306502,1.626731,-0.04107711,-0.09996762,1.681668,0.3791368,-0.08958342,1.638846,NA,NA,NotTracked,NotTracked,
-0.9213867,-0.3583984,-0.3134766,-0.9667969,0.2475586,-0.05859375,5,74,0,-1,0,-4,-39,-32,0,-1,1,-2,-3,-1,-2,-1,-13.0625,-13.0625,-13.0625,-2.125,-2.125,-2.125,1.500877,6.820365,9.870472,7.80157,7.084431,7.288748,-0.03568382,-0.4102555,1.577683,0.3388543,-0.4130524,1.517774,0.1751601,0.4677199,1.700959,-0.07800514,-0.4176409,1.587546,0.2969242,-0.4050362,1.503496,0.1737961,-0.007017085,1.683688,0.1746722,-0.3376324,1.655864,-0.0184083,0.1671602,1.688426,0.09077901,-0.3305887,1.626469,-0.04119665,-0.1001047,1.681418,0.3793559,-0.08937596,1.638689,NA,NA,NotTracked,NotTracked,
-1.228027,-0.6293945,-0.3920898,-0.9667969,0.2475586,-0.05859375,13,117,21,9,24,-4,126,6,0,-1,1,-2,-3,-1,-2,-1,-37.5625,-37.5625,-37.5625,-2.125,-2.125,-2.125,1.495263,6.768991,9.934601,7.80157,7.084431,7.288748,-0.03659831,-0.4100024,1.577554,0.3152951,-0.3867999,1.489346,0.1752084,0.4677628,1.700969,-0.07902694,-0.4159248,1.580287,0.286804,-0.3977301,1.507,0.1734072,-0.006913616,1.683135,0.1734303,-0.3373644,1.655205,-0.01672291,0.1678755,1.688135,0.08941177,-0.3302115,1.625986,-0.04116079,-0.0997946,1.681298,0.3814517,-0.08780269,1.639291,NA,NA,NotTracked,NotTracked,
-1.09668,-1.356445,-0.2529297,-0.9667969,0.2475586,-0.05859375,8,86,8,7,27,33,-57,20,0,-1,1,-2,-3,-1,-2,-1,102.625,102.625,102.625,-2.125,-2.125,-2.125,2.020241,6.233461,0.3758723,7.80157,7.084431,7.288748,-0.03686725,-0.4100385,1.578427,0.2721143,-0.2885362,1.47913,0.1752946,0.4679229,1.700918,-0.07939838,-0.4243465,1.577976,0.2520705,-0.2866911,1.417959,0.1722858,-0.006457804,1.682433,0.1690912,-0.3362774,1.654434,-0.01866056,0.1677356,1.687697,0.08404952,-0.3283036,1.62551,-0.04108608,-0.09948187,1.681367,0.3893465,-0.0771918,1.641757,NA,NA,NotTracked,Unknown,
-0.7480469,-1.296875,-0.0009765625,-0.9667969,0.2475586,-0.05859375,-14,57,-20,-15,-29,-7,7,-32,0,-1,1,-2,-3,-1,-2,-1,141.75,141.75,141.75,-2.125,-2.125,-2.125,2.389143,5.740533,0.6197539,7.80157,7.084431,7.288748,-0.03732551,-0.4110705,1.580886,0.2165054,-0.1696329,1.453857,0.1755448,0.4680686,1.700643,-0.07808738,-0.4163603,1.583294,0.2025074,-0.1517905,1.400578,0.1722851,-0.006374196,1.682372,0.1692416,-0.3361408,1.654906,-0.01542873,0.1688424,1.686902,0.08482324,-0.3282797,1.626395,-0.04111847,-0.09870421,1.68145,0.4036298,-0.04039684,1.634081,NA,NA,NotTracked,Unknown,
-0.2397461,-0.4326172,-0.0004882813,-0.9667969,0.2475586,-0.05859375,-26,-39,-14,-6,-17,-13,70,-55,0,-1,1,-2,-3,-1,-2,-1,164.0625,164.0625,164.0625,-2.125,-2.125,-2.125,2.934063,5.099966,0.9561065,7.80157,7.084431,7.288748,-0.03749797,-0.4111348,1.583336,0.1733158,-0.05197413,1.46223,0.1763907,0.4678665,1.69968,-0.08067598,-0.4311248,1.575667,0.2174037,-0.07975864,1.415193,0.1726253,-0.005910861,1.682423,0.1697877,-0.3345612,1.656011,-0.01189915,0.1696897,1.685673,0.08588589,-0.32696,1.627477,-0.04115959,-0.09789852,1.681554,0.4087932,-0.02389749,1.615825,NA,NA,NotTracked,Unknown,
-0.04931641,-0.578125,0.1635742,-0.9667969,0.2475586,-0.05859375,23,-44,-1,1,42,19,-81,4,0,-1,1,-2,-3,-1,-2,-1,-75,-75,-75,-2.125,-2.125,-2.125,2.897869,4.640323,1.14937,7.80157,7.084431,7.288748,-0.03702604,-0.4111211,1.584902,0.1341773,0.05054524,1.464721,0.1774607,0.467574,1.698643,-0.08008343,-0.4186671,1.590988,0.1551667,0.05076446,1.411356,0.1729402,-0.005367989,1.68258,0.1699712,-0.3328976,1.656582,-0.0106817,0.1704219,1.685252,0.08662421,-0.3253047,1.628553,-0.04070237,-0.09730825,1.681348,0.4023502,-0.02090907,1.589993,NA,NA,NotTracked,Unknown,
0.08105469,-0.6147461,0.06640625,-0.9667969,0.2475586,-0.05859375,53,8,-10,1,-33,22,-15,104,0,-1,1,-2,-3,-1,-2,-1,8.625,8.625,8.625,-2.125,-2.125,-2.125,2.802024,4.340771,1.332023,7.80157,7.084431,7.288748,-0.03558788,-0.4087167,1.583017,0.1487441,0.06732018,1.458154,0.1789522,0.4671769,1.698424,-0.07310455,-0.409864,1.584379,0.1152517,0.0585295,1.507308,0.1700707,-0.005623902,1.684129,0.1703523,-0.3322347,1.656916,-0.01873529,0.1694578,1.684419,0.08751364,-0.3246991,1.629707,-0.04039806,-0.09743937,1.68123,0.3718117,-0.02800543,1.551136,NA,NA,NotTracked,Unknown,
0.05712891,-0.7392578,0.08349609,-0.9667969,0.2475586,-0.05859375,3,16,3,-10,3,16,43,92,0,-1,1,-2,-3,-1,-2,-1,-29,-29,-29,-2.125,-2.125,-2.125,2.725386,4.225413,1.476599,7.80157,7.084431,7.288748,-0.03511795,-0.4077571,1.583157,0.1143245,0.100971,1.468863,0.1801966,0.4669753,1.69842,-0.07682603,-0.4154501,1.594953,0.1641454,0.09490281,1.536667,0.1701073,-0.005609564,1.684611,0.1707257,-0.3319483,1.657019,-0.0212649,0.1690569,1.683905,0.08826742,-0.3246245,1.630375,-0.03992859,-0.09689782,1.68145,0.3616463,-0.02402459,1.539142,NA,NA,NotTracked,Unknown,
0.1030273,-0.8754883,0.03173828,-0.9667969,0.2475586,-0.05859375,-10,6,-7,2,-6,-4,20,-20,0,-1,1,-2,-3,-1,-2,-1,-7.0625,-7.0625,-7.0625,-2.125,-2.125,-2.125,2.625284,4.238113,1.591321,7.80157,7.084431,7.288748,-0.03499223,-0.4079656,1.583414,0.100302,0.1081832,1.471333,0.1812597,0.466886,1.698748,-0.07517339,-0.4094724,1.595944,0.08754183,0.07337689,1.534533,0.1703987,-0.005466289,1.684854,0.1709293,-0.3316953,1.657039,-0.02051523,0.1692328,1.68267,0.088652,-0.324498,1.63072,-0.03962016,-0.09534486,1.682271,0.3548478,-0.01772614,1.530383,NA,NA,NotTracked,Unknown,
0.2314453,-0.9135742,-0.05126953,-0.9667969,0.2475586,-0.05859375,9,-36,-7,-8,3,8,-19,5,0,-1,1,-2,-3,-1,-2,-1,-24.625,-24.625,-24.625,-2.125,-2.125,-2.125,2.563956,4.281394,1.624258,7.80157,7.084431,7.288748,-0.03679458,-0.4082512,1.58667,0.1154598,0.09249166,1.462746,0.1816402,0.466745,1.69895,-0.07851484,-0.4102855,1.597004,0.1209912,0.06392615,1.528616,0.1683027,-0.005876852,1.685625,0.1708555,-0.3316703,1.657059,-0.02293183,0.168526,1.683037,0.08858114,-0.3246123,1.630985,-0.03974394,-0.09467541,1.683172,0.3545968,-0.01290004,1.529427,NA,NA,NotTracked,Unknown,
0.1699219,-0.9023438,-0.03564453,-0.9667969,0.2475586,-0.05859375,-15,-66,-5,-1,-16,-33,-62,-27,0,-1,1,-2,-3,-1,-2,-1,-28.0625,-28.0625,-28.0625,-2.125,-2.125,-2.125,2.541713,4.317976,1.608115,7.80157,7.084431,7.288748,-0.03734153,-0.4108988,1.588666,0.119233,0.08779933,1.461347,0.181655,0.4666854,1.699108,-0.07771806,-0.4120336,1.593079,0.1412883,0.06412427,1.531667,0.1694504,-0.005470409,1.685577,0.1707468,-0.3314474,1.657088,-0.02460968,0.1684777,1.683646,0.08852839,-0.3245969,1.631114,-0.03984205,-0.09455463,1.684849,0.3564312,-0.01127359,1.52945,NA,NA,NotTracked,Unknown,
0.1049805,-1.115723,-0.06494141,-0.9667969,0.2475586,-0.05859375,-9,-66,-20,-7,-11,-17,-67,-3,0,-1,1,-2,-3,-1,-2,-1,-11.8125,-11.8125,-11.8125,-2.125,-2.125,-2.125,2.513392,4.398283,1.54653,7.80157,7.084431,7.288748,-0.03937747,-0.408418,1.592158,0.1354652,0.07540949,1.454707,0.1813462,0.4665828,1.699208,-0.0781747,-0.415595,1.59354,0.1094545,0.05076013,1.507706,0.1683616,-0.005541016,1.685656,0.1704226,-0.3313321,1.656901,-0.0193547,0.1711646,1.685152,0.08832597,-0.3245854,1.631116,-0.04006825,-0.09460679,1.6853,0.3641163,-0.01849172,1.529848,NA,NA,NotTracked,Unknown,
-0.02734375,-1.064453,0.05322266,-0.9667969,0.2475586,-0.05859375,11,-68,-1,-10,-9,-2,-3,-10,0,-1,1,-2,-3,-1,-2,-1,-29.375,-29.375,-29.375,-2.125,-2.125,-2.125,2.556547,4.540591,1.375224,7.80157,7.084431,7.288748,-0.03864003,-0.4083976,1.592158,0.1537844,0.06676098,1.458211,0.1802639,0.4663481,1.69898,-0.07769626,-0.4151864,1.59387,0.1404323,0.03406844,1.49775,0.1686069,-0.005453495,1.685379,0.1699665,-0.3313121,1.656737,-0.01723946,0.1716576,1.686887,0.08797181,-0.3246041,1.631007,-0.0403311,-0.09570109,1.686038,0.3862874,-0.03111788,1.540416,NA,NA,NotTracked,Unknown,
0.1240234,-1.071289,0.1962891,-0.9667969,0.2475586,-0.05859375,2,101,7,18,-3,-1,-2,-30,0,-1,1,-2,-3,-1,-2,-1,-2.875,-2.875,-2.875,-2.125,-2.125,-2.125,2.556738,4.663688,1.220998,7.80157,7.084431,7.288748,-0.03993893,-0.4052851,1.592354,0.1101123,0.07121632,1.513987,0.1785352,0.4660528,1.698462,-0.07937536,-0.4043264,1.601778,0.09822135,0.03875485,1.555632,0.1686306,-0.005338127,1.685078,0.1694485,-0.3311804,1.656546,-0.01645279,0.1718827,1.688238,0.08752088,-0.3245309,1.630836,-0.04116267,-0.09669179,1.686577,0.411976,-0.0347784,1.550574,NA,NA,NotTracked,Closed,
0.2456055,-1.098633,0.2319336,-0.9667969,0.2475586,-0.05859375,-7,-9,1,9,9,8,9,7,0,-1,1,-2,-3,-1,-2,-1,-26.0625,-26.0625,-26.0625,-2.125,-2.125,-2.125,2.510922,4.86428,0.9143519,7.80157,7.084431,7.288748,-0.04206095,-0.405539,1.591539,0.1594482,0.03630209,1.491349,0.1757537,0.4656613,1.697171,-0.08213269,-0.4088035,1.602708,0.1424976,0.008744203,1.534773,0.1685676,-0.005230397,1.684364,0.1687023,-0.3311146,1.656056,-0.02144852,0.1700891,1.688511,0.08680891,-0.3246791,1.630429,-0.04214158,-0.09649808,1.686867,0.4410927,-0.02485984,1.572031,NA,NA,NotTracked,Unknown,
0.3452148,-1.103027,0.253418,-0.9667969,0.2475586,-0.05859375,17,22,39,8,12,20,-13,21,0,-1,1,-2,-3,-1,-2,-1,-38.0625,-38.0625,-38.0625,-2.125,-2.125,-2.125,2.47952,4.947151,0.758938,7.80157,7.084431,7.288748,-0.04560457,-0.4057136,1.592705,0.2555788,0.01263655,1.453553,0.1735344,0.4651694,1.696143,-0.08659648,-0.3841343,1.605185,0.2204174,-0.01140766,1.519,0.1682628,-0.00532971,1.683856,0.1675404,-0.331401,1.65574,-0.02361439,0.1690427,1.688161,0.08556385,-0.3251766,1.630095,-0.04395398,-0.09581439,1.687062,0.4489614,-0.0237567,1.576402,NA,NA,NotTracked,Unknown,
0.2958984,-1.041992,0.1411133,-0.9667969,0.2475586,-0.05859375,-16,-50,-13,-11,-1,-2,-17,-13,0,-1,1,-2,-3,-1,-2,-1,-24.875,-24.875,-24.875,-2.125,-2.125,-2.125,2.456259,4.978924,0.6299391,7.80157,7.084431,7.288748,-0.04715063,-0.406737,1.591481,0.2699858,0.007095668,1.460303,0.1722103,0.4647761,1.695048,-0.08815196,-0.4290239,1.587857,0.2272743,-0.01621718,1.526923,0.168047,-0.005607031,1.683325,0.1667767,-0.3321043,1.65552,-0.02173965,0.1684005,1.687414,0.08461768,-0.3260461,1.629845,-0.04495237,-0.09572655,1.686442,0.4594745,-0.01999917,1.585713,NA,NA,NotTracked,Unknown,
0.2128906,-0.9541016,0.05664063,-0.9667969,0.2475586,-0.05859375,14,6,5,9,7,12,7,21,0,-1,1,-2,-3,-1,-2,-1,-18.125,-18.125,-18.125,-2.125,-2.125,-2.125,2.450384,4.964128,0.578063,7.80157,7.084431,7.288748,-0.04662732,-0.4085395,1.589822,0.2786146,0.006134951,1.460499,0.1716592,0.4646386,1.694288,-0.0861375,-0.420325,1.591168,0.2279976,-0.007592805,1.524302,0.1677923,-0.005914826,1.682929,0.1663739,-0.3326986,1.655315,-0.02045963,0.1682322,1.686579,0.0840244,-0.3266581,1.629388,-0.04541199,-0.09558083,1.685643,0.4630526,-0.01793768,1.589711,NA,NA,NotTracked,Unknown,
0.1459961,-1.018555,-0.001953125,-0.9667969,0.2475586,-0.05859375,-2,-9,7,9,19,36,11,11,0,-1,1,-2,-3,-1,-2,-1,0.625,0.625,0.625,-2.125,-2.125,-2.125,2.437463,4.940286,0.5472342,7.80157,7.084431,7.288748,-0.04469477,-0.4041696,1.587705,0.2832456,0.006574432,1.459007,0.1714702,0.4643881,1.693733,-0.08614618,-0.4189134,1.597475,0.2246132,-0.00935242,1.515905,0.1676864,-0.006094157,1.682616,0.1663996,-0.3331134,1.655125,-0.01880016,0.168122,1.684611,0.08395252,-0.3271143,1.628829,-0.04637078,-0.0963666,1.683139,0.462576,-0.01747503,1.590601,NA,NA,NotTracked,Closed,
0.07324219,-0.9975586,-0.02539063,-0.9667969,0.2475586,-0.05859375,7,28,-7,-10,-18,0,-3,9,0,-1,1,-2,-3,-1,-2,-1,-5.0625,-5.0625,-5.0625,-2.125,-2.125,-2.125,2.444281,4.918968,0.5320911,7.80157,7.084431,7.288748,-0.04377444,-0.4059855,1.583898,0.282618,0.005959881,1.457397,0.1714564,0.4642546,1.693178,-0.08517486,-0.4169104,1.595355,0.2265705,-0.01206776,1.521053,0.167716,-0.006222595,1.682334,0.1665943,-0.3333547,1.654976,-0.01799354,0.1681655,1.682749,0.0841229,-0.3274039,1.628153,-0.04634893,-0.09764321,1.680397,0.4607795,-0.01818519,1.591111,NA,NA,NotTracked,Unknown,
0.04443359,-0.8500977,-0.04101563,-0.9667969,0.2475586,-0.05859375,3,-41,0,-6,-6,2,5,6,0,-1,1,-2,-3,-1,-2,-1,-7.375,-7.375,-7.375,-2.125,-2.125,-2.125,2.4329,4.911633,0.521022,7.80157,7.084431,7.288748,-0.04324135,-0.4048049,1.582234,0.2808965,-0.001209727,1.453587,0.171456,0.464198,1.692922,-0.08399735,-0.4169224,1.596187,0.2286354,-0.02269362,1.515667,0.1676608,-0.006518697,1.682142,0.1667245,-0.3340923,1.654834,-0.01754443,0.1682619,1.681853,0.08407881,-0.3280494,1.627467,-0.04655018,-0.09736598,1.677931,0.4576298,-0.01877309,1.591937,NA,NA,NotTracked,Unknown,
0.02978516,-0.7543945,-0.04052734,-0.9667969,0.2475586,-0.05859375,-10,-42,-11,-8,-9,-2,33,14,0,-1,1,-2,-3,-1,-2,-1,-11.8125,-11.8125,-11.8125,-2.125,-2.125,-2.125,2.420742,4.939114,0.5076513,7.80157,7.084431,7.288748,-0.04237284,-0.4040529,1.58198,0.2779287,-0.02555178,1.446842,0.1714182,0.4641412,1.692731,-0.08274046,-0.4129151,1.594348,0.2174905,-0.04936154,1.498286,0.1675301,-0.006754407,1.682052,0.1667429,-0.3346129,1.654761,-0.01724581,0.1684119,1.681425,0.08398782,-0.3284679,1.627123,-0.04653263,-0.09785594,1.676375,0.4536152,-0.01821293,1.598879,NA,NA,NotTracked,Unknown,
-0.1186523,-0.7304688,-0.0625,-0.9667969,0.2475586,-0.05859375,-3,5,0,-4,0,-7,-19,-19,0,-1,1,-2,-3,-1,-2,-1,-24.375,-24.375,-24.375,-2.125,-2.125,-2.125,2.349764,5.169527,0.4346723,7.80157,7.084431,7.288748,-0.04272296,-0.4071914,1.580844,0.2846495,-0.07367104,1.438857,0.1712416,0.4641371,1.69275,-0.08546527,-0.420215,1.595143,0.2351869,-0.09605993,1.505,0.16749,-0.006774934,1.681994,0.166901,-0.3346088,1.654704,-0.01710488,0.1683622,1.681158,0.08411423,-0.3284791,1.626805,-0.04657719,-0.09774148,1.675459,0.4306828,-0.04191019,1.583595,NA,NA,NotTracked,Unknown,
-0.3051758,-0.84375,-0.05664063,-0.9667969,0.2475586,-0.05859375,-19,7,-1,-2,0,-10,-53,-16,0,-1,1,-2,-3,-1,-2,-1,-34.8125,-34.8125,-34.8125,-2.125,-2.125,-2.125,2.283959,5.399106,0.3676013,7.80157,7.084431,7.288748,-0.04213249,-0.406918,1.583363,0.3022397,-0.1367671,1.4375,0.1709593,0.4641625,1.692871,-0.08515328,-0.423564,1.591857,0.2514158,-0.1397626,1.510273,0.1674496,-0.006769173,1.682003,0.1670938,-0.334626,1.654715,-0.01711668,0.1681978,1.681144,0.0842143,-0.3285288,1.626704,-0.04652368,-0.09818371,1.675284,0.4306492,-0.02488833,1.657725,NA,NA,NotTracked,Unknown,
-0.4516602,-0.8852539,-0.01660156,-0.9667969,0.2475586,-0.05859375,4,2,2,-2,24,11,1,-1,0,-1,1,-2,-3,-1,-2,-1,-66.0625,-66.0625,-66.0625,-2.125,-2.125,-2.125,2.181141,5.652928,0.2981457,7.80157,7.084431,7.288748,-0.04192171,-0.4075863,1.585473,0.3045898,-0.2138078,1.445254,0.1703327,0.4642535,1.693181,-0.08342035,-0.4226525,1.598148,0.2619886,-0.2104452,1.525212,0.1670013,-0.006888572,1.681984,0.1666218,-0.3349136,1.654602,-0.01725759,0.1679929,1.681334,0.08359788,-0.3287771,1.626442,-0.04655354,-0.09899203,1.675669,0.4236369,-0.03228074,1.658991,NA,NA,NotTracked,Unknown,
-0.5078125,-0.815918,-0.09277344,-0.9667969,0.2475586,-0.05859375,-2,-49,2,7,-9,7,8,7,0,-1,1,-2,-3,-1,-2,-1,-90.4375,-90.4375,-90.4375,-2.125,-2.125,-2.125,2.071207,5.834567,0.2628577,7.80157,7.084431,7.288748,-0.04055332,-0.4084307,1.588486,0.3128359,-0.2896551,1.46118,0.16923,0.4645302,1.693973,-0.07895161,-0.4079579,1.598111,0.2810327,-0.3094489,1.526935,0.1662148,-0.007111735,1.681942,0.1656404,-0.335439,1.654436,-0.01743614,0.1676174,1.681807,0.08196341,-0.3289807,1.626032,-0.04632252,-0.09971379,1.676519,0.4057829,-0.05968983,1.657543,NA,NA,NotTracked,Unknown,
-0.965332,-0.7915039,-0.5214844,-0.9667969,0.2475586,-0.05859375,-4,-18,-2,-4,0,-39,-43,1,0,-1,1,-2,-3,-1,-2,-1,-71.25,-71.25,-71.25,-2.125,-2.125,-2.125,1.761297,6.333738,0.1090179,7.80157,7.084431,7.288748,-0.03931138,-0.408111,1.591291,0.326288,-0.3679878,1.458145,0.1679291,0.4646882,1.695307,-0.07825252,-0.4164637,1.602934,0.2860388,-0.3390285,1.442857,0.1661835,-0.007227662,1.681977,0.1659123,-0.3359521,1.654547,-0.01751101,0.1671254,1.682206,0.08205757,-0.3293097,1.626004,-0.0460755,-0.101152,1.677406,0.3928688,-0.07438966,1.652629,NA,NA,NotTracked,Unknown,
-1.094727,-0.71875,-0.4482422,-0.9667969,0.2475586,-0.05859375,-8,-21,2,4,-12,-28,-117,-10,0,-1,1,-2,-3,-1,-2,-1,-17.375,-17.375,-17.375,-2.125,-2.125,-2.125,1.58177,6.573526,9.944816,7.80157,7.084431,7.288748,-0.03884323,-0.4116013,1.590691,0.3367982,-0.3966516,1.493415,0.1671341,0.4650556,1.696245,-0.07846852,-0.420725,1.602818,0.2871702,-0.3932714,1.479389,0.1662488,-0.007339935,1.681976,0.1668145,-0.3366041,1.654671,-0.0175837,0.1670122,1.682431,0.08279742,-0.3298513,1.625826,-0.04595782,-0.1018346,1.678197,0.3843402,-0.08398665,1.64911,NA,NA,NotTracked,Unknown,
-0.9267578,-0.5727539,-0.378418,-0.9667969,0.2475586,-0.05859375,5,-49,-7,-16,49,8,64,1,0,-1,1,-2,-3,-1,-2,-1,148.3125,148.3125,148.3125,-2.125,-2.125,-2.125,1.578381,6.773667,9.750669,7.80157,7.084431,7.288748,-0.03870326,-0.411835,1.589799,0.3362341,-0.4064985,1.525491,0.1665309,0.4657394,1.697352,-0.08010069,-0.4251386,1.600875,0.2933777,-0.4016511,1.504539,0.1662686,-0.007337218,1.681944,0.1671593,-0.3367952,1.654832,-0.01765797,0.1670004,1.6825,0.08312006,-0.3300546,1.625801,-0.04597825,-0.1021316,1.678656,0.3790478,-0.08503966,1.645367,NA,NA,NotTracked,Unknown,
-0.9389648,-0.4672852,-0.3999023,-0.9667969,0.2475586,-0.05859375,-9,57,-6,-1,-10,-52,-17,-23,0,-1,1,-2,-3,-1,-2,-1,38.5625,38.5625,38.5625,-2.125,-2.125,-2.125,1.589179,6.822804,9.677487,7.80157,7.084431,7.288748,-0.04016731,-0.4120603,1.591272,0.3380048,-0.39599,1.53909,0.1661638,0.4668179,1.698626,-0.07955077,-0.4150168,1.600436,0.2957454,-0.4054109,1.509,0.1662514,-0.007314982,1.681911,0.1673903,-0.3369474,1.655121,-0.01770836,0.1669898,1.682501,0.08329594,-0.3301666,1.625942,-0.04612872,-0.1020226,1.679203,0.3767428,-0.08554873,1.644027,NA,NA,NotTracked,Unknown,
-0.909668,-0.2119141,-0.3393555,-0.9667969,0.2475586,-0.05859375,1,-61,-3,-2,-7,-20,15,0,0,-1,1,-2,-3,-1,-2,-1,-95.375,-95.375,-95.375,-2.125,-2.125,-2.125,1.466937,6.851469,9.619893,7.80157,7.084431,7.288748,-0.04133794,-0.4120705,1.592244,0.340127,-0.4010537,1.536342,0.1658233,0.4677007,1.699367,-0.08046467,-0.4169019,1.60081,0.2941808,-0.404826,1.51425,0.1662205,-0.007242362,1.681848,0.1677024,-0.3370298,1.655587,-0.01775904,0.1670627,1.682315,0.08353543,-0.3302564,1.626186,-0.04631074,-0.1020488,1.679298,0.3757818,-0.08695461,1.643185,NA,NA,NotTracked,NotTracked,
-0.824707,-0.5576172,-0.2651367,-0.9667969,0.2475586,-0.05859375,4,10,3,7,26,4,23,4,0,-1,1,-2,-3,-1,-2,-1,-109.5,-109.5,-109.5,-2.125,-2.125,-2.125,1.276797,6.827152,9.784406,7.80157,7.084431,7.288748,-0.04208116,-0.4123786,1.591518,0.342402,-0.4100859,1.529503,0.1654451,0.4687107,1.700459,-0.08083494,-0.4176574,1.600773,0.2974886,-0.4058408,1.506835,0.1662519,-0.00722118,1.681825,0.1681129,-0.3373442,1.656108,-0.01777527,0.1671124,1.682222,0.08392204,-0.3305618,1.626507,-0.04674317,-0.1033348,1.67896,0.3752834,-0.08804595,1.643091,NA,NA,NotTracked,NotTracked,
-0.9160156,-0.3935547,-0.2602539,-0.9667969,0.2475586,-0.05859375,-8,-20,1,-2,-6,-8,-15,-13,0,-1,1,-2,-3,-1,-2,-1,32.5625,32.5625,32.5625,-2.125,-2.125,-2.125,1.304837,6.814285,9.814981,7.80157,7.084431,7.288748,-0.04291129,-0.4127413,1.59116,0.3433031,-0.4137857,1.526045,0.1652177,0.4689733,1.700608,-0.08429737,-0.4195092,1.601285,0.2973031,-0.4091639,1.506805,0.1662094,-0.007118934,1.68178,0.1682228,-0.3373391,1.656337,-0.02226657,0.1666023,1.682195,0.08404771,-0.3305895,1.626605,-0.04730221,-0.1037807,1.678943,0.3748988,-0.08847631,1.642889,NA,NA,NotTracked,NotTracked,
-0.9462891,-0.1655273,-0.2788086,-0.9667969,0.2475586,-0.05859375,-3,-29,-4,-4,-4,8,-4,-6,0,-1,1,-2,-3,-1,-2,-1,12.75,12.75,12.75,-2.125,-2.125,-2.125,1.317572,6.82935,9.779579,7.80157,7.084431,7.288748,-0.04294443,-0.4127822,1.590976,0.3416893,-0.4128193,1.525984,0.1647158,0.4693268,1.700979,-0.08350439,-0.4249201,1.598859,0.2963706,-0.4078415,1.506154,0.1661848,-0.007098916,1.681786,0.1683455,-0.3374285,1.656667,-0.02189215,0.1666694,1.682048,0.08417338,-0.3306865,1.626785,-0.04746334,-0.1039078,1.678972,0.3741364,-0.08867627,1.6424,NA,NA,NotTracked,NotTracked,
-0.9155273,-0.3354492,-0.2861328,-0.9667969,0.2475586,-0.05859375,5,7,0,12,9,-1,3,5,0,-1,1,-2,-3,-1,-2,-1,7.4375,7.4375,7.4375,-2.125,-2.125,-2.125,1.288586,6.826945,9.748531,7.80157,7.084431,7.288748,-0.04294407,-0.4124369,1.590605,0.3393405,-0.4153125,1.526162,0.164051,0.4695271,1.70152,-0.08209621,-0.422291,1.59768,0.2956723,-0.4053044,1.505815,0.166073,-0.007080295,1.681777,0.1683549,-0.3374873,1.656749,-0.0217691,0.1668234,1.681826,0.08419893,-0.3307624,1.626828,-0.04793941,-0.1039557,1.678716,0.3728515,-0.08848667,1.641592,NA,NA,NotTracked,NotTracked,
-0.9052734,-0.3076172,-0.331543,-0.9667969,0.2475586,-0.05859375,7,11,-2,0,-6,-1,-3,-1,0,-1,1,-2,-3,-1,-2,-1,28.9375,28.9375,28.9375,-2.125,-2.125,-2.125,1.296761,6.82855,9.710607,7.80157,7.084431,7.288748,-0.04328107,-0.4125746,1.591162,0.337707,-0.4147049,1.526619,0.1631837,0.4698338,1.702341,-0.08274511,-0.4298972,1.592278,0.295729,-0.404488,1.506106,0.1657579,-0.007094902,1.681795,0.1682804,-0.3376294,1.656908,-0.02176722,0.166828,1.681828,0.08413167,-0.3309149,1.626917,-0.04845504,-0.1041782,1.678694,0.371694,-0.08872654,1.64124,NA,NA,NotTracked,NotTracked,
-0.9130859,-0.3012695,-0.3120117,-0.9667969,0.2475586,-0.05859375,0,3,0,-3,0,-1,-1,0,0,-1,1,-2,-3,-1,-2,-1,-0.9375,-0.9375,-0.9375,-2.125,-2.125,-2.125,1.301742,6.826056,9.693744,7.80157,7.084431,7.288748,-0.04350038,-0.4124222,1.59091,0.3384072,-0.4147343,1.527179,0.1624132,0.4700863,1.702954,-0.08507693,-0.4291653,1.597685,0.2971075,-0.4040653,1.505793,0.1653149,-0.007051295,1.681882,0.1681252,-0.3376984,1.657013,-0.02190273,0.1667963,1.681974,0.08396488,-0.3309962,1.62701,-0.04899798,-0.1047997,1.678801,0.3709943,-0.08874997,1.641018,NA,NA,NotTracked,NotTracked,
-0.9052734,-0.3120117,-0.3022461,-0.9667969,0.2475586,-0.05859375,5,-3,-2,0,1,-1,-4,-2,0,-1,1,-2,-3,-1,-2,-1,-13.4375,-13.4375,-13.4375,-2.125,-2.125,-2.125,1.290066,6.825791,9.699411,7.80157,7.084431,7.288748,-0.04357734,-0.4133107,1.592297,0.3392037,-0.4160519,1.527067,0.1617385,0.4702745,1.703179,-0.08320284,-0.4174303,1.600673,0.2966518,-0.4057387,1.506135,0.1650219,-0.007022481,1.681961,0.168063,-0.3378513,1.657202,-0.02204247,0.1667564,1.682155,0.08389352,-0.3311685,1.627155,-0.04946331,-0.1051837,1.679117,0.3705074,-0.08898046,1.640996,NA,NA,NotTracked,NotTracked,
-0.9135742,-0.3168945,-0.2763672,-0.9667969,0.2475586,-0.05859375,-4,-14,-2,2,-1,2,-4,0,0,-1,1,-2,-3,-1,-2,-1,-4.0625,-4.0625,-4.0625,-2.125,-2.125,-2.125,1.293265,6.830798,9.724999,7.80157,7.084431,7.288748,-0.04315247,-0.4134154,1.592475,0.3396619,-0.4162516,1.527818,0.1611538,0.4703087,1.703282,-0.08343571,-0.4210894,1.601659,0.2966533,-0.4068419,1.50712,0.1648827,-0.007016785,1.682019,0.1680007,-0.3379587,1.657382,-0.02219925,0.1666347,1.682225,0.08382795,-0.3313548,1.627381,-0.04968273,-0.105405,1.679267,0.3701584,-0.08936391,1.64085,NA,NA,NotTracked,NotTracked,
