ALX,ALY,ALZ,ARX,ARY,ARZ,EMG0L,EMG1L,EMG2L,EMG3L,EMG4L,EMG5L,EMG6L,EMG7L,EMG0R,EMG1R,EMG2R,EMG3R,EMG4R,EMG5R,EMG6R,EMG7R,GLX,GLY,GLZ,GRX,GRY,GRZ,ORL,OPL,OYL,ORR,OPR,OYR,LHNX,LHNY,LHNZ,RHNX,RHNY,RHNZ,HX,HY,HZ,LTX,LTY,LTZ,RTX,RTY,RTZ,SpineMidX,SpineMidY,SpineMidZ,SpineBaseX,SpineBaseY,SpineBaseZ,ShoulderLeftX,ShoulderLeftY,ShoulderLeftZ,ShoulderRightX,ShoulderRightY,ShoulderRightZ,ElbowLeftX,ElbowLeftY,ElbowLeftZ,ElbowRightX,ElbowRightY,ElbowRightZ,Myo_Pose_left,Myo_Pose_Right,Kinect_pose_left,Kinect_pose_right
-0.909668,-0.3378906,-0.2851563,-0.9667969,0.2475586,-0.05859375,1,28,0,-1,-1,0,-1,5,0,-1,1,-2,-3,-1,-2,-1,0.0625,0.0625,0.0625,-2.125,-2.125,-2.125,1.43724,6.817779,9.886797,7.80157,7.084431,7.288748,-0.04273957,-0.4132142,1.592953,0.3379594,-0.416095,1.526751,0.1642908,0.4661377,1.709399,-0.08359516,-0.4262871,1.603792,0.2939895,-0.4135797,1.50689,0.1656725,-0.008954303,1.687302,0.1685826,-0.3399742,1.660439,-0.02267801,0.1661338,1.688563,0.08431526,-0.333171,1.6302,-0.04952625,-0.105284,1.684652,0.3704055,-0.08944468,1.643457,NA,NA,NotTracked,NotTracked,
-0.9091797,-0.3330078,-0.2875977,-0.9667969,0.2475586,-0.05859375,-1,86,0,-1,0,-2,-12,-7,0,-1,1,-2,-3,-1,-2,-1,-1.125,-1.125,-1.125,-2.125,-2.125,-2.125,1.436055,6.817338,9.888142,7.80157,7.084431,7.288748,-0.04304866,-0.4134195,1.594144,0.3387298,-0.4167823,1.527204,0.1642838,0.466069,1.7093,-0.08249691,-0.4172497,1.605534,0.2941369,-0.412999,1.507454,0.1656793,-0.008990417,1.687265,0.1686025,-0.3400018,1.660351,-0.02228995,0.1661169,1.68859,0.08432718,-0.3332093,1.630141,-0.04943076,-0.1052152,1.684666,0.3704628,-0.08959389,1.643303,NA,NA,NotTracked,NotTracked,
-0.9033203,-0.3354492,-0.284668,-0.9667969,0.2475586,-0.05859375,7,49,-2,0,-1,1,5,2,0,-1,1,-2,-3,-1,-2,-1,0.875,0.875,0.875,-2.125,-2.125,-2.125,1.43827,6.817418,9.890421,7.80157,7.084431,7.288748,-0.04302307,-0.4133016,1.593312,0.3387003,-0.4164119,1.526881,0.1642917,0.4660128,1.70924,-0.08396944,-0.4212736,1.609183,0.2954808,-0.4104067,1.508369,0.1656926,-0.00907445,1.687207,0.1686356,-0.3401678,1.660184,-0.02201068,0.166047,1.688548,0.08434591,-0.3333738,1.630003,-0.04938262,-0.1053572,1.68454,0.3705382,-0.08957125,1.643128,NA,NA,NotTracked,NotTracked,
-0.9023438,-0.3344727,-0.2836914,-0.9667969,0.2475586,-0.05859375,3,-42,-1,0,0,-1,-7,-4,0,-1,1,-2,-3,-1,-2,-1,0,0,0,-2.125,-2.125,-2.125,1.441684,6.817081,9.893989,7.80157,7.084431,7.288748,-0.04281316,-0.4130756,1.592636,0.3387752,-0.4162377,1.525751,0.1642647,0.4659033,1.709087,-0.08383262,-0.4216349,1.616,0.2943015,-0.4124427,1.507198,0.1656833,-0.009165159,1.687113,0.1686288,-0.3402784,1.660001,-0.02170705,0.1660275,1.688573,0.08432363,-0.3334632,1.629816,-0.04935234,-0.1054621,1.684381,0.370493,-0.08969211,1.642943,NA,NA,NotTracked,NotTracked,
-0.909668,-0.3339844,-0.2875977,-0.9667969,0.2475586,-0.05859375,6,-25,-4,1,0,-4,-1,2,0,-1,1,-2,-3,-1,-2,-1,-2.375,-2.375,-2.375,-2.125,-2.125,-2.125,1.444076,6.815792,9.901106,7.80157,7.084431,7.288748,-0.04310072,-0.4132139,1.592634,0.3389055,-0.4160582,1.52577,0.1642127,0.4659052,1.709043,-0.08345331,-0.419752,1.606605,0.2943942,-0.4126826,1.507002,0.1656767,-0.009200816,1.687027,0.1686068,-0.340331,1.659782,-0.02151512,0.1660454,1.68868,0.08428204,-0.3335158,1.629556,-0.04941266,-0.1054689,1.684326,0.3705693,-0.08960285,1.642739,NA,NA,NotTracked,NotTracked,
-0.9121094,-0.3364258,-0.2802734,-0.9667969,0.2475586,-0.05859375,2,-25,-1,-5,-3,-3,1,-5,0,-1,1,-2,-3,-1,-2,-1,0.125,0.125,0.125,-2.125,-2.125,-2.125,1.44569,6.814777,9.905503,7.80157,7.084431,7.288748,-0.04339194,-0.4127766,1.593011,0.3384177,-0.4158925,1.524136,0.1642077,0.4658956,1.709046,-0.08337343,-0.4207545,1.604673,0.2951609,-0.411222,1.505985,0.1656341,-0.009266809,1.68693,0.1685664,-0.3404463,1.659562,-0.02132922,0.1659388,1.688781,0.08423083,-0.3336363,1.629318,-0.04938089,-0.1056568,1.68429,0.3705521,-0.08972291,1.642424,NA,NA,NotTracked,NotTracked,
-0.9555664,-0.59375,-0.4541016,-0.9667969,0.2475586,-0.05859375,10,-62,-1,1,1,23,-128,-11,0,-1,1,-2,-3,-1,-2,-1,-50,-50,-50,-2.125,-2.125,-2.125,1.402448,6.767336,9.912262,7.80157,7.084431,7.288748,-0.04284611,-0.4124105,1.591099,0.331777,-0.4070569,1.512022,0.1641712,0.4658382,1.709088,-0.08493488,-0.4243908,1.605208,0.295828,-0.3948438,1.491976,0.1655512,-0.00934594,1.686714,0.1683722,-0.3405079,1.659213,-0.02127037,0.1659173,1.68881,0.08402846,-0.3336582,1.628993,-0.04936306,-0.1056605,1.684264,0.37112,-0.08964737,1.642496,NA,NA,NotTracked,NotTracked,
-1.11377,-0.8891602,-0.574707,-0.9667969,0.2475586,-0.05859375,-4,-41,14,2,15,17,59,-2,0,-1,1,-2,-3,-1,-2,-1,97.3125,97.3125,97.3125,-2.125,-2.125,-2.125,1.753469,6.534812,0.2426854,7.80157,7.084431,7.288748,-0.04384967,-0.4128193,1.591207,0.3060269,-0.3405773,1.484412,0.1641394,0.4658646,1.709034,-0.08668774,-0.4256071,1.604535,0.2701361,-0.3303699,1.4955,0.1649211,-0.009218911,1.686396,0.1663301,-0.339954,1.658634,-0.02119895,0.1659393,1.688833,0.08169761,-0.3329016,1.628689,-0.04940411,-0.1058318,1.684241,0.3744478,-0.08650894,1.644952,NA,NA,NotTracked,Unknown,
-0.9526367,-1.413086,-0.1269531,-0.9667969,0.2475586,-0.05859375,-20,-30,2,0,-11,7,-58,-53,0,-1,1,-2,-3,-1,-2,-1,157.6875,157.6875,157.6875,-2.125,-2.125,-2.125,2.241958,5.949156,0.6036785,7.80157,7.084431,7.288748,-0.04397957,-0.4095481,1.594116,0.243653,-0.2453576,1.4661,0.1642001,0.4658887,1.708958,-0.08392519,-0.4210529,1.60298,0.2569858,-0.3043399,1.511167,0.16403,-0.009034106,1.686153,0.1639655,-0.3393846,1.658543,-0.02388349,0.1654718,1.688377,0.07923209,-0.3320433,1.628748,-0.04947271,-0.1058202,1.684279,0.3872431,-0.06391481,1.64512,NA,NA,NotTracked,Unknown,
-0.5571289,-1.05127,0.1264648,-0.9667969,0.2475586,-0.05859375,-34,-59,21,6,20,15,-34,-43,0,-1,1,-2,-3,-1,-2,-1,167.5,167.5,167.5,-2.125,-2.125,-2.125,2.510106,5.615919,0.782707,7.80157,7.084431,7.288748,-0.04424726,-0.4094902,1.594309,0.1964812,-0.1230924,1.459557,0.1644013,0.466042,1.708683,-0.08330432,-0.4201731,1.596007,0.1715409,-0.06730773,1.506733,0.1640569,-0.00886865,1.686161,0.164231,-0.3389108,1.658833,-0.02199836,0.1658038,1.68756,0.07979916,-0.3318106,1.629091,-0.04934341,-0.105395,1.684271,0.3974168,-0.02851461,1.636841,NA,NA,NotTracked,Unknown,
-0.1728516,-0.5097656,0.02441406,-0.9667969,0.2475586,-0.05859375,30,4,26,-4,-11,-16,97,-1,0,-1,1,-2,-3,-1,-2,-1,89.4375,89.4375,89.4375,-2.125,-2.125,-2.125,2.861956,4.999733,1.138611,7.80157,7.084431,7.288748,-0.04354042,-0.4100346,1.594554,0.1506758,-0.01546012,1.460592,0.1649561,0.4660212,1.70841,-0.08319998,-0.4165416,1.603783,0.1487526,0.03262798,1.483636,0.1643359,-0.008410055,1.68638,0.1647039,-0.337535,1.659315,-0.02000222,0.166496,1.6873,0.08072147,-0.3304615,1.629689,-0.04928013,-0.105086,1.683921,0.3966786,-0.0243714,1.609891,NA,NA,NotTracked,Unknown,
0.0234375,-0.5800781,0.144043,-0.9667969,0.2475586,-0.05859375,6,1,-1,4,1,-4,-65,13,0,-1,1,-2,-3,-1,-2,-1,-37.0625,-37.0625,-37.0625,-2.125,-2.125,-2.125,2.82433,4.612495,1.37112,7.80157,7.084431,7.288748,-0.04236,-0.4090182,1.592722,0.1270053,0.04464065,1.470515,0.1660666,0.4658656,1.70835,-0.08299936,-0.4193841,1.604206,0.1304598,-0.0006954633,1.541111,0.1646954,-0.008249468,1.686726,0.1652107,-0.3368086,1.659633,-0.01931337,0.1671361,1.687155,0.08187092,-0.3295103,1.630767,-0.04884237,-0.1047084,1.683578,0.3836429,-0.02276823,1.583204,NA,NA,NotTracked,Unknown,
0.008300781,-0.703125,0.1079102,-0.9667969,0.2475586,-0.05859375,27,-8,-5,2,-91,4,-40,60,0,-1,1,-2,-3,-1,-2,-1,6.5,6.5,6.5,-2.125,-2.125,-2.125,2.737174,4.343461,1.644262,7.80157,7.084431,7.288748,-0.04072153,-0.4082538,1.58993,0.1025557,0.07928515,1.475715,0.1671927,0.4658129,1.708437,-0.08009798,-0.4161073,1.603204,0.07563999,0.05863586,1.536,0.164214,-0.008088813,1.687263,0.1657629,-0.3361523,1.65975,-0.02355999,0.166788,1.686336,0.08287735,-0.3289993,1.631417,-0.04779372,-0.1035311,1.683248,0.3574106,-0.03127305,1.552871,NA,NA,NotTracked,Unknown,
0.01269531,-0.9116211,0.06738281,-0.9667969,0.2475586,-0.05859375,27,-17,17,15,-12,10,105,40,0,-1,1,-2,-3,-1,-2,-1,-18,-18,-18,-2.125,-2.125,-2.125,2.641623,4.283583,1.790099,7.80157,7.084431,7.288748,-0.03990301,-0.4087261,1.590868,0.0972281,0.08396625,1.481224,0.1681253,0.4656748,1.708541,-0.08064728,-0.4217807,1.603341,0.1469847,0.08797949,1.553714,0.1631805,-0.008153869,1.687917,0.1663215,-0.3356103,1.659858,-0.02713245,0.1661834,1.685497,0.08372403,-0.3287126,1.631825,-0.04727764,-0.1028795,1.683668,0.3418303,-0.02182059,1.539114,NA,NA,NotTracked,Unknown,
0.2006836,-0.8657227,-0.05273438,-0.9667969,0.2475586,-0.05859375,-15,-41,2,0,15,10,-11,-3,0,-1,1,-2,-3,-1,-2,-1,-6.9375,-6.9375,-6.9375,-2.125,-2.125,-2.125,2.577431,4.283699,1.901345,7.80157,7.084431,7.288748,-0.04137694,-0.4099114,1.593642,0.0951791,0.08550842,1.480609,0.1685159,0.46565,1.708544,-0.07836444,-0.4144021,1.601571,0.1152347,0.06392714,1.5472,0.1622047,-0.008270414,1.688254,0.1663788,-0.3354154,1.659836,-0.02906553,0.1655569,1.68494,0.08387353,-0.3286127,1.631979,-0.04674923,-0.1025827,1.684304,0.3403986,-0.01036732,1.535756,NA,NA,NotTracked,Unknown,
0.2900391,-0.9848633,-0.03564453,-0.9667969,0.2475586,-0.05859375,37,9,18,11,10,12,17,42,0,-1,1,-2,-3,-1,-2,-1,-3.8125,-3.8125,-3.8125,-2.125,-2.125,-2.125,2.53928,4.295065,1.925313,7.80157,7.084431,7.288748,-0.04143849,-0.410912,1.596442,0.107206,0.07491184,1.472271,0.1685774,0.4655817,1.708612,-0.07844129,-0.3989591,1.605,0.1060042,0.04211061,1.512467,0.1613269,-0.008346876,1.688522,0.1664034,-0.3352693,1.659795,-0.03042358,0.1649021,1.684926,0.08401563,-0.3285943,1.63223,-0.04630684,-0.1027208,1.685878,0.3400498,-0.007099779,1.5344,NA,NA,NotTracked,Unknown,
0.2636719,-0.9052734,-0.04345703,-0.9667969,0.2475586,-0.05859375,-5,50,11,9,6,0,27,-12,0,-1,1,-2,-3,-1,-2,-1,-8.875,-8.875,-8.875,-2.125,-2.125,-2.125,2.541214,4.321994,1.909294,7.80157,7.084431,7.288748,-0.04186845,-0.4038641,1.599932,0.1096313,0.07647627,1.469679,0.1685555,0.4655451,1.708609,-0.08067068,-0.4343808,1.598286,0.1020641,0.04863857,1.508765,0.1618967,-0.008085782,1.688424,0.1662397,-0.3350057,1.659714,-0.03125424,0.164714,1.684871,0.08396163,-0.3285146,1.632439,-0.04612915,-0.1026609,1.686553,0.3409926,-0.00585934,1.533339,NA,NA,NotTracked,Unknown,
0.1230469,-0.9487305,-0.02636719,-0.9667969,0.2475586,-0.05859375,-7,-6,1,-4,0,-2,10,-3,0,-1,1,-2,-3,-1,-2,-1,-18.25,-18.25,-18.25,-2.125,-2.125,-2.125,2.524572,4.366347,1.860542,7.80157,7.084431,7.288748,-0.04216325,-0.4027623,1.598103,0.09176275,0.09645277,1.478669,0.1682787,0.465513,1.708449,-0.07815666,-0.4013585,1.611374,0.07857464,0.06707519,1.534687,0.1607935,-0.008186687,1.688516,0.165929,-0.3347586,1.65954,-0.03179682,0.1647832,1.685084,0.08377758,-0.3283881,1.632491,-0.04597842,-0.1016016,1.687745,0.3442841,-0.006612328,1.533838,NA,NA,NotTracked,Unknown,
0.1879883,-1.013184,-0.05175781,-0.9667969,0.2475586,-0.05859375,-7,58,3,5,2,-5,2,-8,0,-1,1,-2,-3,-1,-2,-1,-19.5,-19.5,-19.5,-2.125,-2.125,-2.125,2.50024,4.455428,1.744784,7.80157,7.084431,7.288748,-0.04313107,-0.4026897,1.596159,0.06250986,0.1114523,1.511937,0.1676982,0.4654875,1.708258,-0.08171774,-0.4180457,1.6088,0.04190255,0.09738918,1.557768,0.1596222,-0.008313472,1.68845,0.1653568,-0.3345719,1.659242,-0.03256221,0.1649643,1.685616,0.0832823,-0.3282646,1.632489,-0.04611221,-0.1016622,1.68788,0.3560837,-0.01924594,1.53371,NA,NA,NotTracked,Unknown,
0.1245117,-1.068848,0.1362305,-0.9667969,0.2475586,-0.05859375,-31,17,-4,-3,-4,10,21,-44,0,-1,1,-2,-3,-1,-2,-1,-50.4375,-50.4375,-50.4375,-2.125,-2.125,-2.125,2.49974,4.540112,1.613146,7.80157,7.084431,7.288748,-0.04559065,-0.4021457,1.595322,0.08306024,0.1006226,1.510842,0.1665804,0.465446,1.707608,-0.08236004,-0.3944242,1.612313,0.1217819,0.136342,1.570688,0.1593618,-0.008087187,1.688244,0.1649964,-0.3341459,1.659008,-0.03309084,0.1649769,1.686188,0.08309858,-0.3281136,1.632458,-0.04685974,-0.1022004,1.68744,0.3762924,-0.03025061,1.540663,NA,NA,NotTracked,Unknown,
0.1518555,-1.122559,0.09814453,-0.9667969,0.2475586,-0.05859375,7,52,3,8,9,20,-36,45,0,-1,1,-2,-3,-1,-2,-1,-22.625,-22.625,-22.625,-2.125,-2.125,-2.125,2.480816,4.665087,1.413346,7.80157,7.084431,7.288748,-0.04629363,-0.4015746,1.594169,0.1575764,0.06375203,1.471664,0.1650099,0.4649736,1.706353,-0.08389203,-0.3875778,1.609353,0.1643398,0.02389501,1.530385,0.1589959,-0.00799509,1.68797,0.1646797,-0.3339995,1.658858,-0.02913573,0.1661966,1.687899,0.08280629,-0.3280167,1.632334,-0.04750703,-0.1023697,1.68707,0.4029562,-0.0302542,1.552544,NA,NA,NotTracked,Unknown,
0.3530273,-1.02002,0.1162109,-0.9667969,0.2475586,-0.05859375,-4,-57,-13,-14,0,-17,-22,-1,0,-1,1,-2,-3,-1,-2,-1,-26.9375,-26.9375,-26.9375,-2.125,-2.125,-2.125,2.472663,4.762958,1.261497,7.80157,7.084431,7.288748,-0.0485655,-0.404948,1.593002,0.2274285,0.03481307,1.459809,0.1631051,0.4649685,1.704742,-0.09211133,-0.4254707,1.6074,0.2133703,0.002906688,1.527818,0.1590471,-0.007884037,1.687446,0.1639931,-0.3341596,1.658642,-0.02797368,0.1665567,1.68819,0.08196306,-0.3281721,1.632067,-0.04847956,-0.1021685,1.68633,0.4220886,-0.02753755,1.564019,NA,NA,NotTracked,Unknown,
0.3339844,-1.031738,0.1206055,-0.9667969,0.2475586,-0.05859375,-30,46,3,-3,12,2,11,-42,0,-1,1,-2,-3,-1,-2,-1,-32,-32,-32,-2.125,-2.125,-2.125,2.456267,4.851928,1.117768,7.80157,7.084431,7.288748,-0.0485705,-0.4048446,1.591767,0.2396426,0.02770816,1.465126,0.1616155,0.464837,1.702667,-0.08866201,-0.3973266,1.6076,0.2131638,0.00315675,1.527607,0.1591273,-0.007866002,1.686575,0.1634497,-0.3344509,1.658213,-0.02749828,0.1662012,1.68798,0.08126765,-0.3284863,1.631445,-0.04973461,-0.1024968,1.684869,0.4402321,-0.02376046,1.579084,NA,NA,NotTracked,Unknown,
0.3208008,-1.020996,0.06982422,-0.9667969,0.2475586,-0.05859375,15,-57,4,6,9,17,27,20,0,-1,1,-2,-3,-1,-2,-1,-3,-3,-3,-2.125,-2.125,-2.125,2.449394,4.934051,0.9653134,7.80157,7.084431,7.288748,-0.04964111,-0.4039184,1.590934,0.2578036,0.0195399,1.46688,0.1606386,0.4643726,1.700048,-0.08700783,-0.4106939,1.594316,0.2142692,0.003180089,1.527594,0.1592113,-0.007772482,1.685162,0.1630556,-0.3345579,1.657669,-0.02670039,0.1659178,1.686455,0.08076499,-0.3286218,1.630774,-0.05102992,-0.1023396,1.682868,0.454345,-0.01746118,1.592334,NA,NA,NotTracked,Unknown,
0.2392578,-1.070801,0.06152344,-0.9667969,0.2475586,-0.05859375,-13,14,-12,-13,-2,-10,13,-13,0,-1,1,-2,-3,-1,-2,-1,-25.4375,-25.4375,-25.4375,-2.125,-2.125,-2.125,2.420374,4.947717,0.886879,7.80157,7.084431,7.288748,-0.04955325,-0.4051663,1.591189,0.2673644,0.01622738,1.468337,0.1602785,0.4640028,1.69825,-0.0869926,-0.4070005,1.599136,0.2242949,0.001073422,1.524733,0.1593751,-0.007900068,1.68441,0.1628725,-0.3349633,1.657308,-0.02601579,0.1659455,1.684455,0.08034184,-0.3291127,1.629943,-0.05169496,-0.1020349,1.68128,0.4595952,-0.01442892,1.599182,NA,NA,NotTracked,Unknown,
0.1914063,-0.9628906,-0.002441406,-0.9667969,0.2475586,-0.05859375,1,45,10,12,17,4,0,-12,0,-1,1,-2,-3,-1,-2,-1,-3.4375,-3.4375,-3.4375,-2.125,-2.125,-2.125,2.418474,4.939765,0.8478454,7.80157,7.084431,7.288748,-0.04866686,-0.4057518,1.586946,0.2734649,0.01501413,1.467033,0.1601101,0.4637102,1.696626,-0.08759023,-0.4139507,1.594616,0.2165136,0.004078342,1.523055,0.1597493,-0.007986987,1.683602,0.1628765,-0.335115,1.656996,-0.02489637,0.1661023,1.681828,0.08026588,-0.3293575,1.629279,-0.05242453,-0.101604,1.678586,0.4617773,-0.0142275,1.60065,NA,NA,NotTracked,Unknown,
0.1015625,-0.9819336,-0.002929688,-0.9667969,0.2475586,-0.05859375,-10,4,9,5,8,33,-10,18,0,-1,1,-2,-3,-1,-2,-1,-10.9375,-10.9375,-10.9375,-2.125,-2.125,-2.125,2.410337,4.922301,0.8349247,7.80157,7.084431,7.288748,-0.04713092,-0.4055377,1.5838,0.2733122,0.01280792,1.467002,0.1603722,0.463495,1.695702,-0.08541414,-0.4205581,1.581833,0.2207041,0.001173005,1.528496,0.1601853,-0.008043524,1.683107,0.1631179,-0.3351966,1.656768,-0.02419998,0.1660675,1.680133,0.08053297,-0.3294593,1.628628,-0.05275083,-0.1011992,1.675742,0.4621293,-0.01438863,1.6014,NA,NA,NotTracked,Unknown,
0.0625,-1.001465,-0.08740234,-0.9667969,0.2475586,-0.05859375,-16,-64,-7,-10,-23,-11,9,11,0,-1,1,-2,-3,-1,-2,-1,8.1875,8.1875,8.1875,-2.125,-2.125,-2.125,2.416579,4.922266,0.843947,7.80157,7.084431,7.288748,-0.04670342,-0.4048461,1.580978,0.2722062,0.009427632,1.464052,0.1608291,0.463376,1.695078,-0.08592304,-0.4150895,1.588315,0.2229418,-0.001949071,1.523997,0.1604845,-0.008210898,1.682694,0.163347,-0.3355634,1.656537,-0.0233468,0.1663593,1.678451,0.08069451,-0.3297632,1.62791,-0.05302938,-0.1005006,1.672981,0.4615018,-0.01449775,1.60167,NA,NA,NotTracked,Unknown,
-0.0004882813,-1.029785,-0.03759766,-0.9667969,0.2475586,-0.05859375,-3,-47,-8,2,6,-3,0,4,0,-1,1,-2,-3,-1,-2,-1,-6.25,-6.25,-6.25,-2.125,-2.125,-2.125,2.40941,4.919578,0.8550258,7.80157,7.084431,7.288748,-0.04679008,-0.4034807,1.582493,0.2712438,0.005925754,1.462947,0.1611837,0.4633691,1.694946,-0.08635975,-0.4142858,1.591238,0.2228578,-0.007922942,1.518333,0.1605819,-0.00826617,1.682636,0.1634443,-0.3358597,1.65651,-0.02296313,0.1665462,1.677891,0.08070663,-0.3300068,1.627651,-0.05290502,-0.09985739,1.67193,0.4615924,-0.01492623,1.603397,NA,NA,NotTracked,Unknown,
0.01708984,-0.9306641,-0.0859375,-0.9667969,0.2475586,-0.05859375,18,22,-7,-13,0,-9,20,20,0,-1,1,-2,-3,-1,-2,-1,4.6875,4.6875,4.6875,-2.125,-2.125,-2.125,2.410002,4.933377,0.8718925,7.80157,7.084431,7.288748,-0.04707244,-0.4035672,1.581231,0.2699915,-0.002065734,1.459548,0.1615194,0.4633417,1.694696,-0.08697099,-0.4111183,1.592853,0.2160262,-0.0150981,1.512091,0.1608708,-0.008454448,1.682349,0.1636295,-0.3362843,1.656295,-0.02266195,0.1667659,1.677663,0.08079751,-0.3303242,1.627235,-0.05279382,-0.09911462,1.671308,0.4605831,-0.01468242,1.604675,NA,NA,NotTracked,Unknown,
-0.02148438,-0.8764648,-0.03417969,-0.9667969,0.2475586,-0.05859375,-6,26,3,0,7,3,-18,0,0,-1,1,-2,-3,-1,-2,-1,-11.9375,-11.9375,-11.9375,-2.125,-2.125,-2.125,2.38438,4.995965,0.8651807,7.80157,7.084431,7.288748,-0.04633182,-0.4037648,1.583748,0.2629003,-0.01867537,1.457098,0.1618261,0.4632147,1.694494,-0.08313488,-0.4048779,1.581172,0.2283947,-0.04044937,1.524867,0.1609483,-0.008520075,1.682251,0.1636065,-0.3364038,1.656256,-0.022318,0.1669956,1.677598,0.08072258,-0.3303889,1.627092,-0.05272758,-0.09923927,1.671248,0.4583677,-0.01482372,1.606851,NA,NA,NotTracked,Unknown,
-0.01074219,-0.5722656,-0.06152344,-0.9667969,0.2475586,-0.05859375,17,28,-3,-5,-3,-11,-16,28,0,-1,1,-2,-3,-1,-2,-1,-29.75,-29.75,-29.75,-2.125,-2.125,-2.125,2.362509,5.09319,0.8380263,7.80157,7.084431,7.288748,-0.04647357,-0.4076669,1.58578,0.2614405,-0.05828255,1.451788,0.16196,0.4631825,1.694362,-0.08379362,-0.3952671,1.588441,0.2233635,-0.0263818,1.531333,0.1610622,-0.008508141,1.682191,0.163598,-0.3363734,1.656221,-0.02197501,0.1672479,1.677867,0.08066572,-0.3303169,1.626959,-0.05269361,-0.09951054,1.67147,0.4495723,-0.01819197,1.613949,NA,NA,NotTracked,Unknown,
-0.1650391,-0.8608398,-0.1445313,-0.9667969,0.2475586,-0.05859375,20,7,9,7,4,0,5,17,0,-1,1,-2,-3,-1,-2,-1,-11.1875,-11.1875,-11.1875,-2.125,-2.125,-2.125,2.300261,5.28451,0.7891569,7.80157,7.084431,7.288748,-0.04478446,-0.408241,1.588932,0.2740983,-0.119219,1.453199,0.1620305,0.4631222,1.694227,-0.08309084,-0.3930035,1.604118,0.2325083,-0.09255465,1.511556,0.161359,-0.008459603,1.682123,0.1637738,-0.3363457,1.656194,-0.02176643,0.1671179,1.678406,0.08074619,-0.3303318,1.62696,-0.05224434,-0.1000603,1.672676,0.4420096,-0.02073173,1.630742,NA,NA,NotTracked,Unknown,
-0.4150391,-0.8344727,-0.05371094,-0.9667969,0.2475586,-0.05859375,10,45,2,5,2,1,4,4,0,-1,1,-2,-3,-1,-2,-1,-49,-49,-49,-2.125,-2.125,-2.125,2.228921,5.541038,0.7143324,7.80157,7.084431,7.288748,-0.04394684,-0.4111246,1.590323,0.2846041,-0.1920106,1.45979,0.161759,0.4630191,1.694127,-0.08158172,-0.407044,1.595844,0.2962734,-0.247604,1.496391,0.1614548,-0.008496554,1.682076,0.1637065,-0.3364528,1.656086,-0.02563051,0.1660317,1.68042,0.08062475,-0.3304041,1.626929,-0.05129723,-0.10285,1.674562,0.4353006,-0.02424114,1.643767,NA,NA,NotTracked,Unknown,
-0.5073242,-0.8535156,-0.09082031,-0.9667969,0.2475586,-0.05859375,8,16,-3,-1,-7,13,1,20,0,-1,1,-2,-3,-1,-2,-1,-71,-71,-71,-2.125,-2.125,-2.125,2.182485,5.629399,0.6925245,7.80157,7.084431,7.288748,-0.04316394,-0.4085557,1.591806,0.2934632,-0.2617502,1.466336,0.1612266,0.462775,1.693828,-0.08004194,-0.3955089,1.609895,0.2546008,-0.2458124,1.527171,0.1611455,-0.008770267,1.681887,0.1622192,-0.3372461,1.65545,-0.02515191,0.1658302,1.681045,0.07870266,-0.3307715,1.626537,-0.05076682,-0.1037662,1.675942,0.4273462,-0.03449497,1.647042,NA,NA,NotTracked,Unknown,
-0.5776367,-0.8374023,-0.2905273,-0.9667969,0.2475586,-0.05859375,-6,-32,2,-4,5,5,23,10,0,-1,1,-2,-3,-1,-2,-1,-4.8125,-4.8125,-4.8125,-2.125,-2.125,-2.125,2.003634,6.089123,0.5626085,7.80157,7.084431,7.288748,-0.04339444,-0.4084693,1.593139,0.3223472,-0.3140544,1.468743,0.1606487,0.4626982,1.693776,-0.08114986,-0.3854053,1.609958,0.2815975,-0.3040373,1.482375,0.1609609,-0.008832154,1.681829,0.1615636,-0.3374682,1.655279,-0.02484399,0.16551,1.682024,0.0775808,-0.3308198,1.62636,-0.05008077,-0.1049096,1.67715,0.4052476,-0.0643045,1.648096,NA,NA,NotTracked,Unknown,
-1.081055,-0.7705078,-0.2177734,-0.9667969,0.2475586,-0.05859375,-7,-84,-2,-1,-11,-5,0,-7,0,-1,1,-2,-3,-1,-2,-1,-49.9375,-49.9375,-49.9375,-2.125,-2.125,-2.125,1.737328,6.424147,0.3108399,7.80157,7.084431,7.288748,-0.04345641,-0.4118471,1.591447,0.3274062,-0.3643312,1.485081,0.1601132,0.4626008,1.693666,-0.08180179,-0.4211214,1.595002,0.2848682,-0.3637604,1.4952,0.1610792,-0.008981946,1.681777,0.1620587,-0.3379409,1.655342,-0.0266991,0.1646464,1.682761,0.07790355,-0.3312441,1.626386,-0.04981033,-0.1059475,1.677678,0.3898777,-0.07793749,1.644791,NA,NA,NotTracked,Unknown,
-1.057617,-0.6083984,-0.40625,-0.9667969,0.2475586,-0.05859375,-7,-11,0,1,-16,5,-27,-14,0,-1,1,-2,-3,-1,-2,-1,3.4375,3.4375,3.4375,-2.125,-2.125,-2.125,1.555149,6.699894,0.1117172,7.80157,7.084431,7.288748,-0.04365081,-0.4117944,1.592385,0.3325206,-0.3793445,1.512354,0.1599024,0.4626445,1.693649,-0.08366224,-0.4268634,1.6045,0.289794,-0.3800656,1.481667,0.1612488,-0.009149441,1.681734,0.1626433,-0.3384553,1.65549,-0.02610103,0.164627,1.683002,0.07840326,-0.3317441,1.62646,-0.04956689,-0.1066115,1.678138,0.382884,-0.0844086,1.643006,NA,NA,NotTracked,Unknown,
-0.9355469,-0.5541992,-0.4707031,-0.9667969,0.2475586,-0.05859375,15,88,-3,41,49,15,91,27,0,-1,1,-2,-3,-1,-2,-1,91.5625,91.5625,91.5625,-2.125,-2.125,-2.125,1.470038,6.77059,9.9687,7.80157,7.084431,7.288748,-0.04383619,-0.4115902,1.591037,0.3299071,-0.3854837,1.528814,0.1597531,0.4627214,1.693548,-0.08275029,-0.4206038,1.601647,0.2880566,-0.3634361,1.519867,0.1614805,-0.009238303,1.681518,0.1630622,-0.3386489,1.65539,-0.02570639,0.164649,1.683113,0.07873274,-0.3319197,1.626355,-0.04950327,-0.1067037,1.678296,0.3789116,-0.08526976,1.64169,NA,NA,NotTracked,Unknown,
-0.8852539,-0.4125977,-0.4111328,-0.9667969,0.2475586,-0.05859375,-7,-15,-8,-5,5,-16,-56,-7,0,-1,1,-2,-3,-1,-2,-1,48.75,48.75,48.75,-2.125,-2.125,-2.125,1.543092,6.806312,9.887836,7.80157,7.084431,7.288748,-0.04421231,-0.4118246,1.592006,0.3295698,-0.3898005,1.531478,0.1596763,0.4628684,1.693523,-0.08484588,-0.424621,1.601671,0.2874131,-0.3718501,1.518036,0.1615966,-0.009288903,1.681459,0.1633561,-0.3387976,1.65552,-0.02529638,0.1646609,1.683089,0.07900022,-0.3320783,1.626444,-0.04952848,-0.1065555,1.678527,0.3772184,-0.08628926,1.641737,NA,NA,NotTracked,NotTracked,
-0.902832,-0.3120117,-0.3994141,-0.9667969,0.2475586,-0.05859375,4,20,-3,3,-25,10,-29,2,0,-1,1,-2,-3,-1,-2,-1,-105.4375,-105.4375,-105.4375,-2.125,-2.125,-2.125,1.4719,6.784076,9.909553,7.80157,7.084431,7.288748,-0.04414582,-0.4127084,1.592165,0.3313636,-0.3869541,1.528476,0.1596445,0.4629399,1.693456,-0.08332247,-0.4364668,1.597182,0.2898282,-0.3609758,1.521286,0.1616534,-0.009303,1.681381,0.1634907,-0.338875,1.655561,-0.02489568,0.1648712,1.682866,0.07911572,-0.3321348,1.626458,-0.0497745,-0.1069688,1.678414,0.3764815,-0.08723639,1.641973,NA,NA,NotTracked,NotTracked,
-0.8217773,-0.4204102,-0.2919922,-0.9667969,0.2475586,-0.05859375,2,11,1,6,11,13,4,-2,0,-1,1,-2,-3,-1,-2,-1,-76.1875,-76.1875,-76.1875,-2.125,-2.125,-2.125,1.413311,6.770179,0.04840405,7.80157,7.084431,7.288748,-0.04498075,-0.4123811,1.592121,0.3325198,-0.3904143,1.526766,0.1596937,0.4630776,1.693379,-0.08445243,-0.419089,1.602629,0.2921366,-0.3915095,1.505612,0.1618452,-0.009390251,1.681262,0.1637611,-0.3390579,1.655585,-0.02458218,0.1648743,1.682618,0.07937344,-0.332338,1.626363,-0.04988851,-0.1071401,1.678409,0.3764922,-0.08775567,1.642213,NA,NA,NotTracked,NotTracked,
-0.8964844,-0.3276367,-0.2260742,-0.9667969,0.2475586,-0.05859375,-9,-25,-1,-2,-2,-6,-27,-13,0,-1,1,-2,-3,-1,-2,-1,-8.3125,-8.3125,-8.3125,-2.125,-2.125,-2.125,1.411156,6.760637,0.09467536,7.80157,7.084431,7.288748,-0.0453772,-0.4121217,1.590764,0.3339416,-0.3913101,1.527666,0.1597553,0.46326,1.693337,-0.08533625,-0.4017366,1.609714,0.2894491,-0.3652091,1.525333,0.1619159,-0.009429904,1.681165,0.1639237,-0.3391526,1.655566,-0.02423127,0.1651031,1.682366,0.07954737,-0.3324131,1.626235,-0.05005,-0.1070575,1.678326,0.3765835,-0.08857828,1.642169,NA,NA,NotTracked,NotTracked,
-0.9135742,-0.3574219,-0.2338867,-0.9667969,0.2475586,-0.05859375,4,-19,-1,-3,-4,-9,-2,0,0,-1,1,-2,-3,-1,-2,-1,-9.125,-9.125,-9.125,-2.125,-2.125,-2.125,1.401371,6.780544,0.09293574,7.80157,7.084431,7.288748,-0.04581324,-0.4122884,1.589313,0.3353717,-0.3941805,1.528621,0.1597109,0.4634218,1.693284,-0.08375943,-0.407965,1.599464,0.2938012,-0.3931668,1.509833,0.1619067,-0.009452888,1.681089,0.1640728,-0.3392511,1.655552,-0.02415582,0.1651589,1.682229,0.07972603,-0.3325223,1.626132,-0.05031759,-0.1068798,1.678224,0.3765037,-0.08882613,1.642039,NA,NA,NotTracked,NotTracked,
-0.9145508,-0.3769531,-0.265625,-0.9667969,0.2475586,-0.05859375,4,-8,1,-1,-3,0,3,3,0,-1,1,-2,-3,-1,-2,-1,2.0625,2.0625,2.0625,-2.125,-2.125,-2.125,1.403486,6.798227,0.09786551,7.80157,7.084431,7.288748,-0.04504318,-0.4125507,1.590197,0.335852,-0.395537,1.531989,0.1596381,0.4635777,1.693275,-0.0868376,-0.4228624,1.600284,0.2931957,-0.3927605,1.515069,0.1619322,-0.009460371,1.680959,0.1642086,-0.3393507,1.655519,-0.02409117,0.1651449,1.682177,0.07987697,-0.3326246,1.626027,-0.05057468,-0.1067551,1.678155,0.3763469,-0.08916494,1.642199,NA,NA,NotTracked,NotTracked,
