ALX,ALY,ALZ,ARX,ARY,ARZ,EMG0L,EMG1L,EMG2L,EMG3L,EMG4L,EMG5L,EMG6L,EMG7L,EMG0R,EMG1R,EMG2R,EMG3R,EMG4R,EMG5R,EMG6R,EMG7R,GLX,GLY,GLZ,GRX,GRY,GRZ,ORL,OPL,OYL,ORR,OPR,OYR,LHNX,LHNY,LHNZ,RHNX,RHNY,RHNZ,HX,HY,HZ,LTX,LTY,LTZ,RTX,RTY,RTZ,SpineMidX,SpineMidY,SpineMidZ,SpineBaseX,SpineBaseY,SpineBaseZ,ShoulderLeftX,ShoulderLeftY,ShoulderLeftZ,ShoulderRightX,ShoulderRightY,ShoulderRightZ,ElbowLeftX,ElbowLeftY,ElbowLeftZ,ElbowRightX,ElbowRightY,ElbowRightZ,Myo_Pose_left,Myo_Pose_Right,Kinect_pose_left,Kinect_pose_right
-0.9423828,-0.3217773,-0.1821289,-0.9482422,0.3095703,-0.06298828,0,1,0,-2,0,1,-1,0,-1,-2,0,-1,-1,-1,-3,-1,-5.875,-5.875,-5.875,1.1875,1.1875,1.1875,1.667312,6.905188,0.7762098,7.845665,6.992896,5.937627,-0.09297933,-0.4126746,1.523796,0.2970311,-0.4194903,1.475928,0.1105016,0.4734405,1.618906,-0.04757325,-0.3927376,1.474599,0.2422408,-0.4089224,1.455665,0.1098242,-0.002628854,1.605417,0.1132677,-0.3319619,1.588202,-0.0787359,0.1744874,1.607046,0.0270728,-0.3245987,1.551308,-0.1119756,-0.08728398,1.604725,0.3105672,-0.08412992,1.587168,NA,NA,NotTracked,NotTracked,
-0.9438477,-0.3188477,-0.1821289,-0.9521484,0.3129883,-0.07519531,0,0,-1,-3,-2,-2,-1,0,-1,-1,-2,-2,-2,-1,-1,-1,-8.8125,-8.8125,-8.8125,0.5,0.5,0.5,1.659206,6.904818,0.7769762,7.845732,6.990983,5.936939,-0.09225824,-0.4121082,1.524239,0.2971388,-0.4197331,1.475752,0.1107395,0.4734924,1.618911,-0.04818227,-0.3873359,1.475457,0.2422949,-0.4093876,1.455495,0.109924,-0.002596223,1.605407,0.1133887,-0.3318707,1.588211,-0.07867532,0.1748016,1.60737,0.02724813,-0.324458,1.551296,-0.1118331,-0.08689155,1.604941,0.3106964,-0.08431143,1.587146,NA,NA,NotTracked,NotTracked,
-0.9467773,-0.3164063,-0.1806641,-0.9472656,0.3095703,-0.07177734,1,0,-1,-1,0,0,-2,-1,1,0,-1,-1,-1,-2,-3,-2,-10.9375,-10.9375,-10.9375,-0.8125,-0.8125,-0.8125,1.649489,6.904033,0.7786229,7.845669,6.990387,5.937043,-0.09238018,-0.4120106,1.523132,0.2971221,-0.4196426,1.47437,0.1108689,0.4733849,1.618861,-0.04789778,-0.3800391,1.475641,0.2449567,-0.4373167,1.446962,0.1100725,-0.002626038,1.605336,0.1135394,-0.33192,1.588155,-0.07865825,0.1747956,1.607352,0.02740645,-0.3244866,1.55125,-0.1117968,-0.08835668,1.604617,0.3109654,-0.08473499,1.586909,NA,NA,NotTracked,NotTracked,
-0.9472656,-0.3193359,-0.1860352,-0.9492188,0.3061523,-0.07421875,2,0,-3,0,0,0,-2,-1,-1,-2,-1,-2,0,-2,-1,-1,-12.0625,-12.0625,-12.0625,0.1875,0.1875,0.1875,1.640599,6.902807,0.7831133,7.844464,6.989027,5.935804,-0.09217814,-0.4127692,1.522819,0.2971976,-0.4195192,1.474505,0.1110098,0.473367,1.618868,-0.04795413,-0.3884892,1.474872,0.2435201,-0.4086677,1.455439,0.1101533,-0.002587567,1.605311,0.1136184,-0.3318785,1.588124,-0.07862102,0.1748501,1.607398,0.02747216,-0.324448,1.551208,-0.1116922,-0.08854076,1.604579,0.3110994,-0.08496611,1.586652,NA,NA,NotTracked,NotTracked,
-0.9438477,-0.3242188,-0.1875,-0.9541016,0.3076172,-0.07373047,5,1,-1,-1,-1,-3,-1,0,-3,-4,-1,-1,-2,-1,0,0,-8.5,-8.5,-8.5,-0.125,-0.125,-0.125,1.635403,6.901412,0.7889005,7.842942,6.986629,5.934151,-0.09200098,-0.412347,1.523073,0.2976736,-0.4197035,1.473722,0.1112001,0.4733234,1.618876,-0.04823022,-0.3864052,1.475123,0.2454969,-0.4342564,1.448938,0.1103587,-0.00259056,1.605247,0.1138247,-0.3318712,1.588024,-0.07861306,0.1748575,1.607425,0.0276677,-0.324437,1.551121,-0.1114503,-0.08773464,1.604637,0.3113739,-0.08537167,1.586231,NA,NA,NotTracked,NotTracked,
-0.9394531,-0.3227539,-0.184082,-0.940918,0.3134766,-0.07080078,-2,-1,0,-1,-1,0,0,-2,-1,-1,-1,-1,-2,-1,0,0,-5.5,-5.5,-5.5,2.375,2.375,2.375,1.635173,6.900724,0.7918194,7.844226,6.985555,5.933032,-0.09225421,-0.4121688,1.522952,0.2981005,-0.4202058,1.474096,0.1113311,0.4732884,1.618907,-0.04798881,-0.3882545,1.474847,0.2441567,-0.4177265,1.453067,0.1106332,-0.002614576,1.605231,0.1141168,-0.3319068,1.587948,-0.07855867,0.1748781,1.607466,0.02792535,-0.3244763,1.551094,-0.1112565,-0.08810402,1.604671,0.3114423,-0.08551615,1.586151,NA,NA,NotTracked,NotTracked,
-0.953125,-0.3071289,-0.1894531,-0.940918,0.3139648,-0.07226563,-2,1,1,0,-3,0,-1,-2,1,-3,-2,-1,-1,-1,0,-2,-0.5,-0.5,-0.5,0.5625,0.5625,0.5625,1.635718,6.900477,0.7936905,7.844061,6.984842,5.932365,-0.09213968,-0.4119537,1.522095,0.2980118,-0.4197704,1.473679,0.1115206,0.4732537,1.619008,-0.04816953,-0.3869903,1.474854,0.2439006,-0.4158306,1.453444,0.110828,-0.002612989,1.605222,0.1142854,-0.331907,1.58796,-0.07847685,0.1750194,1.607527,0.02810985,-0.324449,1.551141,-0.11124,-0.08845568,1.604617,0.311586,-0.08563124,1.585996,NA,NA,NotTracked,NotTracked,
-0.9458008,-0.3168945,-0.1816406,-0.9458008,0.309082,-0.07373047,2,-2,-1,1,0,-2,0,0,0,-1,-2,-2,-2,-1,-1,1,-1.75,-1.75,-1.75,3.0625,3.0625,3.0625,1.630125,6.900715,0.7910217,7.845334,6.983435,5.931523,-0.09245065,-0.4117122,1.522032,0.2983517,-0.4197041,1.47387,0.1120376,0.4732586,1.619332,-0.04762179,-0.3800834,1.476402,0.2444591,-0.4112053,1.455462,0.1110412,-0.002604602,1.605227,0.1145207,-0.33193,1.587823,-0.07834502,0.1752424,1.607693,0.02835438,-0.3244546,1.551071,-0.1112035,-0.08896407,1.604538,0.3118266,-0.08564857,1.585672,NA,NA,NotTracked,NotTracked,
-0.9448242,-0.3139648,-0.1835938,-0.9482422,0.3105469,-0.0703125,1,0,-1,-2,0,-2,0,-2,-3,-2,-1,-2,0,-2,-2,-1,0.4375,0.4375,0.4375,2.125,2.125,2.125,1.630742,6.900412,0.7914494,7.846823,6.983071,5.929739,-0.09265839,-0.411591,1.522231,0.2983748,-0.4197128,1.473225,0.1121747,0.4732737,1.619459,-0.04831105,-0.3861006,1.475165,0.2444143,-0.4124362,1.453743,0.1111882,-0.002587897,1.60519,0.1147828,-0.3319454,1.587692,-0.07831743,0.1752177,1.607717,0.02858763,-0.3244614,1.550984,-0.1111934,-0.08900692,1.604523,0.3119698,-0.08593399,1.585307,NA,NA,NotTracked,NotTracked,
-0.9418945,-0.3120117,-0.1875,-0.956543,0.3085938,-0.07421875,3,0,0,-1,-2,-1,0,0,0,0,-1,-1,-2,-3,-1,-2,1.4375,1.4375,1.4375,1,1,1,1.630877,6.901338,0.7897497,7.846457,6.982645,5.927848,-0.09230553,-0.4118048,1.522143,0.2987225,-0.4197923,1.473671,0.1124035,0.4732725,1.619562,-0.04804668,-0.3857828,1.475306,0.2443823,-0.4158954,1.453411,0.1113364,-0.002522694,1.605197,0.1149091,-0.3319168,1.587638,-0.07827328,0.1752363,1.607743,0.02871402,-0.3244205,1.550953,-0.1110005,-0.0882637,1.604584,0.3121257,-0.0858697,1.585221,NA,NA,NotTracked,NotTracked,
-0.9443359,-0.3178711,-0.1855469,-0.9482422,0.3115234,-0.07177734,1,-2,0,-2,-2,1,-1,1,-1,0,-2,1,0,1,-2,-3,2.5,2.5,2.5,2.625,2.625,2.625,1.634537,6.901528,0.7900155,7.846181,6.98281,5.924512,-0.09185111,-0.4118348,1.52205,0.2986631,-0.419751,1.473634,0.1125784,0.4732164,1.619829,-0.04800467,-0.3848027,1.475402,0.2442216,-0.4031225,1.456049,0.1114868,-0.002561874,1.60519,0.1150349,-0.3319193,1.587559,-0.07823613,0.175249,1.607766,0.02882631,-0.3244066,1.5509,-0.1109397,-0.08846515,1.604548,0.3123152,-0.08593266,1.585056,NA,NA,NotTracked,NotTracked,
-0.9467773,-0.3168945,-0.1904297,-0.9477539,0.3139648,-0.07324219,-2,0,0,1,-2,-4,-1,-2,-2,-2,-3,0,-2,-1,-1,-1,2.875,2.875,2.875,1.875,1.875,1.875,1.635857,6.901528,0.7897399,7.845124,6.982212,5.921126,-0.09229193,-0.4117682,1.521212,0.2985405,-0.4195784,1.472899,0.1127542,0.4732093,1.619967,-0.04815126,-0.3865857,1.47508,0.2442943,-0.413143,1.453995,0.111648,-0.002577758,1.60509,0.1151415,-0.3319183,1.587481,-0.07810494,0.175343,1.607754,0.02889618,-0.3244021,1.550873,-0.1108866,-0.08884432,1.604317,0.312429,-0.08591152,1.584933,NA,NA,NotTracked,NotTracked,
-0.9438477,-0.3193359,-0.1938477,-0.9462891,0.3105469,-0.07519531,3,1,-1,0,-3,0,-2,-1,-2,-1,-2,-1,-2,-1,-2,-1,1.375,1.375,1.375,2,2,2,1.637518,6.901353,0.7889537,7.845077,6.982193,5.919922,-0.09221479,-0.4117637,1.521582,0.2987224,-0.4195235,1.473688,0.1129369,0.4731682,1.620097,-0.04778861,-0.3839872,1.475299,0.2450766,-0.4268026,1.450421,0.1118532,-0.002626525,1.605068,0.1154391,-0.3319602,1.587323,-0.0778606,0.1755111,1.607737,0.02915311,-0.3244395,1.550708,-0.1109194,-0.08897062,1.604249,0.3125982,-0.08590578,1.584871,NA,NA,NotTracked,NotTracked,
-0.9428711,-0.3198242,-0.184082,-0.9467773,0.309082,-0.08007813,3,0,0,0,-3,-1,-2,-1,0,1,-1,-1,-3,-1,-1,-1,1.625,1.625,1.625,2.0625,2.0625,2.0625,1.638949,6.90175,0.7885189,7.84682,6.982244,5.918963,-0.09118758,-0.4143331,1.520282,0.2988448,-0.4196673,1.473658,0.1131115,0.4730483,1.620225,-0.04795647,-0.3857296,1.475164,0.2444111,-0.4124978,1.453827,0.1120203,-0.002707999,1.60509,0.1158244,-0.3321476,1.587188,-0.0771524,0.1740679,1.606542,0.02952733,-0.3246651,1.550571,-0.1107977,-0.08867883,1.604233,0.3126651,-0.08595192,1.584871,NA,NA,NotTracked,NotTracked,
-0.9428711,-0.3227539,-0.1899414,-0.9492188,0.3120117,-0.07763672,1,0,-1,0,0,-2,-1,-1,-1,-1,0,-1,0,-1,-1,-1,2.25,2.25,2.25,1.5625,1.5625,1.5625,1.64027,6.901968,0.7885953,7.848597,6.982101,5.918898,-0.09162071,-0.4139572,1.520581,0.299025,-0.4195656,1.473577,0.1132705,0.4730113,1.620465,-0.04780577,-0.385098,1.475151,0.2445381,-0.4164182,1.453211,0.1123326,-0.002699093,1.605054,0.1159883,-0.3321213,1.587134,-0.07704742,0.1742209,1.606603,0.0297145,-0.3246192,1.550532,-0.1108415,-0.08886009,1.604159,0.3128678,-0.08609251,1.584801,NA,NA,NotTracked,NotTracked,
-0.9477539,-0.3237305,-0.1811523,-0.9467773,0.309082,-0.07763672,2,0,-1,-1,0,0,0,-2,-1,-2,0,-2,-1,-1,0,-2,1.75,1.75,1.75,2.4375,2.4375,2.4375,1.645443,6.902426,0.7898078,7.851756,6.982591,5.919313,-0.0913178,-0.4139256,1.520441,0.2991549,-0.419544,1.473814,0.1134773,0.4730022,1.620495,-0.04779891,-0.3854797,1.475188,0.2446019,-0.4146478,1.45356,0.1124466,-0.002678231,1.605054,0.1162003,-0.3320999,1.587068,-0.07699099,0.1744021,1.606731,0.02993109,-0.3246012,1.550419,-0.1107202,-0.08843068,1.604056,0.3130269,-0.08626962,1.584662,NA,NA,NotTracked,NotTracked,
-0.9438477,-0.3232422,-0.1860352,-0.9501953,0.3129883,-0.07617188,-2,0,-2,-1,-3,0,0,0,0,1,-2,-1,-3,-1,-1,0,1.8125,1.8125,1.8125,1.9375,1.9375,1.9375,1.646553,6.9026,0.7897546,7.854336,6.982603,5.919582,-0.09119473,-0.4141421,1.519752,0.2990667,-0.4191833,1.472969,0.1136116,0.4729809,1.620545,-0.04780389,-0.3818697,1.475717,0.2449632,-0.4130252,1.453476,0.1125864,-0.002661844,1.604989,0.1163493,-0.3320976,1.586917,-0.07681383,0.1747208,1.606717,0.030075,-0.3245991,1.550256,-0.110735,-0.08820023,1.603988,0.3130853,-0.08631019,1.584632,NA,NA,NotTracked,NotTracked,
-0.9433594,-0.3237305,-0.1860352,-0.9443359,0.309082,-0.08056641,-3,0,-1,-1,-1,-1,-1,1,0,-1,-1,-2,-2,-1,-1,-1,0.9375,0.9375,0.9375,1.1875,1.1875,1.1875,1.647431,6.903131,0.7897016,7.856232,6.982784,5.920602,-0.0914487,-0.4135699,1.520651,0.2989597,-0.419496,1.474523,0.1140312,0.4730715,1.620721,-0.04688422,-0.3833926,1.475084,0.2446242,-0.4159721,1.453358,0.1128995,-0.002585918,1.604982,0.1166124,-0.3320442,1.586843,-0.07673858,0.1749848,1.606804,0.0303086,-0.3245384,1.550202,-0.1105201,-0.08841216,1.603891,0.313174,-0.08632469,1.58462,NA,NA,NotTracked,NotTracked,
-0.9433594,-0.3212891,-0.1850586,-0.9477539,0.3056641,-0.08007813,0,-3,0,-1,0,-1,-1,-1,-2,-2,-2,-2,-1,-1,0,-1,-0.375,-0.375,-0.375,1.125,1.125,1.125,1.647638,6.90318,0.78983,7.858355,6.983469,5.921845,-0.09113172,-0.4131042,1.520536,0.2990632,-0.4193,1.474613,0.1142186,0.4731805,1.620835,-0.04690307,-0.3877712,1.474854,0.2447253,-0.4156573,1.453599,0.1130668,-0.002579564,1.604959,0.1166853,-0.3320415,1.586816,-0.07667911,0.1751171,1.606844,0.03037092,-0.3245377,1.550206,-0.110406,-0.08884566,1.603813,0.3132558,-0.08637104,1.584588,NA,NA,NotTracked,NotTracked,
-0.9443359,-0.3232422,-0.1928711,-0.9516602,0.3144531,-0.07226563,1,1,-2,0,-1,0,0,-2,-1,-1,-1,-1,0,-1,-1,-2,-0.625,-0.625,-0.625,1.125,1.125,1.125,1.647638,6.90318,0.78983,7.860075,6.983033,5.921907,-0.0907966,-0.4141975,1.52065,0.2991604,-0.4195293,1.47456,0.1143655,0.4731692,1.620895,-0.04715488,-0.3878793,1.475227,0.2446475,-0.4159687,1.453435,0.1131891,-0.002595404,1.604961,0.1167554,-0.3320613,1.586823,-0.07665236,0.1751279,1.606905,0.03043819,-0.3245489,1.550247,-0.1102989,-0.08854073,1.603831,0.3134324,-0.08647091,1.584543,NA,NA,NotTracked,NotTracked,
-0.9384766,-0.3178711,-0.1870117,-0.9472656,0.3027344,-0.07324219,1,-1,-3,0,-2,2,-1,-2,-1,-1,0,-2,-1,0,-2,1,-0.75,-0.75,-0.75,-0.3125,-0.3125,-0.3125,1.647638,6.90318,0.78983,7.860145,6.98271,5.922057,-0.09084918,-0.4134893,1.520765,0.2991663,-0.4193904,1.474504,0.1145067,0.4731261,1.620872,-0.04454082,-0.4056751,1.471875,0.2459182,-0.4232931,1.452391,0.1132883,-0.002589081,1.604962,0.1167984,-0.3320412,1.586827,-0.07661368,0.1752302,1.606935,0.03047156,-0.3245228,1.550259,-0.1102429,-0.08863594,1.603738,0.3134709,-0.08645746,1.584552,NA,NA,NotTracked,NotTracked,
-0.9453125,-0.3217773,-0.1855469,-0.9414063,0.3076172,-0.07373047,-1,-3,-2,-1,-2,-2,0,0,-2,-2,-1,-2,0,-2,-1,-2,0.1875,0.1875,0.1875,-1.625,-1.625,-1.625,1.650324,6.903288,0.7924751,7.85943,6.98308,5.921916,-0.09158875,-0.4141901,1.521134,0.2992571,-0.4199093,1.47505,0.1145839,0.4731104,1.620895,-0.04564444,-0.3888341,1.474502,0.2448183,-0.417028,1.453246,0.1133905,-0.002583196,1.604954,0.1170043,-0.3320342,1.586808,-0.07657833,0.1752645,1.606954,0.03066559,-0.3245539,1.550258,-0.1102013,-0.08899156,1.603762,0.3135343,-0.08643871,1.584605,NA,NA,NotTracked,NotTracked,
-0.9462891,-0.3222656,-0.1801758,-0.9516602,0.2998047,-0.07275391,2,1,-1,-1,0,-1,-1,0,-1,-1,-1,-1,-1,0,-2,-2,0.5625,0.5625,0.5625,-2.4375,-2.4375,-2.4375,1.650324,6.903288,0.7924751,7.857992,6.983487,5.921916,-0.09153282,-0.4140048,1.520334,0.2992263,-0.4198339,1.474723,0.1146904,0.4730398,1.620923,-0.04647224,-0.3929999,1.473951,0.2449925,-0.4174737,1.453211,0.1134326,-0.002590366,1.604943,0.1170517,-0.332047,1.586786,-0.07657283,0.1752685,1.606963,0.03071082,-0.3245631,1.550246,-0.110014,-0.08823671,1.603677,0.3135545,-0.08644124,1.584611,NA,NA,NotTracked,NotTracked,
-0.940918,-0.3325195,-0.184082,-0.9423828,0.3115234,-0.07177734,1,0,0,0,1,-3,-2,-2,-1,-2,-1,0,-2,0,-2,0,-3,-3,-3,0.0625,0.0625,0.0625,1.646934,6.902916,0.792578,7.857715,6.984025,5.922177,-0.09143294,-0.4136512,1.520589,0.2990721,-0.4195381,1.474749,0.1148749,0.4729742,1.620896,-0.04529434,-0.3868431,1.474286,0.2450604,-0.4170784,1.453401,0.1134824,-0.002615386,1.604922,0.1171165,-0.3320593,1.58678,-0.07654073,0.1753395,1.606986,0.03077583,-0.3245722,1.550232,-0.1100045,-0.0884662,1.603635,0.3136065,-0.08645969,1.584539,NA,NA,NotTracked,NotTracked,
-1.000977,-0.3388672,-0.175293,-0.9868164,0.340332,-0.07519531,19,5,2,3,9,11,32,14,-1,-1,-1,-1,-2,0,-2,-1,0.625,0.625,0.625,-2.25,-2.25,-2.25,1.645823,6.90216,0.7913868,7.857028,6.982637,5.923447,-0.0911465,-0.4133077,1.521281,0.2991731,-0.4196814,1.474872,0.1149274,0.4729668,1.620882,-0.04628998,-0.392067,1.474062,0.2449829,-0.4172342,1.453368,0.113546,-0.0026413,1.604935,0.1171789,-0.3320799,1.586771,-0.07649642,0.1753578,1.607003,0.03082786,-0.3245839,1.550217,-0.1099956,-0.08823795,1.603597,0.3136434,-0.08640838,1.584592,NA,NA,NotTracked,NotTracked,
-1.220703,-0.4443359,-0.1708984,-0.9389648,0.3232422,-0.08691406,-56,-15,-5,-7,-30,-58,-38,-23,-1,-2,-2,-2,0,-1,1,-2,5.9375,5.9375,5.9375,-11,-11,-11,1.663974,6.893953,0.80625,7.856073,6.980655,5.93132,-0.09068993,-0.4139582,1.520788,0.2989108,-0.4189613,1.47367,0.1149623,0.4729372,1.620884,-0.0454816,-0.38878,1.47379,0.2456614,-0.4213138,1.452956,0.1135649,-0.002654182,1.604936,0.1172118,-0.3320839,1.586776,-0.07653115,0.1753551,1.607058,0.03085652,-0.324585,1.550218,-0.1100292,-0.08831619,1.603615,0.3137414,-0.08633087,1.584726,NA,NA,NotTracked,NotTracked,
-1.362793,-1.022461,-0.1835938,-0.9873047,0.3037109,-0.09960938,2,10,2,0,2,20,34,-24,-1,0,-3,-1,1,-1,-1,-1,30.4375,30.4375,30.4375,-19.25,-19.25,-19.25,1.841122,6.778421,0.9675913,7.84823,6.978362,5.945043,-0.09161641,-0.4139533,1.52006,0.2901143,-0.3915118,1.442951,0.115077,0.472814,1.620869,-0.04614602,-0.3862689,1.474743,0.2366184,-0.3382082,1.461118,0.1134799,-0.002584319,1.604809,0.1167841,-0.3317982,1.586539,-0.0765673,0.1754782,1.607259,0.03041808,-0.3242987,1.550019,-0.1100098,-0.08817817,1.603683,0.317238,-0.0821439,1.593202,NA,NA,NotTracked,NotTracked,
-1.977539,-1.230957,-0.005371094,-0.9975586,0.3032227,-0.078125,11,0,-1,0,10,-37,-8,1,0,-1,-2,-2,-1,0,-1,-2,-65.375,-65.375,-65.375,-8.375,-8.375,-8.375,2.249239,6.305614,1.367047,7.840734,6.978298,5.950521,-0.09169673,-0.4131211,1.519909,0.2737161,-0.3276993,1.399595,0.1152342,0.4725782,1.620507,-0.04536225,-0.3832627,1.473648,0.2369995,-0.3657144,1.405,0.1132306,-0.002557571,1.604582,0.1150841,-0.3313223,1.586253,-0.07654525,0.1755023,1.607266,0.02845975,-0.3237504,1.549897,-0.1104004,-0.08931085,1.603585,0.3239934,-0.07118922,1.609018,NA,NA,NotTracked,Unknown,
-1.144043,-2.205078,0.05566406,-0.9067383,0.2714844,-0.05761719,5,-32,-14,-13,-11,4,-23,-6,-2,-2,0,0,0,-2,-1,-1,-90.625,-90.625,-90.625,18.25,18.25,18.25,2.280623,6.04978,1.487677,7.851171,6.981418,5.949737,-0.09194649,-0.4122774,1.521136,0.2494109,-0.233035,1.384448,0.1154292,0.4724058,1.620059,-0.04466278,-0.4001334,1.471593,0.2129177,-0.2367911,1.385909,0.1125391,-0.002393657,1.604342,0.112254,-0.330434,1.586221,-0.07659966,0.1756774,1.607418,0.02580691,-0.3227515,1.549815,-0.1103815,-0.08857509,1.60376,0.3285441,-0.04709531,1.628411,NA,NA,NotTracked,Unknown,
-0.02148438,-2.536621,-0.3867188,-0.8525391,0.3222656,-0.03759766,16,5,2,5,8,5,-6,-18,-1,-2,0,-1,0,-1,-2,-2,20.1875,20.1875,20.1875,50.25,50.25,50.25,2.304142,5.435543,1.590037,7.890141,6.982975,5.94047,-0.0922089,-0.4117505,1.520617,0.2560341,-0.1142111,1.314274,0.116312,0.4718791,1.618267,-0.04545203,-0.3863275,1.474004,0.2257206,-0.09094568,1.285333,0.1122126,-0.002337695,1.604237,0.1113346,-0.3300736,1.586334,-0.07641239,0.1759057,1.607427,0.02477359,-0.3223467,1.549916,-0.1104656,-0.08806822,1.603995,0.3414843,-0.0384642,1.636092,NA,NA,NotTracked,Unknown,
-0.2216797,-1.763672,-0.46875,-0.8852539,0.3554688,-0.02734375,31,56,29,6,-4,-8,-1,-4,-1,-1,0,-2,-1,-2,-2,1,163.5,163.5,163.5,54.4375,54.4375,54.4375,2.392486,5.117666,1.594868,7.917006,6.984426,5.937717,-0.09282024,-0.4117338,1.522478,0.2415408,0.01978455,1.343138,0.1178116,0.4709095,1.61583,-0.04664391,-0.3836821,1.475986,0.2245658,0.04757658,1.324714,0.1121325,-0.002235158,1.604293,0.1102152,-0.3291945,1.586737,-0.07608651,0.1759896,1.607357,0.02361847,-0.3214686,1.551016,-0.1106216,-0.08768487,1.604184,0.362093,-0.03560004,1.567019,NA,NA,NotTracked,Unknown,
-0.3300781,0.253418,-0.347168,-0.890625,0.3510742,-0.06884766,-33,17,16,0,3,1,-12,-26,0,-2,-2,-3,-1,-2,-1,-1,140.25,140.25,140.25,45.6875,45.6875,45.6875,2.722595,4.194525,1.692944,7.97692,6.987858,5.944474,-0.0949776,-0.4106866,1.523405,0.2482789,0.11759,1.38145,0.1206136,0.4688454,1.612469,-0.0464522,-0.3892558,1.474243,0.1980421,0.1522387,1.395857,0.112084,-0.00239871,1.60436,0.1100662,-0.3292852,1.586746,-0.07495892,0.1758572,1.606589,0.02350207,-0.3215362,1.550913,-0.1108885,-0.08686953,1.604166,0.3517067,-0.03778782,1.564958,NA,NA,NotTracked,Open,
0.5585938,0.1352539,0.03613281,-1.018555,0.2983398,-0.08251953,74,23,6,2,7,8,11,53,-2,-1,0,-2,0,-1,-1,-1,-164.0625,-164.0625,-164.0625,32.375,32.375,32.375,2.49021,3.598256,1.867918,8.039834,6.996543,5.956156,-0.09600355,-0.4131924,1.524851,0.2533796,0.2059112,1.40725,0.1219005,0.4663749,1.609884,-0.04774747,-0.3983115,1.472719,0.2051938,0.2256705,1.448667,0.1119863,-0.002537366,1.604517,0.1097922,-0.3292341,1.586882,-0.07401087,0.1762399,1.606156,0.02299893,-0.3212821,1.551314,-0.1107516,-0.0861273,1.60362,0.3520972,-0.03831181,1.55911,NA,NA,NotTracked,Open,
0.3276367,-0.7075195,0.09423828,-1.010254,0.3237305,-0.07910156,0,9,-2,-1,2,4,-2,-44,1,-2,-1,-1,-1,-1,-1,-1,-264.625,-264.625,-264.625,30.75,30.75,30.75,1.885651,3.177963,2.239485,8.045463,6.997712,5.944402,-0.09731928,-0.4130298,1.526317,0.2552075,0.2727842,1.43135,0.1232774,0.4645031,1.607984,-0.04814207,-0.3895418,1.474312,0.2337182,0.2959112,1.495,0.1118375,-0.002082387,1.606396,0.1092093,-0.3280291,1.587021,-0.07115179,0.1763218,1.605069,0.02194928,-0.3191541,1.551571,-0.1106109,-0.08492123,1.602673,0.3598153,-0.0268943,1.519986,NA,NA,NotTracked,Open,
0.07910156,-0.612793,0.1982422,-0.9711914,0.3310547,-0.1147461,26,4,-4,0,-1,2,17,44,-1,-1,-2,0,-2,-1,-1,-3,-141.1875,-141.1875,-141.1875,15.1875,15.1875,15.1875,1.526437,3.063418,2.545291,8.039895,6.993159,5.914555,-0.09829169,-0.4127462,1.52763,0.2477117,0.3258194,1.449952,0.1252695,0.461944,1.606983,-0.04898714,-0.3891505,1.475388,0.1932836,0.3134332,1.47771,0.1119198,-0.001974826,1.608217,0.1086493,-0.3274477,1.587144,-0.06890483,0.1744701,1.603326,0.02087534,-0.3179667,1.551761,-0.1103746,-0.08174033,1.601519,0.3575969,-0.02172999,1.507722,NA,NA,NotTracked,Open,
0.3125,-0.2563477,0.08007813,-0.9575195,0.3222656,-0.1083984,14,8,-16,2,4,4,5,27,-1,0,-1,0,-1,0,-1,-3,24.125,24.125,24.125,1.1875,1.1875,1.1875,0.9339753,3.013853,3.179818,8.0198,6.988525,5.892565,-0.0980387,-0.4131495,1.525776,0.2433225,0.3542015,1.463167,0.130395,0.4581153,1.605611,-0.04875536,-0.3891065,1.474385,0.1886491,0.3475426,1.502562,0.1121136,-0.001936032,1.609351,0.1082136,-0.3271096,1.587086,-0.05908349,0.1775637,1.602161,0.01982306,-0.3168618,1.551501,-0.1099905,-0.07825252,1.600363,0.3643052,-0.006025632,1.477285,NA,NA,NotTracked,Open,
0.4003906,-0.08544922,-0.09179688,-0.9355469,0.265625,-0.1186523,4,5,-3,3,0,-2,2,12,-2,0,0,-1,-1,-1,-2,-1,-15.3125,-15.3125,-15.3125,-15.0625,-15.0625,-15.0625,0.651239,3.057582,3.481744,7.962958,6.976376,5.846401,-0.09556495,-0.4129785,1.519002,0.232471,0.3725578,1.466965,0.1341296,0.4559333,1.605308,-0.0483084,-0.3894604,1.474147,0.1777824,0.35705,1.50175,0.1146794,-0.000988627,1.610728,0.1075883,-0.3258835,1.587015,-0.05367568,0.1802814,1.601551,0.01887631,-0.3146544,1.550889,-0.1093942,-0.07542524,1.5985,0.3912019,0.06697458,1.417967,NA,NA,NotTracked,Open,
0.4760742,-0.3173828,-0.08740234,-0.9418945,0.2768555,-0.09375,-30,-13,-3,-2,-3,-6,-8,-15,-2,1,0,-1,-2,-2,-2,-3,-27.75,-27.75,-27.75,-11.375,-11.375,-11.375,0.5967155,3.103173,3.50642,7.898638,6.961714,5.792462,-0.09410996,-0.4111827,1.515409,0.2285992,0.3749931,1.465668,0.1350394,0.4557055,1.605392,-0.04815608,-0.3979496,1.472237,0.1846073,0.3510746,1.504049,0.1157187,-0.0008722875,1.611191,0.1075388,-0.3257329,1.586982,-0.0548068,0.178367,1.60075,0.01881463,-0.3145189,1.550814,-0.1093518,-0.07484439,1.597804,0.3914177,0.07163727,1.415714,NA,NA,NotTracked,Open,
0.5839844,-0.3603516,-0.175293,-0.9433594,0.3110352,-0.08251953,-26,-1,-1,4,-3,-6,1,-23,-1,-1,-1,0,-1,-2,-1,-2,-4.125,-4.125,-4.125,-8.75,-8.75,-8.75,0.6212791,3.130553,3.481736,7.837141,6.946466,5.738455,-0.09263573,-0.4132548,1.510435,0.2250912,0.3747623,1.462651,0.1357238,0.4553889,1.605461,-0.0474082,-0.3897385,1.472937,0.1868417,0.3493774,1.502503,0.1152499,-0.0009223,1.611705,0.1074861,-0.3256131,1.586897,-0.05540777,0.1772819,1.600361,0.01872456,-0.3143071,1.550646,-0.1092618,-0.0737816,1.597267,0.3912593,0.07598693,1.413523,NA,NA,NotTracked,Open,
0.8359375,-0.137207,-0.3457031,-0.9428711,0.3486328,-0.0859375,5,-3,0,0,-1,-1,-1,9,-1,1,0,-1,-2,-1,-2,0,15.125,15.125,15.125,5.6875,5.6875,5.6875,0.7078034,3.186751,3.431357,7.803355,6.934744,5.699301,-0.0906414,-0.4099509,1.506948,0.2217193,0.3749324,1.460716,0.1358785,0.4552941,1.605589,-0.04555656,-0.385313,1.470554,0.1804232,0.3391447,1.500954,0.1148229,-0.00116672,1.612195,0.1074629,-0.3256209,1.586855,-0.05609348,0.1761378,1.599942,0.01869673,-0.3143153,1.550598,-0.1091859,-0.0733837,1.59708,0.3911696,0.07781315,1.413016,NA,NA,NotTracked,Open,
0.8286133,-0.2211914,-0.409668,-0.9384766,0.3461914,-0.09765625,1,0,-1,-4,0,-1,-5,-29,0,-2,-2,-1,-1,-1,-2,-1,-17.4375,-17.4375,-17.4375,9.1875,9.1875,9.1875,0.7170798,3.197151,3.410881,7.801411,6.93083,5.691177,-0.08983948,-0.4094062,1.503553,0.2198969,0.3727491,1.462764,0.1359045,0.4551875,1.605688,-0.04464454,-0.3926401,1.468532,0.1674217,0.3481042,1.506849,0.1146234,-0.001227569,1.612383,0.1074567,-0.3255213,1.586633,-0.05647851,0.1753822,1.599662,0.01865415,-0.3142042,1.550294,-0.1100026,-0.06677141,1.596783,0.3910685,0.07922904,1.41272,NA,NA,NotTracked,Open,
0.8164063,-0.2685547,-0.4262695,-0.9511719,0.309082,-0.1049805,10,3,2,3,-2,3,-10,4,0,-1,-1,0,-1,-2,0,0,-23.5625,-23.5625,-23.5625,4.4375,4.4375,4.4375,0.7317261,3.195424,3.368235,7.817865,6.930252,5.700146,-0.08852787,-0.408838,1.503209,0.221381,0.3721665,1.464206,0.1358967,0.4551196,1.605968,-0.04236427,-0.3807123,1.468298,0.1571092,0.358184,1.506833,0.1143512,-0.001276466,1.612716,0.1073924,-0.3254099,1.586527,-0.056879,0.174729,1.599494,0.01854705,-0.3140578,1.550032,-0.1099512,-0.0666866,1.596635,0.3912959,0.08029918,1.412755,NA,NA,NotTracked,Open,
0.7788086,-0.3291016,-0.5737305,-0.9375,0.3032227,-0.1103516,5,1,9,15,-7,-7,-4,12,-1,-2,-2,-1,0,-2,-1,0,-33.25,-33.25,-33.25,-6.5625,-6.5625,-6.5625,0.7601392,3.197783,3.305853,7.842776,6.935665,5.729621,-0.08903997,-0.4092671,1.502903,0.2271207,0.3716097,1.465559,0.1358887,0.4550309,1.606284,-0.0422454,-0.3954117,1.466214,0.1566045,0.3616833,1.50663,0.1140726,-0.001229044,1.613063,0.1072957,-0.3251667,1.586425,-0.05720361,0.174325,1.599424,0.01841725,-0.3138265,1.549862,-0.1104713,-0.06435809,1.595672,0.391663,0.08069384,1.413506,NA,NA,NotTracked,Open,
0.8066406,-0.3408203,-0.6987305,-0.940918,0.3022461,-0.1083984,-77,-15,-5,-5,-6,1,-1,-55,-1,-1,-2,0,-1,-1,-2,-1,-67.125,-67.125,-67.125,-15.4375,-15.4375,-15.4375,0.7481029,3.183959,3.249639,7.851821,6.940515,5.754373,-0.08957508,-0.4092353,1.502553,0.2388185,0.3664297,1.46875,0.1353485,0.4550149,1.606935,-0.04336422,-0.3845271,1.468682,0.170049,0.360835,1.526231,0.1136981,-0.001101618,1.61339,0.1072685,-0.3245139,1.586266,-0.05756599,0.1739771,1.599311,0.01840698,-0.3132003,1.549491,-0.1103583,-0.06494161,1.595277,0.3939795,0.07853216,1.417401,NA,NA,NotTracked,Open,
0.8154297,-0.3564453,-0.6186523,-0.9638672,0.2783203,-0.1064453,8,-11,-12,-4,7,6,16,33,0,0,-2,0,-2,-1,0,-2,-112.0625,-112.0625,-112.0625,-15.3125,-15.3125,-15.3125,0.7224756,3.124089,3.151733,7.847226,6.944751,5.767071,-0.0898808,-0.4082679,1.50175,0.2543992,0.3637846,1.475811,0.1338295,0.4556097,1.608203,-0.04291318,-0.3743765,1.468152,0.1761512,0.3655803,1.5365,0.1130574,-0.0007615487,1.6139,0.1073387,-0.3235435,1.586353,-0.05872964,0.1734969,1.599229,0.01856888,-0.312327,1.549302,-0.1100877,-0.06576402,1.59472,0.4106041,0.04996452,1.4534,NA,NA,NotTracked,Open,
0.9433594,-0.2177734,-0.6015625,-0.9755859,0.3134766,-0.08837891,-2,-3,-1,2,-4,-10,-24,-37,-2,0,-1,0,-2,-2,-1,-2,-130.0625,-130.0625,-130.0625,-14,-14,-14,0.695273,3.076222,3.103065,7.834882,6.947937,5.7699,-0.09000445,-0.4083188,1.504208,0.2777588,0.3593324,1.485714,0.1316568,0.4568311,1.609237,-0.04392336,-0.3843054,1.469486,0.2516724,0.3020639,1.500037,0.1126044,-0.0004298642,1.614267,0.107435,-0.3229249,1.58654,-0.06029167,0.1731048,1.599322,0.01866727,-0.3119187,1.549323,-0.109835,-0.06728416,1.594475,0.4138026,0.04763907,1.459255,NA,NA,NotTracked,Open,
0.8901367,-0.2084961,-0.2446289,-0.9658203,0.3198242,-0.07470703,11,21,6,1,-8,-14,8,24,0,-2,0,-1,-1,-1,0,-2,-213.625,-213.625,-213.625,-15.3125,-15.3125,-15.3125,0.5937473,2.960376,2.98525,7.828426,6.949538,5.77189,-0.09049218,-0.4077118,1.504229,0.3038243,0.3597745,1.497806,0.129033,0.4583065,1.610347,-0.04293635,-0.3817052,1.469193,0.2319385,0.3531464,1.458179,0.1125107,-0.0003222844,1.614241,0.1075023,-0.3228407,1.58662,-0.0627739,0.1722776,1.599641,0.01878098,-0.3119264,1.549383,-0.1100745,-0.06733938,1.594605,0.4224971,0.04170999,1.475577,NA,NA,NotTracked,Unknown,
0.8989258,-0.1621094,-0.02880859,-0.9335938,0.3066406,-0.05078125,4,2,7,7,8,-2,-10,-8,-2,-2,-2,-2,0,-2,-1,-1,-215.5625,-215.5625,-215.5625,-4.1875,-4.1875,-4.1875,0.5180073,2.910633,2.940457,7.827755,6.956962,5.781866,-0.09107153,-0.4073633,1.505423,0.3270134,0.3635004,1.511302,0.1274075,0.4592416,1.610711,-0.04339634,-0.3861756,1.469677,0.2556138,0.3631371,1.466524,0.112364,-0.0003333361,1.61419,0.1075376,-0.3228654,1.586674,-0.06490561,0.1716894,1.599867,0.01903828,-0.3121915,1.54948,-0.1108339,-0.07629631,1.594464,0.4295891,0.0403868,1.488238,NA,NA,NotTracked,Unknown,
0.8989258,-0.1621094,-0.02880859,-0.9335938,0.3066406,-0.05078125,4,2,7,7,8,-2,-10,-8,-2,-2,-2,-2,0,-2,-1,-1,-215.5625,-215.5625,-215.5625,-4.1875,-4.1875,-4.1875,0.5180073,2.910633,2.940457,7.827755,6.956962,5.781866,-0.0916665,-0.4066929,1.505704,0.3454003,0.3654941,1.520648,0.1259017,0.4601273,1.610367,-0.04350918,-0.3830409,1.470119,0.2854365,0.3452521,1.499222,0.112069,-0.0003589769,1.61393,0.1074973,-0.3229366,1.586785,-0.06647848,0.1712568,1.59976,0.01914814,-0.3124616,1.549665,-0.1110854,-0.07718781,1.594571,0.4367982,0.03942445,1.502015,NA,NA,NotTracked,NotTracked,
0.9711914,-0.04785156,0.206543,-0.8774414,0.3623047,-0.02783203,-29,3,11,10,-4,-1,-5,29,-1,-2,-2,-1,-1,-1,-3,-2,-140.625,-140.625,-140.625,17.875,17.875,17.875,0.4472311,2.836366,2.727902,7.859188,6.966604,5.800378,-0.09276374,-0.4070415,1.508704,0.3567293,0.3653436,1.528898,0.1244501,0.4607423,1.609838,-0.04376154,-0.3826675,1.470541,0.2972557,0.3465825,1.507321,0.111588,-0.0003841976,1.613564,0.1071931,-0.3229281,1.58701,-0.06854638,0.1734173,1.600464,0.01905331,-0.31256,1.549876,-0.1113216,-0.07761751,1.594975,0.4435086,0.0398163,1.514017,NA,NA,NotTracked,NotTracked,
0.9711914,-0.04785156,0.206543,-0.890625,0.3632813,-0.03564453,-6,-7,-7,-2,6,-1,-3,39,1,0,-1,-2,-1,0,-2,-1,-140.625,-140.625,-140.625,16.0625,16.0625,16.0625,0.4472311,2.836366,2.727902,7.917236,6.97698,5.842664,-0.09398548,-0.405624,1.512373,0.3646263,0.3574284,1.531258,0.1234763,0.4612163,1.609145,-0.04363239,-0.3964532,1.470425,0.3031105,0.3437649,1.509622,0.1110202,-0.0004873318,1.613196,0.1066922,-0.3232237,1.587347,-0.06907171,0.1728536,1.60019,0.01885419,-0.3130484,1.550289,-0.1114294,-0.07808741,1.595322,0.4492029,0.03978823,1.525351,NA,NA,NotTracked,NotTracked,
1.036133,0.08496094,0.09179688,-0.9111328,0.3442383,-0.05078125,16,16,13,10,-8,-9,-4,16,-2,-4,0,-2,-1,-1,0,0,-62.4375,-62.4375,-62.4375,15.0625,15.0625,15.0625,0.5035157,2.841112,2.534679,7.954294,6.983314,5.873472,-0.09603517,-0.406773,1.515423,0.3683091,0.3574913,1.53066,0.1229631,0.4615886,1.608611,-0.04526852,-0.414708,1.47,0.3096085,0.343356,1.510294,0.1105933,-0.0004713869,1.612839,0.1063212,-0.3232363,1.587569,-0.06973199,0.1738523,1.599968,0.01874643,-0.313145,1.550438,-0.1116734,-0.07861891,1.59542,0.4524079,0.03924479,1.534632,NA,NA,NotTracked,NotTracked,
1.030273,-0.08203125,0.03759766,-0.9658203,0.3286133,-0.09033203,3,0,-3,0,-12,-1,-9,-13,1,-1,-2,-2,-1,-1,-2,-2,-28.625,-28.625,-28.625,12.375,12.375,12.375,0.56928,2.853958,2.422214,8.033252,6.993044,5.941431,-0.09818285,-0.4077831,1.519159,0.371211,0.3570902,1.53044,0.1226388,0.4618934,1.607975,-0.04855522,-0.3772903,1.475547,0.3178741,0.3306508,1.524814,0.1103651,-0.0004093465,1.612625,0.1061089,-0.3232247,1.587799,-0.07020193,0.1745923,1.599807,0.01871436,-0.3132876,1.550648,-0.1120795,-0.079881,1.595391,0.4544701,0.03905258,1.541632,NA,NA,NotTracked,NotTracked,
1.029297,-0.0546875,0.0004882813,-0.9897461,0.3051758,-0.112793,-4,-2,-7,4,0,3,9,-3,0,-2,-3,0,-3,-2,-1,-1,-12.4375,-12.4375,-12.4375,1.75,1.75,1.75,0.6005727,2.855547,2.383284,8.087528,6.998432,5.993314,-0.1014168,-0.4076456,1.521174,0.3732101,0.3569051,1.528538,0.1224872,0.4621397,1.607213,-0.05100418,-0.3855262,1.475707,0.3136669,0.3406891,1.509341,0.1100988,-0.0004095432,1.612345,0.1058443,-0.3233105,1.587979,-0.07052293,0.1752429,1.599426,0.01865174,-0.3134342,1.550753,-0.1127486,-0.07909405,1.594935,0.4562336,0.03871183,1.54509,NA,NA,NotTracked,NotTracked,
0.9711914,-0.05712891,-0.02832031,-0.9760742,0.2666016,-0.1220703,-25,-12,-9,-4,-3,1,-7,3,0,0,-2,-1,-1,-1,-1,-1,-13.375,-13.375,-13.375,-0.75,-0.75,-0.75,0.6253425,2.847178,2.341176,8.102089,7.000246,6.009044,-0.1027566,-0.4078175,1.524488,0.3742282,0.3566984,1.52943,0.1225676,0.4622989,1.606955,-0.05105241,-0.3863307,1.476187,0.3189419,0.3354173,1.518495,0.1100024,-0.0003761634,1.612284,0.1056581,-0.3232737,1.588266,-0.07078607,0.1759612,1.599341,0.01863636,-0.3134597,1.550812,-0.1132348,-0.07855655,1.594856,0.4574038,0.03817227,1.548208,NA,NA,NotTracked,Open,
0.9711914,-0.05712891,-0.02832031,-0.9550781,0.2851563,-0.09179688,8,1,7,1,-2,-3,-5,-9,-1,-2,1,-2,-1,-2,0,-1,-13.375,-13.375,-13.375,0.125,0.125,0.125,0.6253425,2.847178,2.341176,8.07488,6.99777,5.980595,-0.1041746,-0.407509,1.524035,0.3748556,0.3560233,1.528131,0.1227485,0.4624103,1.606513,-0.0514553,-0.3904661,1.475056,0.3218082,0.3301845,1.52253,0.1098965,-0.0004179277,1.612162,0.1055358,-0.323425,1.588426,-0.07091182,0.1754172,1.598934,0.01862619,-0.3136224,1.550854,-0.1135058,-0.07937171,1.594779,0.4580517,0.03762485,1.549072,NA,NA,NotTracked,Open,
0.9301758,-0.08935547,-0.1010742,-0.9262695,0.315918,-0.07861328,-4,-1,-3,7,2,-1,6,-2,-2,-1,-1,-1,-1,-1,0,-1,16.875,16.875,16.875,3.1875,3.1875,3.1875,0.7312726,2.821348,2.254266,8.025552,6.989365,5.926311,-0.1041089,-0.4077121,1.524164,0.3749342,0.3569679,1.528098,0.1228594,0.4624624,1.606426,-0.05288153,-0.3948209,1.47592,0.3165082,0.3352434,1.517217,0.1098669,-0.0004485231,1.612143,0.105446,-0.323591,1.588771,-0.07099319,0.1756874,1.598845,0.0186661,-0.3138018,1.551014,-0.1135306,-0.07968245,1.59474,0.4583762,0.03726186,1.549822,NA,NA,NotTracked,Open,
0.9477539,-0.07373047,-0.1743164,-0.9287109,0.3442383,-0.06298828,4,14,3,10,3,-5,-11,10,-2,0,0,0,-1,-2,-1,1,22.8125,22.8125,22.8125,-2.5625,-2.5625,-2.5625,0.78181,2.817867,2.227221,7.972444,6.977016,5.871895,-0.1032053,-0.4068173,1.520305,0.3733381,0.3549257,1.523792,0.1231959,0.4626505,1.606183,-0.0536125,-0.3805156,1.478614,0.3149875,0.3357964,1.515813,0.1098955,-0.0005066349,1.612037,0.1055332,-0.3238831,1.589071,-0.07112008,0.1754169,1.598316,0.01884445,-0.3142209,1.551109,-0.1141436,-0.08073488,1.594205,0.4587922,0.03695604,1.549856,NA,NA,NotTracked,Unknown,
0.9477539,-0.07373047,-0.1743164,-0.940918,0.324707,-0.07177734,2,5,0,-1,6,6,7,-5,0,-1,-1,0,1,-2,-2,-2,22.8125,22.8125,22.8125,-10.75,-10.75,-10.75,0.78181,2.817867,2.227221,7.92455,6.966674,5.832451,-0.1022413,-0.4061296,1.517816,0.3729524,0.3543829,1.522108,0.1232746,0.4627528,1.606141,-0.051241,-0.38794,1.476257,0.3155278,0.3342853,1.515424,0.1098819,-0.0004953469,1.612015,0.1055069,-0.3239179,1.589199,-0.07125214,0.1761212,1.59825,0.01884927,-0.3142281,1.551112,-0.1141485,-0.0808147,1.594167,0.4587006,0.03643084,1.549632,NA,NA,NotTracked,Unknown,
0.9746094,-0.1425781,-0.1660156,-0.9506836,0.3061523,-0.07519531,-5,-7,-3,-1,-4,-6,-9,-6,0,-2,-1,0,-1,-1,-1,-1,22.4375,22.4375,22.4375,-11.0625,-11.0625,-11.0625,0.8496727,2.814526,2.1891,7.905141,6.96273,5.818537,-0.1011056,-0.4052221,1.514799,0.3713537,0.3543026,1.520074,0.123388,0.4628496,1.606099,-0.05148708,-0.3873454,1.476598,0.3115792,0.3360659,1.510124,0.1098586,-0.0004835811,1.611999,0.1055318,-0.3239064,1.589364,-0.07140666,0.1765634,1.598203,0.01888758,-0.3142242,1.551132,-0.1141079,-0.08088692,1.594076,0.457898,0.0355227,1.549124,NA,NA,NotTracked,Open,
0.9746094,-0.04931641,-0.1953125,-0.9492188,0.2998047,-0.08496094,-2,-5,-7,4,10,-8,-11,29,-1,0,-1,0,-1,-2,-2,0,24.75,24.75,24.75,-7.125,-7.125,-7.125,0.8582404,2.814112,2.193729,7.873232,6.955935,5.793519,-0.09968816,-0.4052214,1.512904,0.3706646,0.3531662,1.518562,0.1233967,0.4628631,1.606133,-0.05101531,-0.3866758,1.476425,0.3111138,0.3374529,1.504806,0.1098434,-0.000499393,1.611995,0.105544,-0.3239801,1.589511,-0.07159244,0.1768696,1.598333,0.01893104,-0.3143362,1.551185,-0.1140064,-0.08096978,1.593976,0.4573538,0.0348384,1.548742,NA,NA,NotTracked,Open,
0.9550781,-0.1259766,-0.1665039,-0.9501953,0.2978516,-0.08935547,33,16,6,-2,0,5,3,-6,-2,0,-1,-2,-2,0,-2,-1,13.25,13.25,13.25,-7.125,-7.125,-7.125,0.8735352,2.819503,2.198485,7.84274,6.950107,5.768905,-0.09902314,-0.403234,1.510042,0.3694758,0.352818,1.516617,0.1234029,0.4629252,1.60614,-0.05043567,-0.3899628,1.47495,0.3138493,0.3286696,1.512799,0.1098546,-0.0005350828,1.611934,0.1056264,-0.3241354,1.589539,-0.07163052,0.1760825,1.598144,0.01905114,-0.3145916,1.551201,-0.1137978,-0.08097804,1.593863,0.4569948,0.03467197,1.547656,NA,NA,NotTracked,Unknown,
0.9658203,-0.08886719,-0.1845703,-0.9487305,0.2919922,-0.09765625,-5,-1,-1,0,7,-14,-31,-41,0,-1,-2,-1,0,-2,-2,-1,14.0625,14.0625,14.0625,-6.0625,-6.0625,-6.0625,0.87045,2.821188,2.218193,7.81439,6.945632,5.745763,-0.09692936,-0.4017082,1.50737,0.3686935,0.3531422,1.514901,0.1233817,0.4630059,1.606191,-0.04991133,-0.3847263,1.475579,0.313545,0.3311705,1.512843,0.1098511,-0.0005333415,1.611909,0.1056852,-0.3242,1.589557,-0.07166617,0.1755741,1.598109,0.01914397,-0.3147321,1.551238,-0.1136298,-0.08089663,1.593683,0.456544,0.0345023,1.546416,NA,NA,NotTracked,Unknown,
0.9384766,-0.1079102,-0.1621094,-0.9335938,0.2900391,-0.121582,-26,-4,1,0,-1,11,20,-2,-2,-1,-1,0,-1,0,0,-2,9.625,9.625,9.625,-0.5625,-0.5625,-0.5625,0.8652105,2.822414,2.229285,7.808181,6.943403,5.740083,-0.09555862,-0.4039571,1.50563,0.3680783,0.3528226,1.514179,0.1233812,0.4630982,1.60627,-0.04960092,-0.386165,1.47532,0.3126508,0.3295271,1.509572,0.1098394,-0.00051607,1.611897,0.1056714,-0.324174,1.589608,-0.07196842,0.1762262,1.598569,0.01914968,-0.3147287,1.551263,-0.1135366,-0.08084386,1.593615,0.4561483,0.03449919,1.545254,NA,NA,NotTracked,Open,
0.8999023,-0.1337891,-0.1508789,-0.9233398,0.3144531,-0.1225586,-1,-11,-37,-12,-18,-6,0,3,-1,-2,0,0,-1,-1,-2,0,16.75,16.75,16.75,-2.3125,-2.3125,-2.3125,0.8702493,2.827754,2.249335,7.823,6.945138,5.755185,-0.09449761,-0.4032255,1.5046,0.366897,0.3527579,1.512506,0.1233581,0.4631369,1.606305,-0.04810349,-0.3838944,1.474679,0.3105454,0.3324535,1.508633,0.1098129,-0.000484567,1.61188,0.1056586,-0.3241369,1.589656,-0.07210966,0.1770068,1.599131,0.01915648,-0.31471,1.551308,-0.1130975,-0.0806528,1.593488,0.4557232,0.03439167,1.5442,NA,NA,NotTracked,Open,
0.8251953,-0.09667969,-0.1367188,-0.925293,0.3139648,-0.1137695,21,30,15,2,4,-7,-59,-48,1,-3,0,1,-1,-1,-1,-1,16.875,16.875,16.875,-7.125,-7.125,-7.125,0.8730482,2.831831,2.267587,7.831377,6.947207,5.767678,-0.09376836,-0.4032651,1.504758,0.3665365,0.3518156,1.511363,0.1233242,0.4631981,1.606289,-0.04762249,-0.3816808,1.47455,0.3117642,0.3312889,1.512399,0.1098104,-0.0004870986,1.611876,0.1056442,-0.3241184,1.58971,-0.0720474,0.1774681,1.599513,0.01915047,-0.3146997,1.551395,-0.1128219,-0.08077028,1.593397,0.4551831,0.0340478,1.543261,NA,NA,NotTracked,Unknown,
0.8100586,-0.1015625,-0.07958984,-0.9013672,0.277832,-0.08251953,-47,-1,2,0,2,-4,-55,-30,-1,-2,-1,-2,-2,0,-1,-2,6.625,6.625,6.625,-6.5,-6.5,-6.5,0.8874951,2.833764,2.255921,7.846278,6.95419,5.791461,-0.09384409,-0.404526,1.505165,0.3659429,0.3495177,1.508712,0.1232381,0.4632839,1.606341,-0.04869901,-0.3864041,1.474949,0.3071763,0.3323497,1.507798,0.1098066,-0.0004940096,1.611864,0.1056115,-0.3241144,1.589739,-0.07211615,0.1776396,1.599889,0.01912372,-0.3147054,1.551447,-0.112613,-0.08073454,1.593391,0.4537164,0.03274563,1.542288,NA,NA,NotTracked,Unknown,
0.5507813,-0.199707,-0.003417969,-0.9350586,0.3027344,-0.05322266,2,-2,4,-2,-3,0,2,-14,0,0,-2,1,-2,-1,0,0,27.125,27.125,27.125,1.625,1.625,1.625,1.042244,2.862303,2.119072,7.860734,6.960912,5.807463,-0.09412298,-0.4057591,1.508273,0.3614344,0.3426903,1.48638,0.1230562,0.4634941,1.606372,-0.04726371,-0.3908775,1.473836,0.2829167,0.32948,1.464633,0.1097162,-0.0005270147,1.611823,0.1055653,-0.3241866,1.589792,-0.0722476,0.1768526,1.60014,0.01906697,-0.3149829,1.551687,-0.1122968,-0.08081155,1.593636,0.4476733,0.02679518,1.541393,NA,NA,NotTracked,Open,
0.5610352,-0.1640625,0.02050781,-0.9584961,0.3359375,-0.05761719,1,5,-6,-5,-6,-5,-8,-5,-1,-2,-2,-3,0,-1,-1,1,77,77,77,1.3125,1.3125,1.3125,1.496949,3.01328,1.759114,7.881052,6.966402,5.827284,-0.09476413,-0.4056491,1.510067,0.3606045,0.3280904,1.462002,0.122867,0.4636374,1.606303,-0.04798567,-0.3830956,1.474516,0.2946559,0.2988969,1.504368,0.1097195,-0.0005377851,1.611779,0.1055533,-0.3241912,1.589796,-0.07224689,0.1768638,1.600267,0.01904192,-0.3150133,1.551748,-0.1122324,-0.08089832,1.593797,0.4409978,0.01982661,1.542905,NA,NA,NotTracked,Open,
0.4702148,-0.1269531,0.05322266,-0.9555664,0.347168,-0.05175781,-4,1,-2,-4,-2,-5,-8,-3,0,0,0,-1,0,-1,-1,-1,90.625,90.625,90.625,-2.125,-2.125,-2.125,1.688329,3.112535,1.609285,7.889912,6.970126,5.838167,-0.09507766,-0.406953,1.512225,0.3584941,0.302312,1.430363,0.122522,0.4638898,1.606171,-0.0481058,-0.3900778,1.473506,0.2723573,0.2809207,1.390048,0.1096639,-0.0006004138,1.611701,0.1054942,-0.324304,1.589832,-0.07220643,0.175619,1.600112,0.01898567,-0.3152068,1.551898,-0.1121162,-0.0807679,1.594213,0.4305448,0.009611368,1.546567,NA,NA,NotTracked,Open,
0.4379883,-0.2519531,0.04589844,-0.9956055,0.3149414,-0.07275391,-1,-1,-3,-5,-6,-1,-1,-1,-1,-1,-1,0,-1,-1,0,-1,102.8125,102.8125,102.8125,-15.625,-15.625,-15.625,1.996841,3.397613,1.392312,7.910997,6.981935,5.881359,-0.09559211,-0.4073637,1.514706,0.3560769,0.2552968,1.392876,0.1219532,0.4643381,1.606014,-0.0484281,-0.382033,1.474796,0.2712139,0.2454444,1.348833,0.1093038,-0.0008020939,1.612088,0.1054929,-0.3243365,1.58986,-0.07221466,0.1757559,1.600537,0.01900488,-0.3153085,1.552012,-0.1120172,-0.08092415,1.594567,0.4159653,-0.003044747,1.553359,NA,NA,NotTracked,Open,
0.4414063,-0.3305664,-0.015625,-0.984375,0.2978516,-0.08105469,2,-2,-1,-2,-1,23,6,-3,-1,0,-2,-1,-1,-1,0,-1,88.0625,88.0625,88.0625,-11.5,-11.5,-11.5,2.103081,3.57476,1.32255,7.912733,6.987517,5.889832,-0.09539974,-0.4083232,1.51645,0.355128,0.197636,1.349886,0.1213192,0.4647178,1.605934,-0.04864305,-0.3861877,1.474681,0.2821701,0.1941398,1.329111,0.108902,-0.001112193,1.612428,0.1055036,-0.324582,1.589934,-0.07236125,0.1757044,1.600897,0.01903787,-0.3155649,1.552052,-0.111903,-0.08096297,1.595004,0.3782677,-0.02866545,1.591895,NA,NA,NotTracked,Open,
0.2290039,-0.8896484,-0.1645508,-0.956543,0.340332,-0.08935547,12,4,0,2,18,13,3,6,-1,-2,-1,0,-1,-1,-1,1,115.9375,115.9375,115.9375,-2.0625,-2.0625,-2.0625,2.344793,4.243599,1.219689,7.908872,6.994156,5.889044,-0.09443258,-0.4091965,1.518816,0.3570929,0.1245786,1.321453,0.1206015,0.4649317,1.605866,-0.04843004,-0.3841815,1.475525,0.3128311,0.1428467,1.311909,0.1089609,-0.001130799,1.612359,0.1056724,-0.3246726,1.590156,-0.07267943,0.1755452,1.601424,0.01924858,-0.315804,1.552278,-0.111644,-0.08262055,1.596241,0.3756782,-0.0646926,1.605121,NA,NA,NotTracked,Open,
0.2290039,-0.8896484,-0.1645508,-0.9272461,0.324707,-0.08642578,0,-2,-1,0,-11,-7,-2,-7,0,-1,1,-2,-2,0,-1,-2,115.9375,115.9375,115.9375,-8.5,-8.5,-8.5,2.344793,4.243599,1.219689,7.885958,6.995761,5.873158,-0.09356362,-0.4091639,1.519633,0.3587558,0.03235278,1.311449,0.1198596,0.4651548,1.605805,-0.04796709,-0.3836899,1.475372,0.3091128,0.04183096,1.321667,0.1089764,-0.00111194,1.612314,0.1058521,-0.3246998,1.59038,-0.07299221,0.1755305,1.602018,0.0194819,-0.3159295,1.552493,-0.1115231,-0.08243112,1.596757,0.3624579,-0.07301059,1.609112,NA,NA,NotTracked,Open,
-0.1542969,-0.8979492,-0.1494141,-0.9301758,0.3461914,-0.08691406,5,2,2,4,9,2,5,2,1,-1,-1,-1,0,0,-1,0,55.9375,55.9375,55.9375,-7.6875,-7.6875,-7.6875,2.45719,4.952758,1.23087,7.862795,6.99226,5.857988,-0.09325591,-0.4115539,1.521385,0.3524879,-0.05244194,1.304372,0.1192353,0.4653627,1.605864,-0.04845422,-0.3865017,1.47533,0.3194025,-0.02415992,1.278143,0.1089782,-0.001116885,1.612302,0.1059421,-0.3247523,1.590579,-0.07326189,0.1755318,1.602675,0.01962118,-0.3160412,1.552592,-0.1113497,-0.08211947,1.597616,0.3423578,-0.07438335,1.61677,NA,NA,NotTracked,Unknown,
-0.4707031,-1.19043,-0.1391602,-0.9550781,0.3544922,-0.08056641,-10,-2,-1,2,-3,-8,1,0,-3,0,-2,-3,-1,-1,-1,-1,-23.8125,-23.8125,-23.8125,-17.375,-17.375,-17.375,2.461615,5.372144,1.25936,7.842557,6.985168,5.853625,-0.09246069,-0.4117429,1.519999,0.3423721,-0.1312058,1.308369,0.118698,0.4653748,1.605816,-0.04844748,-0.3864904,1.475088,0.3041201,-0.106401,1.2938,0.1090091,-0.001242625,1.612106,0.106055,-0.3248876,1.590605,-0.07356229,0.1753451,1.603232,0.01980905,-0.3163587,1.552643,-0.1113809,-0.08308382,1.598127,0.3532052,-0.033641,1.635494,NA,NA,NotTracked,Unknown,
-0.5898438,-1.197266,-0.1572266,-0.956543,0.3222656,-0.08007813,5,-3,-1,1,3,-1,-1,1,-2,0,-2,-2,-2,-1,-1,-1,-45.125,-45.125,-45.125,-19.5,-19.5,-19.5,2.437862,5.568764,1.267022,7.835561,6.983122,5.857472,-0.09187712,-0.4115143,1.520019,0.3284936,-0.1957759,1.3258,0.1180846,0.4654827,1.605927,-0.04843835,-0.3858959,1.475307,0.2870216,-0.1813517,1.3028,0.1090249,-0.00125115,1.612082,0.1063474,-0.3249027,1.590755,-0.07390215,0.1754288,1.603866,0.02012002,-0.3164851,1.552723,-0.1111253,-0.08279561,1.598905,0.3450439,-0.03662318,1.632699,NA,NA,NotTracked,Unknown,
-0.7387695,-1.256836,-0.2324219,-0.9604492,0.3168945,-0.07910156,-2,-1,0,1,-3,-2,2,-1,-2,-1,0,-1,-2,-1,-1,-1,-74.75,-74.75,-74.75,-5.25,-5.25,-5.25,2.353014,6.052567,1.290269,7.836386,6.978436,5.875039,-0.09164002,-0.4127374,1.51919,0.3129203,-0.3031922,1.372217,0.1173082,0.4655194,1.605922,-0.04763032,-0.3824239,1.475281,0.3148395,-0.2925681,1.311846,0.1094955,-0.001667837,1.611512,0.1074279,-0.3257172,1.590645,-0.07426289,0.1743332,1.604315,0.02119716,-0.3176222,1.552611,-0.1107088,-0.0842789,1.600332,0.3369126,-0.0521422,1.615609,NA,NA,NotTracked,Unknown,
-1.128418,-1.138184,-0.2275391,-0.9536133,0.3134766,-0.08154297,17,1,1,3,-7,-8,-3,0,1,0,-1,-2,-1,-2,0,-1,-40.8125,-40.8125,-40.8125,-4.25,-4.25,-4.25,2.254134,6.31987,1.233532,7.842077,6.977107,5.883492,-0.09109012,-0.4117357,1.519281,0.3061645,-0.3537371,1.391274,0.1169934,0.4655809,1.605799,-0.04683475,-0.390925,1.475144,0.2674181,-0.3458019,1.372143,0.1098737,-0.001830153,1.611267,0.1083252,-0.3261984,1.590698,-0.0748787,0.1745899,1.60548,0.02210947,-0.3182104,1.552597,-0.1105007,-0.08410219,1.60102,0.3335776,-0.06351945,1.609333,NA,NA,NotTracked,Unknown,
-1.187012,-1.061523,-0.190918,-0.940918,0.3120117,-0.078125,2,0,0,-1,-1,0,0,1,1,-2,-1,-2,-4,0,0,-2,-31.6875,-31.6875,-31.6875,-2,-2,-2,2.212672,6.435308,1.201839,7.853259,6.976429,5.898135,-0.09208871,-0.4117309,1.519465,0.2998489,-0.3798803,1.417251,0.1167491,0.4656405,1.605564,-0.04832634,-0.386296,1.475424,0.2604326,-0.3724086,1.399927,0.1102095,-0.002029752,1.611033,0.1089546,-0.3266846,1.59081,-0.07511383,0.1749309,1.60608,0.02288195,-0.3186626,1.552716,-0.1104457,-0.08507499,1.601457,0.3301494,-0.06924659,1.606745,NA,NA,NotTracked,Open,
-1.093262,-0.6396484,-0.3071289,-0.9287109,0.3085938,-0.07421875,-3,0,-1,-2,6,5,3,0,-1,-1,-2,-1,-1,-1,-1,-2,-40.375,-40.375,-40.375,-2.375,-2.375,-2.375,2.096931,6.706332,1.13464,7.862806,6.976672,5.910676,-0.09185694,-0.4121208,1.51974,0.2946137,-0.3941622,1.446057,0.1166394,0.4656609,1.605477,-0.04816061,-0.386081,1.475279,0.2522001,-0.3999368,1.421706,0.1104464,-0.002245557,1.610853,0.1094562,-0.3271742,1.59093,-0.07505962,0.1751374,1.606508,0.02342311,-0.319158,1.552784,-0.1102608,-0.08643842,1.602067,0.3274131,-0.07213742,1.605218,NA,NA,NotTracked,Open,
-1.093262,-0.6396484,-0.3071289,-0.9326172,0.3046875,-0.07080078,0,-1,-2,-3,-1,-1,-1,-1,-1,1,-2,-1,1,0,-1,-3,-40.375,-40.375,-40.375,0.8125,0.8125,0.8125,2.096931,6.706332,1.13464,7.873713,6.979302,5.92249,-0.09237108,-0.412625,1.51929,0.2880418,-0.400119,1.466979,0.1165082,0.4656724,1.605203,-0.04764963,-0.3831514,1.475278,0.2424422,-0.4031126,1.451189,0.1106497,-0.002392643,1.610524,0.1097219,-0.3273771,1.590892,-0.07520914,0.1753134,1.606751,0.02366467,-0.3193811,1.552828,-0.1102591,-0.08591849,1.602392,0.3249982,-0.07335855,1.604336,NA,NA,NotTracked,Unknown,
