ALX,ALY,ALZ,ARX,ARY,ARZ,EMG0L,EMG1L,EMG2L,EMG3L,EMG4L,EMG5L,EMG6L,EMG7L,EMG0R,EMG1R,EMG2R,EMG3R,EMG4R,EMG5R,EMG6R,EMG7R,GLX,GLY,GLZ,GRX,GRY,GRZ,ORL,OPL,OYL,ORR,OPR,OYR,LHNX,LHNY,LHNZ,RHNX,RHNY,RHNZ,HX,HY,HZ,LTX,LTY,LTZ,RTX,RTY,RTZ,SpineMidX,SpineMidY,SpineMidZ,SpineBaseX,SpineBaseY,SpineBaseZ,ShoulderLeftX,ShoulderLeftY,ShoulderLeftZ,ShoulderRightX,ShoulderRightY,ShoulderRightZ,ElbowLeftX,ElbowLeftY,ElbowLeftZ,ElbowRightX,ElbowRightY,ElbowRightZ,Myo_Pose_left,Myo_Pose_Right,Kinect_pose_left,Kinect_pose_right
-0.9350586,-0.3295898,-0.2094727,-0.9438477,0.3217773,-0.05761719,-3,-3,0,1,-2,-2,-1,-2,0,-2,-1,1,-2,-1,-2,-1,0.5,0.5,0.5,0.1875,0.1875,0.1875,1.574514,6.882171,1.088391,7.72396,6.956124,3.980065,-0.1029472,-0.4112431,1.572119,0.2898124,-0.4081905,1.519757,0.08656737,0.470963,1.679898,-0.05880051,-0.4015833,1.524064,0.2361246,-0.4002248,1.50588,0.0963117,-0.004657345,1.657795,0.09964239,-0.3354498,1.636317,-0.08845767,0.1737822,1.661793,0.0142444,-0.3293738,1.604994,-0.1203636,-0.08838545,1.663522,0.3029875,-0.09401007,1.625062,NA,NA,NotTracked,NotTracked,
-0.9394531,-0.328125,-0.2036133,-0.9462891,0.3325195,-0.05664063,1,2,0,-3,0,-2,0,0,-1,-4,-2,-2,-1,-1,0,0,3.5,3.5,3.5,0.375,0.375,0.375,1.580776,6.883525,1.091143,7.729247,6.957713,3.984886,-0.1024294,-0.4113869,1.572853,0.290187,-0.4082537,1.519792,0.08681814,0.4708725,1.680288,-0.05982132,-0.3802896,1.527979,0.2357715,-0.3846614,1.50964,0.09631934,-0.004688289,1.65796,0.09964625,-0.3354546,1.636358,-0.08862633,0.1732679,1.662181,0.01425361,-0.3293979,1.605086,-0.1202806,-0.08837131,1.663569,0.3031532,-0.09387805,1.625285,NA,NA,NotTracked,NotTracked,
-0.9414063,-0.3222656,-0.2036133,-0.9487305,0.3295898,-0.05761719,-2,-1,-1,0,-1,-1,0,-1,-3,1,0,-3,-2,-1,-1,-1,2.9375,2.9375,2.9375,1.625,1.625,1.625,1.587604,6.885075,1.094708,7.733754,6.95928,3.989107,-0.1031283,-0.4073228,1.573613,0.2901334,-0.4087449,1.520393,0.08702733,0.470855,1.680603,-0.06015104,-0.3815102,1.527558,0.2377544,-0.4073021,1.50555,0.09638596,-0.004723628,1.658058,0.09970674,-0.3354376,1.636395,-0.08689223,0.1747621,1.661566,0.01430218,-0.3293679,1.605086,-0.1202058,-0.08837856,1.663571,0.3031921,-0.09389529,1.625429,NA,NA,NotTracked,NotTracked,
-0.940918,-0.324707,-0.2001953,-0.9389648,0.3349609,-0.05712891,2,1,-1,-2,-2,-1,0,0,-2,-2,-1,0,-2,-1,-2,-1,2.3125,2.3125,2.3125,0.0625,0.0625,0.0625,1.59345,6.886439,1.097283,7.737006,6.959844,3.990841,-0.1031372,-0.4081812,1.574237,0.2900714,-0.4086513,1.52021,0.08731446,0.47085,1.680903,-0.06011436,-0.382995,1.527039,0.23768,-0.4053909,1.505998,0.09641396,-0.004768502,1.658183,0.09973107,-0.3354682,1.636426,-0.08721585,0.1741577,1.661888,0.01432992,-0.3293973,1.605091,-0.1201072,-0.08842757,1.663572,0.3032984,-0.09392688,1.62569,NA,NA,NotTracked,NotTracked,
-0.9418945,-0.3227539,-0.2055664,-0.9365234,0.3295898,-0.046875,-1,-2,-1,-1,-1,-1,0,-1,-1,-2,1,-1,0,-1,-1,-1,0.1875,0.1875,0.1875,-0.1875,-0.1875,-0.1875,1.59345,6.886439,1.097283,7.738204,6.960723,3.993355,-0.1028376,-0.4081171,1.575346,0.2905377,-0.4088617,1.521422,0.08762012,0.4706488,1.681193,-0.05993083,-0.3873899,1.526208,0.2379604,-0.4065982,1.506681,0.09653121,-0.004817816,1.658327,0.09987184,-0.3354622,1.636433,-0.08733964,0.1739146,1.66218,0.01443298,-0.329404,1.605082,-0.1199145,-0.08946842,1.664017,0.3033917,-0.0940164,1.62606,NA,NA,NotTracked,NotTracked,
-0.9389648,-0.3222656,-0.2070313,-0.934082,0.3325195,-0.04833984,1,4,0,0,-1,0,1,-1,-1,-3,-2,0,-2,-1,-1,-2,-0.5625,-0.5625,-0.5625,1.3125,1.3125,1.3125,1.59345,6.886439,1.097283,7.740496,6.961237,3.994195,-0.1026739,-0.4089779,1.574516,0.2904422,-0.4081949,1.520624,0.0878085,0.4705542,1.681315,-0.05923523,-0.3904538,1.525421,0.2377231,-0.4144088,1.503276,0.09669933,-0.004876871,1.658437,0.1000811,-0.3354609,1.636443,-0.08753517,0.1734913,1.662383,0.014618,-0.3294114,1.605045,-0.1198581,-0.08946507,1.664037,0.3034463,-0.09403265,1.626143,NA,NA,NotTracked,NotTracked,
-0.9389648,-0.3291016,-0.2001953,-0.9394531,0.340332,-0.04785156,-2,-2,-1,-1,0,0,1,0,0,-1,-1,-2,0,-1,-1,0,-0.6875,-0.6875,-0.6875,0.5,0.5,0.5,1.594931,6.886587,1.099594,7.741749,6.960782,3.995313,-0.1024294,-0.4082586,1.576161,0.2907826,-0.408783,1.521531,0.08811793,0.4706227,1.681597,-0.05900783,-0.3950318,1.526963,0.2366734,-0.3803617,1.51275,0.09676867,-0.004869192,1.658656,0.1001213,-0.3354087,1.636679,-0.08621865,0.1747176,1.661988,0.01465803,-0.3293225,1.605242,-0.1198135,-0.08943066,1.664099,0.3035701,-0.09388608,1.626348,NA,NA,NotTracked,NotTracked,
-0.9379883,-0.3271484,-0.2036133,-0.9448242,0.3325195,-0.04248047,-1,0,-1,-1,-1,0,-2,1,-1,-3,0,-1,-1,-2,0,-2,0.0625,0.0625,0.0625,-0.4375,-0.4375,-0.4375,1.595147,6.88659,1.099693,7.741444,6.960663,3.99482,-0.1021419,-0.4083255,1.576347,0.2905708,-0.4087223,1.52127,0.08839089,0.4706273,1.681698,-0.05942509,-0.3869941,1.526971,0.2381456,-0.4068771,1.50627,0.09694077,-0.004948992,1.658826,0.1002464,-0.3354704,1.636793,-0.08633608,0.1744092,1.662287,0.0147584,-0.3293746,1.605305,-0.1197134,-0.08918344,1.664297,0.3037506,-0.09371872,1.626661,NA,NA,NotTracked,NotTracked,
-0.9375,-0.3286133,-0.2011719,-0.9482422,0.3334961,-0.04541016,0,0,0,0,0,-2,-2,-1,-1,-3,-2,-2,-2,-1,0,-2,-0.625,-0.625,-0.625,0.4375,0.4375,0.4375,1.595318,6.886482,1.100002,7.741444,6.960663,3.99482,-0.1024483,-0.4079285,1.576464,0.2906785,-0.4089067,1.521319,0.08859473,0.4706152,1.681747,-0.05925775,-0.391095,1.526065,0.2380403,-0.4075559,1.506,0.09702092,-0.004978754,1.658957,0.1003324,-0.3355084,1.6369,-0.08648373,0.1740446,1.66257,0.01485795,-0.3294099,1.605405,-0.1196409,-0.08908154,1.664433,0.3037954,-0.09377612,1.626778,NA,NA,NotTracked,NotTracked,
-0.9438477,-0.3325195,-0.1938477,-0.9477539,0.3339844,-0.04980469,4,-3,-2,-2,-2,-1,-1,-2,-1,0,-1,-2,-1,0,-1,-2,0.25,0.25,0.25,1.4375,1.4375,1.4375,1.596148,6.886578,1.100697,7.74052,6.960224,3.992246,-0.1020302,-0.4074345,1.576523,0.2909099,-0.4084105,1.521633,0.08897146,0.4706895,1.681896,-0.05902515,-0.3711551,1.529792,0.2366034,-0.3815497,1.511567,0.09717497,-0.005005815,1.65905,0.1005434,-0.3355131,1.636941,-0.0866043,0.1738512,1.662773,0.01504129,-0.3294258,1.605377,-0.1193493,-0.08881129,1.66463,0.3039829,-0.09366242,1.627029,NA,NA,NotTracked,NotTracked,
-0.940918,-0.3208008,-0.2026367,-0.9462891,0.3378906,-0.05078125,-1,-1,0,-3,-3,1,-1,0,-1,-1,0,-3,-1,-1,-1,-2,1.5,1.5,1.5,1,1,1,1.600015,6.887138,1.102038,7.738757,6.959544,3.989322,-0.1015814,-0.4086597,1.575683,0.2912905,-0.4093234,1.522088,0.0894745,0.4706311,1.682195,-0.05802244,-0.3977957,1.525633,0.2363068,-0.3862609,1.510406,0.09758773,-0.005058476,1.659299,0.1010047,-0.3355,1.637066,-0.08667976,0.1732897,1.663354,0.01548211,-0.3294278,1.605491,-0.1190606,-0.08846147,1.664984,0.3042414,-0.09348132,1.62753,NA,NA,NotTracked,NotTracked,
-0.934082,-0.3222656,-0.1948242,-0.9365234,0.3295898,-0.05615234,1,1,0,0,0,-1,0,0,-1,-1,-3,0,0,-1,0,-1,1,1,1,1,1,1,1.601871,6.887571,1.102601,7.738955,6.959458,3.988718,-0.1022181,-0.4076746,1.577114,0.2914857,-0.4086955,1.522294,0.08968545,0.47058,1.682315,-0.05871033,-0.3890768,1.526912,0.2370222,-0.380317,1.512403,0.09773937,-0.00507476,1.659445,0.1011564,-0.3354865,1.637238,-0.08512839,0.1748979,1.662594,0.01558787,-0.3294027,1.605535,-0.1189098,-0.08842994,1.665155,0.3042728,-0.09358307,1.627912,NA,NA,NotTracked,NotTracked,
-0.9360352,-0.3276367,-0.1977539,-0.9399414,0.3291016,-0.05175781,-2,0,0,-2,-1,-1,-1,-1,-1,1,-1,0,-2,-1,0,-2,0.875,0.875,0.875,2,2,2,1.602084,6.887976,1.102783,7.74008,6.959125,3.988186,-0.1009577,-0.4085331,1.57549,0.2914483,-0.4085137,1.521635,0.0899505,0.47047,1.682402,-0.05864754,-0.3889332,1.526841,0.238247,-0.4055307,1.506057,0.0978616,-0.005128158,1.659538,0.1012536,-0.3355142,1.637379,-0.0852443,0.1745166,1.662843,0.01569398,-0.329425,1.605685,-0.1187092,-0.08847412,1.665119,0.304421,-0.09359507,1.628122,NA,NA,NotTracked,NotTracked,
-0.940918,-0.3251953,-0.1928711,-0.9443359,0.3320313,-0.05517578,-1,3,2,-2,0,0,0,-2,-2,0,0,-2,0,-3,-2,-1,2,2,2,3.0625,3.0625,3.0625,1.604735,6.888152,1.102938,7.742331,6.959065,3.986241,-0.1009429,-0.4077821,1.575445,0.2918262,-0.4087575,1.521858,0.09015253,0.4703619,1.68255,-0.05906557,-0.371079,1.529156,0.2372122,-0.3776009,1.511793,0.09796494,-0.005164608,1.659586,0.1013395,-0.3355689,1.637387,-0.08537313,0.1739781,1.662988,0.01577795,-0.3294751,1.605654,-0.1184585,-0.08862766,1.665231,0.3044971,-0.09367327,1.628214,NA,NA,NotTracked,NotTracked,
-0.940918,-0.3276367,-0.1938477,-0.9482422,0.3334961,-0.0546875,1,-1,-1,-1,0,0,0,0,-2,0,-1,-3,0,-1,-2,-2,2.4375,2.4375,2.4375,2.6875,2.6875,2.6875,1.606189,6.888099,1.102917,7.742785,6.958396,3.985875,-0.1008411,-0.4082521,1.576719,0.292117,-0.4094633,1.523246,0.09034854,0.4703651,1.682606,-0.05681169,-0.3931425,1.52703,0.2386664,-0.3992549,1.508575,0.09818973,-0.005122998,1.659767,0.1016088,-0.3354319,1.63756,-0.08420369,0.1754024,1.662468,0.0160812,-0.3293386,1.605826,-0.1183866,-0.08856169,1.665294,0.3046828,-0.09356111,1.628677,NA,NA,NotTracked,NotTracked,
-0.9404297,-0.3271484,-0.1982422,-0.9414063,0.3295898,-0.05566406,-1,-1,-1,1,0,1,0,1,-1,-2,-2,-3,-1,1,-2,0,3.75,3.75,3.75,2.375,2.375,2.375,1.608337,6.889098,1.100684,7.743841,6.95829,3.98366,-0.1013575,-0.4084749,1.575616,0.2923366,-0.4092492,1.522478,0.09057598,0.4703604,1.682629,-0.05912731,-0.3742816,1.530271,0.238346,-0.3950289,1.509293,0.09856584,-0.005157023,1.659869,0.1019324,-0.3354979,1.637547,-0.08440897,0.1750079,1.662636,0.01636507,-0.3294239,1.605748,-0.1182163,-0.08833721,1.665163,0.3048146,-0.09358029,1.628809,NA,NA,NotTracked,NotTracked,
-0.9418945,-0.3291016,-0.1943359,-0.9433594,0.3291016,-0.0546875,3,-1,-2,-1,-2,-1,-2,-1,-2,0,1,-1,-1,-1,-1,-2,4.0625,4.0625,4.0625,1.875,1.875,1.875,1.611348,6.889524,1.098758,7.744223,6.957841,3.981614,-0.101073,-0.4080252,1.576702,0.2921923,-0.4095923,1.52317,0.09085885,0.4704436,1.682728,-0.05770498,-0.3877095,1.527413,0.2386451,-0.4004389,1.508184,0.0988284,-0.005102122,1.660062,0.1021585,-0.3354,1.637659,-0.08442969,0.1749112,1.662714,0.01656634,-0.3293541,1.605829,-0.1181801,-0.08830252,1.665176,0.3049998,-0.0934813,1.629174,NA,NA,NotTracked,NotTracked,
-0.9365234,-0.3291016,-0.1958008,-0.9389648,0.3271484,-0.05224609,0,2,0,0,0,-1,-1,-1,-1,-2,-2,-4,-2,0,-2,0,4.25,4.25,4.25,2.6875,2.6875,2.6875,1.612336,6.889453,1.097197,7.745044,6.957125,3.979751,-0.1002276,-0.4074588,1.574619,0.2925164,-0.4091381,1.522129,0.09103629,0.4704206,1.682684,-0.05812485,-0.3722466,1.530481,0.2383831,-0.398887,1.50762,0.09898563,-0.005082715,1.660086,0.1022331,-0.3353603,1.637694,-0.08337486,0.1759521,1.662021,0.01666909,-0.3292762,1.605848,-0.1180928,-0.08827873,1.665151,0.3052116,-0.09325346,1.62931,NA,NA,NotTracked,NotTracked,
-0.9404297,-0.3286133,-0.2001953,-0.9501953,0.3242188,-0.04833984,-2,-3,0,-1,0,0,-1,-1,-1,0,0,1,0,-1,0,-1,4.125,4.125,4.125,0.8125,0.8125,0.8125,1.615093,6.888908,1.094889,7.745547,6.956553,3.979355,-0.1004955,-0.407911,1.575167,0.2929128,-0.4090595,1.522639,0.09117211,0.4704681,1.682698,-0.0581572,-0.3808578,1.528427,0.2384131,-0.3923874,1.509399,0.09910189,-0.005098121,1.66012,0.1022914,-0.3353835,1.637705,-0.08369698,0.1754633,1.662264,0.01672466,-0.3292983,1.605816,-0.1180164,-0.08833148,1.665127,0.3053657,-0.09315553,1.629597,NA,NA,NotTracked,NotTracked,
-0.9394531,-0.3256836,-0.1977539,-1.039551,0.3808594,-0.05273438,1,1,-1,0,0,0,-1,0,-3,-3,1,-1,0,0,-1,0,1.8125,1.8125,1.8125,0.9375,0.9375,0.9375,1.616534,6.888181,1.093127,7.740893,6.952772,3.973296,-0.1003082,-0.4079894,1.573927,0.292967,-0.4092126,1.522542,0.09154201,0.4704324,1.682679,-0.05813037,-0.3742789,1.52936,0.238715,-0.3913234,1.509633,0.0992026,-0.005150939,1.660138,0.1023848,-0.3354283,1.637697,-0.08385595,0.1750501,1.662356,0.01680749,-0.3293393,1.605777,-0.1179936,-0.08821917,1.665048,0.3054721,-0.09307274,1.629734,NA,NA,NotTracked,NotTracked,
-0.9482422,-0.3242188,-0.1967773,-0.9907227,0.4038086,-0.1176758,-1,-2,-1,-1,-6,-3,-1,-1,-3,1,2,-1,-1,-1,0,-2,1.375,1.375,1.375,-34,-34,-34,1.617982,6.88808,1.092781,7.678367,6.930533,3.92658,-0.1001866,-0.406904,1.574209,0.2932859,-0.4089299,1.52256,0.09181305,0.4704416,1.682663,-0.0555096,-0.4090273,1.524,0.239004,-0.3902591,1.509796,0.09949514,-0.005131481,1.660144,0.1025827,-0.3354348,1.637649,-0.08392357,0.1747804,1.662422,0.01698005,-0.3293593,1.605687,-0.1178519,-0.08820073,1.665023,0.3055405,-0.09308787,1.629838,NA,NA,NotTracked,NotTracked,
-0.9614258,-0.3378906,-0.1958008,-0.9536133,0.4365234,-0.01708984,-2,-6,-8,-6,-1,1,0,-1,-3,-5,-3,1,0,-1,2,-2,-0.75,-0.75,-0.75,-34.6875,-34.6875,-34.6875,1.616033,6.885511,1.090571,7.611061,6.915777,3.87515,-0.09949441,-0.4076892,1.572801,0.2936913,-0.4090678,1.523104,0.0921302,0.4703737,1.682809,-0.05675116,-0.3964028,1.525882,0.238535,-0.3977906,1.508201,0.09965446,-0.005098933,1.660185,0.1027337,-0.3353575,1.637628,-0.0829842,0.1758477,1.661888,0.01713417,-0.3292537,1.605644,-0.1178247,-0.08819094,1.665037,0.3057311,-0.09311593,1.629972,NA,NA,NotTracked,NotTracked,
-0.9995117,-0.3354492,-0.1948242,-0.9682617,0.5708008,0.03125,9,1,-11,-2,3,-4,0,6,2,19,-5,-1,-7,-6,-7,-3,-3.9375,-3.9375,-3.9375,-26.5625,-26.5625,-26.5625,1.616698,6.883257,1.093526,7.496202,6.857486,3.782643,-0.09730579,-0.4054804,1.567015,0.2932585,-0.4087922,1.521982,0.09237095,0.470341,1.682852,-0.05426522,-0.4097007,1.521375,0.238507,-0.4039024,1.505677,0.09978589,-0.005117146,1.660224,0.1028467,-0.3353454,1.637618,-0.08314563,0.1753607,1.662026,0.01727722,-0.3292481,1.605626,-0.1177737,-0.08813459,1.66502,0.3059252,-0.09307837,1.630097,NA,NA,NotTracked,NotTracked,
-1.075684,-0.4326172,-0.2094727,-0.921875,0.652832,0.1030273,2,-11,-14,-12,-2,-3,-3,0,0,-2,31,76,31,6,21,1,-5,-5,-5,7.1875,7.1875,7.1875,1.654092,6.865408,1.139906,7.369379,6.753313,3.645013,-0.09555694,-0.4061078,1.558907,0.2922344,-0.4079348,1.520224,0.09260739,0.4703363,1.682926,-0.05415493,-0.3979734,1.522049,0.238294,-0.3956931,1.50826,0.09989814,-0.005115143,1.660216,0.1030772,-0.3353684,1.637472,-0.08346298,0.1750241,1.66236,0.01750519,-0.3293105,1.60542,-0.1177726,-0.08743501,1.665202,0.3063743,-0.09305114,1.630371,NA,NA,NotTracked,NotTracked,
-1.161621,-0.5322266,-0.3032227,-0.8261719,0.7788086,0.07470703,-6,1,-1,6,9,6,5,8,-5,-10,-2,-13,-4,-1,0,0,9.5625,9.5625,9.5625,-5.1875,-5.1875,-5.1875,1.714712,6.844024,1.200273,7.318942,6.685472,3.590674,-0.09030885,-0.4050175,1.54425,0.2892026,-0.4040918,1.515316,0.09274541,0.4703403,1.682953,-0.04752346,-0.3740077,1.5185,0.2392916,-0.3748187,1.511559,0.1001335,-0.004985947,1.660111,0.1037752,-0.3350506,1.63688,-0.08362272,0.1748811,1.66258,0.01809702,-0.3290704,1.604912,-0.1178991,-0.08709081,1.665233,0.3073049,-0.09259284,1.631054,NA,NA,NotTracked,NotTracked,
-0.9506836,-0.6450195,-0.2143555,-0.9189453,0.9145508,0.2436523,11,7,10,4,-1,-4,-1,5,1,-2,8,-15,2,4,-1,-3,15.9375,15.9375,15.9375,-18.1875,-18.1875,-18.1875,1.902978,6.759941,1.386433,7.204784,6.523597,3.479304,-0.08373851,-0.3994122,1.526417,0.2839969,-0.3918003,1.5077,0.09298782,0.4704357,1.683145,-0.03653122,-0.3866508,1.511486,0.2356184,-0.3600994,1.513087,0.1005697,-0.004847566,1.66004,0.1042668,-0.3348218,1.636465,-0.08401337,0.1745895,1.66331,0.01846018,-0.3289352,1.604573,-0.1180719,-0.08671851,1.665264,0.3088985,-0.09105194,1.633856,NA,NA,NotTracked,NotTracked,
-1.060547,-0.734375,-0.168457,-0.8959961,0.8857422,0.3300781,9,-1,3,-5,-6,-6,-3,-2,0,2,4,2,5,-1,-8,-2,20.625,20.625,20.625,-11.1875,-11.1875,-11.1875,2.009221,6.683407,1.49332,7.098427,6.31379,3.365414,-0.08291021,-0.374293,1.511314,0.2720497,-0.3760532,1.490966,0.09314338,0.4704886,1.683253,-0.03549419,-0.3459692,1.516846,0.2287839,-0.3304842,1.512048,0.1009073,-0.004530207,1.659937,0.104674,-0.3342774,1.635958,-0.08426816,0.174679,1.664022,0.01878372,-0.3285314,1.604134,-0.1185594,-0.08555327,1.665002,0.3114296,-0.08846309,1.637172,NA,NA,NotTracked,NotTracked,
-0.8803711,-1.237305,-0.1386719,-0.7285156,1.080078,0.4506836,-6,-7,-1,0,-9,0,5,1,0,-2,-16,-15,-42,-19,35,15,-9.5625,-9.5625,-9.5625,13.375,13.375,13.375,2.27609,6.332604,1.823684,7.025871,6.064737,3.244948,-0.08848526,-0.3478744,1.473273,0.2648764,-0.3445514,1.457376,0.09339536,0.4706775,1.683534,-0.05175819,-0.3868204,1.4885,0.2387628,-0.330224,1.501389,0.1010669,-0.004328967,1.659863,0.1048255,-0.333874,1.63558,-0.08459367,0.1747087,1.664607,0.01883973,-0.328149,1.603839,-0.1196058,-0.08277857,1.66393,0.3149471,-0.08440154,1.640842,NA,NA,Lasso,NotTracked,
-0.8125,-1.436523,-0.1357422,-0.6582031,1.195313,0.40625,1,17,-20,-31,-2,-1,1,0,26,9,-2,-15,6,5,-5,3,14.4375,14.4375,14.4375,16.4375,16.4375,16.4375,2.336053,6.17707,1.896481,7.004479,5.928439,3.192763,-0.0625324,-0.2872941,1.424132,0.2262379,-0.2517308,1.402646,0.09413409,0.4708488,1.68444,-0.005200376,-0.3437714,1.4664,0.1758359,-0.3053305,1.4282,0.101428,-0.004005728,1.659826,0.105174,-0.3329679,1.634313,-0.08494865,0.1749088,1.665934,0.01888617,-0.3269935,1.602165,-0.1241348,-0.06746512,1.65778,0.3220648,-0.06205869,1.648451,NA,NA,Unknown,Unknown,
-0.796875,-1.569824,-0.1049805,-0.6035156,1.155762,0.484375,-8,9,-5,3,4,-1,1,0,-15,-14,-32,-32,44,42,0,-14,32.4375,32.4375,32.4375,-34.375,-34.375,-34.375,2.436431,5.822013,2.013651,6.927059,5.648943,3.084445,-0.05964842,-0.2348905,1.363418,0.2162405,-0.1775565,1.374761,0.09468039,0.4706793,1.68526,0.00753428,-0.2745194,1.3232,0.1556543,-0.2123748,1.4405,0.1022286,-0.003661787,1.660061,0.1063059,-0.332153,1.633578,-0.08476935,0.1751052,1.666715,0.02000283,-0.3265843,1.601268,-0.1281209,-0.05528337,1.649837,0.3342795,-0.05268129,1.64746,NA,NA,Unknown,Unknown,
-0.262207,-1.624023,0.09082031,-0.3383789,0.9760742,0.5610352,-6,4,17,-12,2,-2,-1,14,7,5,15,22,28,92,25,6,116.625,116.625,116.625,-34.8125,-34.8125,-34.8125,2.640059,5.198082,2.160165,6.844464,5.370193,2.966506,-0.04492211,-0.1825567,1.340028,0.2008145,-0.1004355,1.348218,0.09548818,0.4704804,1.686706,0.005906885,-0.2144272,1.298111,0.1457896,-0.09883793,1.431667,0.102753,-0.003417691,1.660513,0.1065882,-0.3318924,1.6334,-0.08212588,0.1777653,1.665617,0.02051031,-0.3262828,1.600923,-0.138761,-0.0494082,1.636195,0.3512003,-0.04801054,1.635602,NA,NA,Unknown,Unknown,
-0.09863281,-1.333984,-0.03710938,-0.1884766,0.7998047,0.5073242,6,-3,-6,-17,-8,-2,-2,-6,-5,-2,-1,-5,-24,-17,-10,1,108.5625,108.5625,108.5625,16.875,16.875,16.875,2.701128,4.973149,2.209911,6.828058,5.097544,2.858222,-0.02308367,-0.1271844,1.317812,0.1969198,-0.01922817,1.343683,0.09606053,0.4701774,1.688419,0.03487778,-0.15206,1.29225,0.181584,0.001787739,1.3378,0.1036455,-0.001477794,1.66122,0.1069987,-0.3304394,1.633468,-0.07947459,0.1800275,1.66459,0.02136992,-0.3245275,1.601038,-0.1844713,-0.03843012,1.596778,0.3666613,-0.0338402,1.594492,NA,NA,Unknown,Unknown,
0.3051758,-0.8168945,-0.06201172,-0.04833984,0.7802734,0.4726563,23,5,7,7,6,4,1,-21,3,8,14,13,-6,-12,1,11,40.3125,40.3125,40.3125,49.9375,49.9375,49.9375,2.758209,4.532263,2.307646,6.87212,4.858714,2.755744,0.004889515,-0.06891042,1.297301,0.1898935,0.06223242,1.339962,0.09715834,0.4702981,1.689755,0.02815232,-0.0955473,1.297667,0.1646939,0.09342908,1.332,0.1043034,-0.0007812732,1.661837,0.1071254,-0.3302782,1.633514,-0.07649861,0.182016,1.663564,0.02158629,-0.3243142,1.601067,-0.1837447,-0.03400628,1.583936,0.3701257,-0.02234991,1.559237,NA,NA,Unknown,Unknown,
0.4638672,-0.9316406,0.07080078,-0.01855469,0.7744141,0.3647461,-17,7,4,20,-15,-6,2,-7,-1,-3,-2,-3,-13,-14,-7,-9,-144.0625,-144.0625,-144.0625,44.875,44.875,44.875,2.599583,4.118009,2.408381,6.935044,4.671357,2.674258,0.02090674,-0.01428832,1.284752,0.1846934,0.1399489,1.334676,0.09845894,0.4687162,1.691588,0.06521173,-0.03981635,1.278625,0.1637966,0.1729995,1.325167,0.1046909,-0.000427541,1.662362,0.10736,-0.3302608,1.633568,-0.07349519,0.1822311,1.66372,0.02210039,-0.3242913,1.60153,-0.1506954,-0.01934893,1.556509,0.3364193,-0.01340518,1.500755,NA,NA,Unknown,Closed,
0.2993164,-1.100098,0.262207,-0.1083984,0.6279297,0.3125,9,-1,-1,-9,-3,-5,1,7,-4,-6,-6,-6,-6,-5,-2,-4,-127.0625,-127.0625,-127.0625,49.4375,49.4375,49.4375,2.383627,3.80588,2.508708,7.003853,4.552352,2.610182,0.03471303,0.03112187,1.276658,0.1821483,0.2093721,1.333314,0.09834812,0.468778,1.693222,0.05589031,-0.0002162739,1.267953,0.1916348,0.2337164,1.298643,0.1047781,0.001522978,1.663345,0.1074641,-0.3265201,1.634477,-0.07228881,0.1851312,1.663225,0.02262382,-0.3198102,1.604252,-0.1496092,-0.01153554,1.546188,0.3372919,0.0173259,1.473729,NA,NA,Unknown,Closed,
0.2392578,-0.7431641,0.1274414,-0.05664063,0.6923828,0.2280273,18,4,14,13,6,2,-3,0,-2,0,3,12,17,9,-7,-4,-9.9375,-9.9375,-9.9375,38.3125,38.3125,38.3125,2.269457,3.611136,2.609536,7.064613,4.485237,2.557774,0.04725243,0.06919445,1.26787,0.1886415,0.2597122,1.33686,0.09826048,0.4686926,1.693725,0.02942929,0.1381706,1.241125,0.200452,0.2848366,1.335375,0.1057301,0.002951064,1.664106,0.1076783,-0.3255752,1.634665,-0.070656,0.1875216,1.662632,0.02257865,-0.3184086,1.603678,-0.1466952,0.0008011936,1.527928,0.3765873,0.01272853,1.468887,NA,NA,Unknown,Unknown,
0.2470703,-0.4760742,0.1943359,-0.06054688,0.6811523,0.1645508,8,7,1,9,4,-5,0,2,1,1,0,3,-6,-11,-4,-1,5.75,5.75,5.75,32.75,32.75,32.75,2.243429,3.546684,2.64961,7.089741,4.463766,2.5382,0.05581954,0.09804519,1.260493,0.1880759,0.3051848,1.337617,0.09758297,0.4675075,1.694827,0.03936248,0.164282,1.2345,0.1904482,0.3428766,1.33,0.1062932,0.003086247,1.664783,0.1077671,-0.3254327,1.634692,-0.06897433,0.1905142,1.662011,0.02225458,-0.3178185,1.602978,-0.1442807,0.01530196,1.511062,0.3806844,0.04179321,1.451518,NA,NA,Unknown,Unknown,
0.1914063,-0.3837891,0.06494141,-0.01171875,0.6728516,0.1801758,-6,4,5,-5,-1,0,2,5,3,2,-6,-9,-5,-10,-2,1,-60.5,-60.5,-60.5,24.5625,24.5625,24.5625,2.170271,3.468427,2.695583,7.127094,4.43468,2.508125,0.06381713,0.1207106,1.255488,0.1885689,0.3408574,1.335919,0.09674986,0.4626281,1.69675,0.04416277,0.1853005,1.234444,0.2046107,0.3652747,1.326187,0.1066535,0.003020778,1.665142,0.1079954,-0.3258338,1.634609,-0.06676025,0.1946017,1.662062,0.02206699,-0.3180724,1.602236,-0.1373334,0.02420655,1.502926,0.3780738,0.0754011,1.440311,NA,NA,Unknown,Unknown,
0.09863281,-0.4946289,0.1157227,0.125,0.7358398,0.1518555,-7,1,-1,-13,1,7,13,-4,-1,-4,-4,-4,13,14,0,2,-79.75,-79.75,-79.75,13.25,13.25,13.25,2.078295,3.435226,2.709334,7.153585,4.415894,2.4838,0.06960189,0.1374787,1.250902,0.1859894,0.3713798,1.332648,0.09699328,0.4590612,1.698429,0.05051765,0.2025999,1.2292,0.1925954,0.398969,1.295412,0.1070254,0.002904621,1.665287,0.1081768,-0.3270068,1.634052,-0.06539658,0.1980272,1.66196,0.02152698,-0.3189237,1.601268,-0.1287022,0.03545872,1.486342,0.3342226,0.1498398,1.411794,NA,NA,Unknown,Unknown,
0.09863281,-0.4946289,0.1157227,0.125,0.7358398,0.1518555,-8,-8,-7,19,12,2,1,15,-1,-4,-4,-4,13,14,0,2,-79.75,-79.75,-79.75,13.25,13.25,13.25,2.078295,3.435226,2.709334,7.153585,4.415894,2.4838,0.07324948,0.1490148,1.249923,0.1857797,0.3910457,1.333087,0.09739071,0.4583751,1.698878,0.0564783,0.2158722,1.229182,0.1932183,0.4192055,1.296938,0.1073041,0.002956746,1.665284,0.1081479,-0.328288,1.633548,-0.06325959,0.202798,1.663286,0.02083485,-0.3197889,1.600357,-0.127023,0.03734622,1.48355,0.3347799,0.1527826,1.411157,NA,NA,Unknown,Unknown,
0.05029297,-0.4238281,0.04345703,0.168457,0.7290039,0.1391602,-24,-9,5,16,-6,-10,-6,-4,-1,-1,0,2,12,0,-3,-9,-22.625,-22.625,-22.625,11.4375,11.4375,11.4375,2.036403,3.439519,2.718005,7.163286,4.407878,2.476231,0.07804723,0.1569255,1.24823,0.1846701,0.4036349,1.33495,0.09773894,0.4580211,1.699322,0.05775232,0.2248539,1.2269,0.1905682,0.4293625,1.295667,0.1075857,0.003305781,1.665186,0.1080489,-0.32858,1.633207,-0.05937109,0.2118584,1.66603,0.02029557,-0.3199105,1.599817,-0.1262807,0.03753587,1.480877,0.3356317,0.1582315,1.41065,NA,NA,Unknown,Unknown,
0.1210938,-0.2519531,0.004394531,0.2392578,0.7949219,0.1625977,-10,-1,-5,-8,-1,6,-9,-4,1,0,3,-3,-47,-22,0,-1,-9.125,-9.125,-9.125,0.625,0.625,0.625,2.017126,3.447615,2.736249,7.172943,4.400335,2.467157,0.08218404,0.1627143,1.247574,0.1844069,0.4070299,1.337005,0.09771059,0.4605086,1.69881,0.06110867,0.2367342,1.229429,0.1884328,0.4174819,1.293765,0.1078998,0.004003096,1.664993,0.107894,-0.3289134,1.632913,-0.05886184,0.2134017,1.666203,0.01981287,-0.320038,1.599501,-0.1535278,0.02834319,1.473511,0.3374135,0.1621744,1.410273,NA,NA,Unknown,Unknown,
0.1479492,-0.2470703,-0.01123047,0.2705078,0.8276367,0.1933594,11,3,2,0,1,0,0,5,2,1,5,8,10,1,0,0,-11.625,-11.625,-11.625,-7.75,-7.75,-7.75,2.004128,3.458457,2.74617,7.168082,4.402748,2.466984,0.08189149,0.1643619,1.246547,0.1827787,0.401688,1.337914,0.0977933,0.4621627,1.698079,0.05984893,0.2341836,1.227902,0.1891382,0.4180071,1.295502,0.1082163,0.004464158,1.66474,0.107832,-0.3294616,1.632408,-0.05876753,0.2136164,1.666209,0.01930089,-0.3203859,1.598606,-0.1546208,0.02895049,1.470021,0.3393805,0.1629672,1.410573,NA,NA,Unknown,Unknown,
0.1489258,-0.2758789,0.01513672,0.3061523,0.855957,0.1923828,3,3,4,10,3,-6,-4,-2,-3,-5,-4,-3,1,11,0,-9,4.625,4.625,4.625,-12.75,-12.75,-12.75,1.993373,3.517612,2.757368,7.144322,4.414207,2.484973,0.08244853,0.1644015,1.24507,0.1794691,0.3887835,1.335295,0.09752162,0.4627789,1.697723,0.05923912,0.2308189,1.227182,0.1850732,0.4100549,1.292444,0.1083619,0.004592928,1.664505,0.1077171,-0.3304358,1.63169,-0.05876676,0.2136177,1.666203,0.01872764,-0.3210892,1.597466,-0.1343161,0.04196882,1.474229,0.3408816,0.1622599,1.410884,NA,NA,Unknown,Unknown,
0.1489258,-0.2758789,0.01513672,0.3061523,0.855957,0.1923828,3,3,4,10,3,-6,-4,-2,-3,-5,-4,-3,1,11,0,-9,4.625,4.625,4.625,-12.75,-12.75,-12.75,1.993373,3.517612,2.757368,7.144322,4.414207,2.484973,0.0809139,0.1616962,1.244057,0.1767053,0.3666899,1.332688,0.09586844,0.4625859,1.697233,0.05588539,0.2285931,1.22596,0.1836343,0.3851707,1.292389,0.1083473,0.004559295,1.664388,0.10737,-0.3315305,1.63121,-0.0588546,0.2145502,1.666179,0.01808584,-0.3219075,1.596556,-0.1319092,0.04066825,1.475141,0.3433628,0.1556062,1.412316,NA,NA,Unknown,Unknown,
0.1972656,-0.3115234,0.03027344,0.3427734,0.8920898,0.2070313,-12,-9,-11,-23,-12,12,4,-2,-3,-2,1,6,5,-3,-1,-3,53.125,53.125,53.125,-5.5625,-5.5625,-5.5625,2.063974,3.608828,2.733042,7.131748,4.426971,2.499211,0.08044288,0.1589876,1.243879,0.1780518,0.3307655,1.329552,0.09489632,0.4621803,1.697088,0.0556028,0.2273232,1.227922,0.1759035,0.3565188,1.286857,0.1082631,0.004350811,1.664157,0.1069897,-0.332152,1.630526,-0.05906253,0.2148412,1.665993,0.01731662,-0.3222968,1.595268,-0.1106293,0.05638906,1.443305,0.3447658,0.134084,1.416028,NA,NA,Unknown,Unknown,
0.1831055,-0.4047852,0.03857422,0.375,0.9335938,0.1992188,0,2,5,17,0,-5,1,-4,2,2,0,0,-4,-9,2,4,63.6875,63.6875,63.6875,-6.25,-6.25,-6.25,2.16647,3.74781,2.690619,7.12668,4.434584,2.506525,0.07733271,0.1540505,1.243993,0.1696767,0.2924626,1.322682,0.09393793,0.4625086,1.696848,0.04975505,0.220465,1.225,0.1660233,0.3199207,1.25575,0.1080226,0.004457493,1.663702,0.1064273,-0.3325697,1.629946,-0.05941961,0.2148389,1.665664,0.01649334,-0.3226076,1.594322,-0.1145164,0.03271142,1.480475,0.34355,0.1071096,1.422714,NA,NA,NotTracked,Unknown,
0.2446289,-0.5175781,0.01318359,0.3349609,0.8969727,0.2050781,-22,-12,-1,-3,-1,-4,-5,2,-1,0,3,-7,4,2,2,0,72.75,72.75,72.75,-1,-1,-1,2.229982,3.839732,2.657973,7.117998,4.453931,2.524294,0.1641984,0.2314113,1.3046,0.1641061,0.2448758,1.314267,0.09387588,0.4637748,1.697114,0.1328423,0.2219947,1.33,0.1626484,0.2644923,1.2545,0.1074827,0.00471444,1.6628,0.1057644,-0.3330137,1.628975,-0.05993398,0.2149287,1.665447,0.01588951,-0.3230253,1.593604,-0.1056234,0.05152741,1.425352,0.3380935,0.08042633,1.431679,NA,NA,NotTracked,NotTracked,
0.4169922,-0.7568359,0.05566406,0.3613281,0.918457,0.2211914,2,10,5,22,-6,4,0,-6,-7,-3,-4,-6,0,1,-3,-7,91.3125,91.3125,91.3125,7.1875,7.1875,7.1875,2.376837,4.073869,2.5776,7.120183,4.473295,2.537537,0.1707584,0.1861324,1.282745,0.167167,0.1840399,1.29638,0.09455457,0.4640822,1.696776,0.1946633,0.1696687,1.294909,0.1492144,0.162241,1.21675,0.1062619,0.003605493,1.661826,0.1051909,-0.3360245,1.62745,-0.0606066,0.2147185,1.664955,0.01552213,-0.3262087,1.592541,-0.1053006,0.04996355,1.426751,0.3367241,0.03547898,1.460207,NA,NA,NotTracked,NotTracked,
0.3779297,-1.131836,0.1772461,0.3378906,0.9492188,0.2612305,-3,-10,-5,6,11,0,0,0,-3,0,2,16,0,0,-2,-4,83.0625,83.0625,83.0625,8.25,8.25,8.25,2.515526,4.353562,2.503784,7.126522,4.494328,2.547466,0.08074258,0.1378981,1.23915,0.05298249,0.1381759,1.240409,0.09573995,0.4609646,1.697118,0.1368321,0.1196917,1.238071,0.1065142,0.1614287,1.201286,0.106544,0.002742006,1.66179,0.1054062,-0.3362345,1.626981,-0.06136724,0.2142263,1.66449,0.01640534,-0.3269181,1.590979,-0.1055491,0.04664503,1.4229,0.3387107,8.889953E-05,1.484745,NA,NA,NotTracked,NotTracked,
0.4174805,-1.343262,0.1796875,0.3632813,0.9160156,0.2666016,-2,-15,-5,-2,-12,-6,-6,-11,0,-3,-13,-29,-5,-3,-4,-4,75.9375,75.9375,75.9375,9.4375,9.4375,9.4375,2.569482,4.500555,2.473429,7.129118,4.509853,2.558419,0.08368351,0.122324,1.251604,0.02815038,0.1249945,1.250447,0.09641527,0.4593769,1.69721,0.1490102,0.06674346,1.281889,0.08503988,0.1448129,1.198778,0.1065773,0.002144715,1.661713,0.105561,-0.3363357,1.626624,-0.06185032,0.2137733,1.664149,0.01737477,-0.3273429,1.589244,-0.105507,0.04513558,1.421888,0.3384682,-0.02452501,1.500586,NA,NA,NotTracked,NotTracked,
0.3574219,-1.383301,0.06445313,0.3691406,0.894043,0.2822266,7,1,-3,-5,-8,2,11,10,-8,-4,0,4,-1,-2,-6,-7,65.25,65.25,65.25,5.6875,5.6875,5.6875,2.663316,4.769899,2.419699,7.128454,4.515323,2.562972,0.06413265,0.1281163,1.241508,0.07279793,0.1514421,1.249725,0.09674817,0.4590688,1.696871,0.1150224,0.1021842,1.235818,0.108315,0.09860763,1.230308,0.1066205,0.002050815,1.661705,0.1057707,-0.3354827,1.6262,-0.06215277,0.2135348,1.664014,0.0185898,-0.3261774,1.5874,-0.1067508,0.04247507,1.422017,0.3442428,-0.02058529,1.553704,NA,NA,NotTracked,NotTracked,
0.03857422,-1.664551,0.1606445,0.3754883,0.940918,0.2885742,10,0,-3,-4,2,6,11,15,0,-1,1,2,-6,-1,1,5,36.75,36.75,36.75,1.125,1.125,1.125,2.70443,5.011417,2.38311,7.125183,4.524952,2.570869,0.06076485,0.1224365,1.241105,0.1546435,-0.02848753,1.327386,0.09724398,0.4583274,1.695839,0.114195,0.1013068,1.235751,0.1629882,-0.04168556,1.290471,0.1066073,0.002029764,1.661672,0.1057669,-0.3345322,1.625664,-0.06239004,0.2133652,1.663865,0.01923202,-0.3246907,1.585244,-0.1101724,0.03712875,1.423555,0.353453,-0.02534062,1.575893,NA,NA,NotTracked,NotTracked,
0.08935547,-1.54834,0.1333008,0.3417969,0.8857422,0.284668,-13,-7,0,-7,-3,5,5,-14,-7,-2,2,9,-3,10,2,-2,30.625,30.625,30.625,-5.75,-5.75,-5.75,2.741762,5.197837,2.369454,7.113378,4.531108,2.578115,0.05966492,0.1206622,1.241266,0.1726726,-0.06408014,1.351455,0.09754172,0.4581958,1.695109,0.1062431,0.09156303,1.23625,0.1955172,-0.04808934,1.32496,0.1066336,0.001966521,1.661559,0.1058646,-0.3338295,1.624901,-0.06273385,0.2130492,1.663644,0.0195906,-0.3236283,1.583231,-0.1281389,0.01748621,1.447125,0.3358344,-0.03268116,1.573743,NA,NA,NotTracked,Unknown,
-0.04101563,-1.59082,0.07763672,0.3447266,0.9179688,0.2827148,-7,-7,-6,20,-2,-3,-7,-3,-2,-3,-4,-1,-2,-6,-6,-2,31.1875,31.1875,31.1875,2.6875,2.6875,2.6875,2.768142,5.326076,2.366486,7.112501,4.532595,2.579743,0.05819793,0.1164902,1.241127,0.1713969,-0.08597325,1.361638,0.09784807,0.4580853,1.69443,0.0953718,0.08449795,1.2355,0.1742394,-0.07137647,1.314,0.1066127,0.001897339,1.661481,0.1058481,-0.3334078,1.624492,-0.06310824,0.2126331,1.663372,0.01973717,-0.3230818,1.58213,-0.1280597,0.01700813,1.447525,0.3888843,-0.03906089,1.576389,NA,NA,Unknown,Unknown,
-0.07763672,-1.533691,0.1020508,0.3085938,0.9389648,0.2387695,-5,9,2,1,6,0,-3,3,-1,-1,2,3,-2,-8,-2,-1,37.9375,37.9375,37.9375,-5.875,-5.875,-5.875,2.782602,5.360412,2.366014,7.109184,4.537788,2.579934,0.05700058,0.1136273,1.240921,0.169711,-0.1010442,1.370994,0.09802839,0.4577661,1.693563,0.03069527,0.1768014,1.2245,0.172087,-0.09444683,1.3156,0.1066217,0.001810463,1.661379,0.1058438,-0.3332205,1.624183,-0.06340172,0.2122308,1.663088,0.01991064,-0.3227991,1.581195,-0.1276024,0.01689284,1.446972,0.3889565,-0.03940831,1.577215,NA,NA,Unknown,Unknown,
-0.03173828,-1.288574,0.08935547,0.315918,0.9379883,0.2563477,5,-2,-16,-54,-3,9,0,-1,-5,-3,-1,2,2,-5,-3,-8,24.625,24.625,24.625,-0.5,-0.5,-0.5,2.803242,5.394687,2.362622,7.103606,4.540889,2.575811,0.05817597,0.1116012,1.241277,0.1719545,-0.108264,1.37798,0.09834464,0.4577234,1.692554,0.03094104,0.1761704,1.220078,0.1584278,-0.0751366,1.3612,0.1065822,0.001770208,1.661334,0.1057255,-0.3329822,1.624036,-0.06360231,0.2119948,1.662883,0.01987695,-0.322551,1.5809,-0.1274683,0.01678607,1.446904,0.3557225,-0.03643281,1.630103,NA,NA,Unknown,Unknown,
-0.09814453,-1.191895,0.07568359,0.2954102,0.9379883,0.2436523,26,-3,2,0,-4,-7,4,10,-4,-4,-3,-2,0,0,1,-2,6,6,6,1.9375,1.9375,1.9375,2.800902,5.401994,2.357022,7.106749,4.543746,2.568485,0.05800009,0.1098471,1.241157,0.1715801,-0.1105227,1.376543,0.09876083,0.4575796,1.691244,0.03102122,0.1765871,1.224141,0.1737994,-0.09050078,1.342353,0.1065321,0.001724638,1.661246,0.1055504,-0.3326694,1.623782,-0.06378122,0.2117095,1.662585,0.0198075,-0.322286,1.58057,-0.1273392,0.0165165,1.446822,0.3855986,-0.04019696,1.60661,NA,NA,Unknown,Lasso,
-0.1010742,-1.14502,0.09277344,0.2993164,0.9614258,0.234375,2,-1,0,3,4,11,-4,8,-5,-1,-1,-1,18,5,-4,-7,-0.875,-0.875,-0.875,-0.8125,-0.8125,-0.8125,2.794625,5.396894,2.352303,7.107647,4.544972,2.564733,0.05947074,0.1078443,1.243279,0.1724546,-0.1145899,1.383515,0.0988947,0.4575441,1.690796,0.03180392,0.1760757,1.223502,0.1787632,-0.08681116,1.356077,0.1064853,0.001679547,1.661218,0.1054877,-0.332554,1.623734,-0.0639111,0.2114651,1.662391,0.019804,-0.322227,1.580496,-0.1266842,0.01617886,1.445708,0.3857226,-0.04011868,1.606299,NA,NA,Unknown,Lasso,
-0.1943359,-1.032227,0.1459961,0.2480469,0.9077148,0.2304688,-9,-4,5,-1,-7,-10,-1,-3,-1,-1,-1,1,0,3,2,4,-17.9375,-17.9375,-17.9375,-2.625,-2.625,-2.625,2.763879,5.378734,2.340037,7.102773,4.553836,2.557851,0.06071087,0.1052764,1.243068,0.1752294,-0.111091,1.380749,0.09911087,0.4575655,1.688985,0.03796146,0.1707697,1.220001,0.1834079,-0.1035937,1.327765,0.1063072,0.001643176,1.66116,0.1051595,-0.3318723,1.623724,-0.0640758,0.2108746,1.661901,0.01972182,-0.3217087,1.580518,-0.1270226,0.02160543,1.453203,0.3863734,-0.03997558,1.605401,NA,NA,Unknown,Unknown,
-0.2456055,-0.9672852,0.1591797,0.21875,0.9057617,0.2104492,-9,-12,-7,-4,3,0,-1,4,-1,-2,-4,-17,8,4,-3,-2,-16.6875,-16.6875,-16.6875,1.8125,1.8125,1.8125,2.742503,5.370244,2.329768,7.105254,4.561382,2.556494,0.06116425,0.103918,1.242261,0.1790959,-0.1105764,1.377837,0.09912781,0.4573877,1.688396,0.03855686,0.1689396,1.224115,0.1525106,-0.0783418,1.3585,0.106222,0.001643933,1.661115,0.1050949,-0.3315251,1.623636,-0.06413344,0.2105835,1.661616,0.01970661,-0.3214183,1.580489,-0.1269924,0.02361873,1.455463,0.3542278,-0.0420656,1.633516,NA,NA,Unknown,Unknown,
-0.2670898,-0.9257813,0.1889648,0.1835938,0.8833008,0.2182617,6,-15,-3,13,15,15,1,15,0,1,1,2,4,1,2,3,-12.6875,-12.6875,-12.6875,-4.125,-4.125,-4.125,2.727909,5.369154,2.318429,7.10221,4.573459,2.558208,0.06062338,0.1024178,1.243806,0.1809959,-0.110753,1.379242,0.09903441,0.4574074,1.688102,0.03668752,0.1715525,1.225271,0.135491,-0.1218628,1.474667,0.1061313,0.001626247,1.661119,0.1048938,-0.3312262,1.623779,-0.06423363,0.2103524,1.661429,0.01959624,-0.3211939,1.580593,-0.1351028,0.05056006,1.491082,0.3900253,-0.02629025,1.613603,NA,NA,Unknown,Unknown,
-0.2670898,-0.8574219,0.1772461,0.1166992,0.8100586,0.2119141,4,-3,-1,-1,0,5,0,2,0,-2,-2,-3,-1,2,-3,0,-6.625,-6.625,-6.625,-3.75,-3.75,-3.75,2.719936,5.381104,2.305318,7.096708,4.593454,2.565553,0.05932197,0.09977154,1.243492,0.1843696,-0.1111448,1.37609,0.09884568,0.4576654,1.687632,0.0357754,0.1702508,1.222754,0.159734,-0.1448525,1.3775,0.1060949,0.001651189,1.661117,0.1049662,-0.330753,1.623848,-0.06434999,0.2101211,1.661257,0.01968639,-0.3208289,1.58059,-0.1351694,0.05015336,1.491063,0.3576273,-0.04055534,1.632359,NA,NA,Unknown,Unknown,
-0.2680664,-0.8208008,0.1708984,0.06835938,0.746582,0.2182617,3,6,-1,-6,1,2,-1,-1,0,-2,-4,-15,2,1,0,3,-7.3125,-7.3125,-7.3125,-2.75,-2.75,-2.75,2.715886,5.392507,2.296287,7.09334,4.607632,2.570561,0.05766417,0.09451,1.242984,0.187724,-0.1152817,1.378853,0.09858043,0.457922,1.687401,0.03503484,0.1570145,1.22175,0.1418201,-0.1341545,1.475571,0.1059293,0.001740407,1.661157,0.1045742,-0.3299814,1.6242,-0.06452517,0.2099386,1.661144,0.0194449,-0.3201132,1.580949,-0.1352918,0.0498759,1.491021,0.3576271,-0.04105541,1.632316,NA,NA,Unknown,Unknown,
-0.2495117,-0.7519531,0.1464844,0.01757813,0.7138672,0.2436523,8,15,-1,-6,-4,-4,1,-1,-1,-1,0,4,11,5,-1,-2,-13,-13,-13,-1.1875,-1.1875,-1.1875,2.700711,5.43099,2.271101,7.085807,4.650653,2.582432,0.05763926,0.08899804,1.2436,0.1904773,-0.1242841,1.377463,0.09835424,0.4581193,1.68697,0.0356431,0.1559799,1.222,0.1382181,-0.1539934,1.462,0.105783,0.001884934,1.661177,0.1043428,-0.3290889,1.624567,-0.06463961,0.2097126,1.660999,0.01936939,-0.3193328,1.58164,-0.1440116,0.02898613,1.504469,0.357173,-0.04096389,1.632972,NA,NA,Unknown,Unknown,
-0.2724609,-0.7177734,0.1474609,-0.02148438,0.6860352,0.2666016,10,1,0,-2,-2,-2,-1,2,0,-1,-2,-4,8,4,0,-2,-18.4375,-18.4375,-18.4375,-10,-10,-10,2.688313,5.460413,2.25426,7.071103,4.720322,2.596516,0.05477373,0.07762519,1.244897,0.1978893,-0.1402354,1.379908,0.09796578,0.4582573,1.686494,0.03315431,0.1455589,1.226,0.1595955,-0.1852492,1.45825,0.1056392,0.002136192,1.661223,0.1041062,-0.3276057,1.625177,-0.06477287,0.2092778,1.660828,0.0193578,-0.3179903,1.582805,-0.1455504,0.02672862,1.50713,0.3560499,-0.04128241,1.633035,NA,NA,Unknown,Unknown,
-0.3486328,-0.6982422,0.09130859,-0.04931641,0.7231445,0.3007813,16,10,0,0,-1,0,-2,-3,0,2,-1,1,0,0,0,-1,-53.375,-53.375,-53.375,-13.3125,-13.3125,-13.3125,2.608448,5.594526,2.190689,7.04829,4.824723,2.616198,0.05074179,0.06075466,1.247912,0.1992162,-0.1581869,1.380742,0.09740179,0.4586752,1.686142,0.0310157,0.1330438,1.227143,0.1549455,-0.1768825,1.449,0.1053991,0.002505925,1.661295,0.1036627,-0.3262286,1.625742,-0.06477345,0.2087833,1.660669,0.01916265,-0.3167928,1.583682,-0.1456308,0.02418922,1.509481,0.3542876,-0.04166623,1.633808,NA,NA,Unknown,Unknown,
-0.3925781,-0.6816406,0.08154297,-0.04638672,0.7246094,0.3085938,20,6,-3,-2,-1,1,1,-3,0,-1,4,1,-1,-2,0,-1,-67.1875,-67.1875,-67.1875,-15.25,-15.25,-15.25,2.562452,5.65263,2.162543,7.024425,4.961709,2.642063,0.04603352,0.03848992,1.250901,0.2038395,-0.186518,1.378769,0.09688445,0.4591158,1.685902,0.02657245,0.1048207,1.230889,0.1907101,-0.2278518,1.373444,0.1039608,0.002173069,1.661874,0.1030521,-0.3249828,1.626536,-0.06645112,0.2044557,1.659027,0.01890237,-0.3155949,1.585147,-0.1471827,0.01958742,1.520307,0.3486966,-0.04389052,1.636364,NA,NA,Unknown,Unknown,
-0.5166016,-0.7480469,-0.006835938,-0.08203125,0.7128906,0.3291016,-8,1,1,1,-5,-3,0,0,1,-2,-4,-2,2,0,0,-1,-76.9375,-76.9375,-76.9375,-9.75,-9.75,-9.75,2.449584,5.784823,2.097389,7.01818,5.043599,2.658585,0.04327645,0.009322542,1.255835,0.2145571,-0.2144479,1.38654,0.09642129,0.4598631,1.685789,0.02400658,0.07419224,1.2395,0.2243165,-0.2512767,1.363429,0.1036581,0.002589428,1.661821,0.1026702,-0.3242953,1.626796,-0.06623124,0.2042384,1.659007,0.01861838,-0.3147169,1.586058,-0.1484764,0.01650863,1.529799,0.344837,-0.04459597,1.638699,NA,NA,Unknown,Unknown,
-0.5166016,-0.7480469,-0.006835938,-0.08203125,0.7128906,0.3291016,-8,1,1,1,-5,-3,0,0,-2,-2,-7,-1,-1,-2,-3,-2,-76.9375,-76.9375,-76.9375,-9.75,-9.75,-9.75,2.449584,5.784823,2.097389,7.01818,5.043599,2.658585,0.03662009,-0.02658994,1.262874,0.2216313,-0.247838,1.402456,0.09600133,0.4605575,1.685631,0.0227281,0.03992905,1.243429,0.2187201,-0.2423331,1.341867,0.1033536,0.002915865,1.66198,0.1018434,-0.3238022,1.627797,-0.0661629,0.2040573,1.659085,0.01755073,-0.3141093,1.588323,-0.1513834,0.003866878,1.55557,0.3344418,-0.04742752,1.639837,NA,NA,Unknown,Unknown,
-0.6767578,-0.7973633,-0.1230469,-0.1538086,0.9243164,0.309082,7,3,-1,0,0,1,2,-1,-1,-3,1,2,0,0,-2,-3,-76.0625,-76.0625,-76.0625,1.9375,1.9375,1.9375,2.255773,6.029578,1.97905,7.022398,5.346929,2.732015,0.02642109,-0.06941548,1.270941,0.2287531,-0.2810986,1.429659,0.09550313,0.4615288,1.685395,0.006690694,-0.0393433,1.247878,0.2607764,-0.2385699,1.405589,0.1023836,0.002537282,1.661897,0.1013553,-0.3237201,1.62788,-0.06604014,0.2036279,1.659102,0.01671748,-0.3138557,1.588607,-0.1498794,-0.0007984184,1.564213,0.3155971,-0.05212362,1.641174,NA,NA,Unknown,Unknown,
-0.7680664,-0.7983398,-0.168457,-0.2358398,0.8994141,0.3041992,3,-7,2,1,0,1,-2,0,-1,4,15,3,0,0,0,2,-63.875,-63.875,-63.875,-2.875,-2.875,-2.875,2.187772,6.121518,1.927159,7.029747,5.464201,2.768263,0.0181439,-0.1195475,1.284382,0.2536876,-0.3055267,1.432333,0.09516849,0.4627261,1.685251,0.002499392,-0.09484436,1.251389,0.2597262,-0.3157499,1.377472,0.1016492,0.002122371,1.661984,0.1012576,-0.3238443,1.628018,-0.06628018,0.2030614,1.659227,0.01650786,-0.3140017,1.588881,-0.170601,-0.04406773,1.530162,0.3140119,-0.05617613,1.642468,NA,NA,Unknown,Unknown,
-0.8925781,-0.8432617,-0.2363281,-0.4750977,1.01709,0.284668,3,1,-2,-3,1,1,-4,0,0,2,5,0,-1,-2,1,-1,-29.3125,-29.3125,-29.3125,-1.8125,-1.8125,-1.8125,2.063304,6.3132,1.808881,7.0505,5.719057,2.837659,0.001294244,-0.1703298,1.301526,0.2666299,-0.3342361,1.449779,0.09485327,0.4638265,1.684985,0.07138332,-0.213702,1.330333,0.3052215,-0.3608697,1.435867,0.1014032,0.001845328,1.661785,0.1016062,-0.3240683,1.62804,-0.06684749,0.2023261,1.659364,0.0168413,-0.3144067,1.588985,-0.1734805,-0.04541495,1.564657,0.3125083,-0.06335072,1.641767,NA,NA,Unknown,Unknown,
-0.9394531,-0.7949219,-0.28125,-0.5864258,1.029297,0.277832,-4,-11,-7,-7,-7,-20,-21,-7,1,3,-2,1,-1,-1,1,0,-3.625,-3.625,-3.625,-28.875,-28.875,-28.875,2.008072,6.410066,1.738697,7.070823,5.969621,2.922345,-0.00767268,-0.2300327,1.323602,0.2774099,-0.3602099,1.471879,0.09455319,0.4652243,1.685131,0.05746563,-0.2905327,1.375333,0.3164757,-0.3781468,1.456333,0.1013945,0.001716032,1.661701,0.1031091,-0.3245883,1.628245,-0.06821748,0.2010091,1.659723,0.01848935,-0.3159648,1.589514,-0.1701345,-0.05189496,1.565292,0.3113986,-0.0693378,1.641031,NA,NA,Unknown,Unknown,
-1.000977,-0.7348633,-0.2592773,-0.8115234,0.9448242,0.1748047,-2,-1,0,0,0,0,-5,-1,-4,1,6,-1,-3,-3,-3,-2,26.6875,26.6875,26.6875,-34.25,-34.25,-34.25,1.95759,6.506218,1.656319,7.099386,6.222549,3.027603,-0.03611468,-0.2663022,1.360536,0.2846529,-0.3695823,1.499048,0.09438926,0.4663593,1.684876,-0.01125683,-0.3323947,1.351714,0.3252299,-0.3839335,1.472147,0.1014881,0.001273233,1.661203,0.1057323,-0.3263959,1.627764,-0.08193776,0.1855663,1.656351,0.02106072,-0.3198335,1.58915,-0.1291467,-0.04462055,1.618705,0.3102279,-0.07461497,1.641215,NA,NA,Unknown,Unknown,
-1.059082,-0.4858398,-0.2758789,-0.9179688,0.8129883,0.1015625,0,0,1,0,-2,-1,0,-1,-1,-5,-1,0,-1,-4,-1,0,24.8125,24.8125,24.8125,-28.875,-28.875,-28.875,1.632788,6.830583,1.187872,7.17709,6.447768,3.174527,-0.05598219,-0.300451,1.391423,0.2890527,-0.3823479,1.518769,0.09412084,0.467303,1.684461,-0.05359826,-0.3657734,1.384333,0.3400725,-0.3976236,1.50181,0.1018749,0.0007232015,1.660189,0.1085478,-0.327862,1.62677,-0.08435997,0.1826535,1.655828,0.0232663,-0.3222421,1.588394,-0.1287154,-0.04689812,1.619143,0.3093183,-0.07810459,1.641057,NA,NA,Unknown,Unknown,
-1.141113,-0.4628906,-0.3764648,-1.058105,0.7983398,0.1347656,-21,-8,0,0,0,0,-3,0,-1,-4,0,-1,-1,-1,-1,-3,16.75,16.75,16.75,-28.3125,-28.3125,-28.3125,1.372845,6.924866,0.8882794,7.240315,6.55329,3.271953,-0.06954624,-0.3327835,1.424809,0.2987204,-0.3913818,1.533546,0.09386241,0.4681064,1.684199,-0.07738422,-0.3878308,1.419083,0.35092,-0.396893,1.525945,0.1017812,0.0002049546,1.65937,0.1093142,-0.3286235,1.626654,-0.08613749,0.1810936,1.655737,0.02388921,-0.3234922,1.588532,-0.1251739,-0.05392711,1.623218,0.3084133,-0.08083612,1.641656,NA,NA,Unknown,NotTracked,
-1.11377,-0.5273438,-0.2905273,-1,0.7255859,0.02783203,-11,-3,2,0,2,3,2,2,-1,-1,0,-2,-2,-2,-2,-1,33.5,33.5,33.5,-4.6875,-4.6875,-4.6875,1.260256,6.942342,0.7461815,7.392374,6.72733,3.465731,-0.07801308,-0.3680648,1.455098,0.3078918,-0.4007704,1.54628,0.09363329,0.4688046,1.683986,-0.0628842,-0.4143366,1.481667,0.3617737,-0.4068494,1.544235,0.1014928,-0.0001724901,1.658722,0.1093671,-0.3289959,1.626585,-0.08789314,0.179615,1.655459,0.02385182,-0.3241041,1.588657,-0.12372,-0.06217982,1.626226,0.3080218,-0.08466046,1.643019,NA,NA,Unknown,NotTracked,
-1.146484,-0.4853516,-0.4511719,-1.015625,0.6367188,0.02099609,21,60,-2,-2,-2,-1,-1,1,0,-2,8,-1,-2,0,-2,-2,38.4375,38.4375,38.4375,-18.625,-18.625,-18.625,1.070614,6.95273,0.4972849,7.580596,6.851912,3.69415,-0.08452522,-0.3844866,1.489362,0.3168402,-0.4061423,1.556099,0.09334171,0.4695668,1.683657,-0.07624912,-0.3843786,1.508179,0.3698512,-0.4136117,1.554375,0.1008978,-0.0006222459,1.657629,0.1091086,-0.3293882,1.626455,-0.08911404,0.1785901,1.655101,0.02353515,-0.3245904,1.588757,-0.1235402,-0.06888758,1.629306,0.3082428,-0.08704942,1.643561,NA,NA,Unknown,NotTracked,
-1.692871,-0.4790039,-0.0546875,-0.9926758,0.5322266,0.03271484,2,1,0,0,-1,-1,-1,-2,0,-1,-1,-2,-1,-1,-1,-2,8.25,8.25,8.25,-16.5625,-16.5625,-16.5625,1.018896,6.977486,0.4135098,7.768569,6.92969,3.919443,-0.08931817,-0.3902462,1.517258,0.3248091,-0.4110309,1.565884,0.09297908,0.4702261,1.683099,-0.1311349,-0.3835432,1.512104,0.3770592,-0.4071456,1.569941,0.09997684,-0.0008090562,1.656814,0.1079475,-0.329887,1.626551,-0.09023236,0.1776053,1.654818,0.02238216,-0.3250262,1.589372,-0.1236384,-0.07265417,1.631999,0.3088129,-0.08996585,1.64478,NA,NA,Unknown,NotTracked,
-1.217285,-0.2734375,-0.3969727,-0.9760742,0.4951172,0.02099609,2,1,-1,2,-2,-2,1,-2,0,-2,-3,-1,-1,-1,-1,-1,3.875,3.875,3.875,-8.9375,-8.9375,-8.9375,0.9770364,6.976637,0.3671528,7.851041,6.957437,4.01447,-0.09507383,-0.4064219,1.533366,0.3322673,-0.4130085,1.573734,0.09251256,0.4710154,1.682327,-0.1444899,-0.3923265,1.547786,0.3830934,-0.4094416,1.5765,0.09931705,-0.0009339967,1.656156,0.1069447,-0.3302883,1.626643,-0.09084234,0.177149,1.654522,0.0212418,-0.325407,1.58997,-0.1244042,-0.07503447,1.635129,0.3100269,-0.09210317,1.646084,NA,NA,Unknown,NotTracked,
-0.9545898,-0.3818359,-0.2724609,-0.9760742,0.4951172,0.02099609,2,1,-1,2,-2,-2,1,-2,0,-2,-3,-1,-1,-1,-1,-1,-21.0625,-21.0625,-21.0625,-8.9375,-8.9375,-8.9375,0.9593077,6.974124,0.3584185,7.851041,6.957437,4.01447,-0.1042749,-0.4118573,1.552884,0.3378086,-0.4137372,1.579261,0.09203415,0.4716718,1.681953,-0.1493791,-0.3963906,1.558154,0.3853412,-0.4105254,1.577105,0.09853407,-0.0009985897,1.655743,0.1050572,-0.3306344,1.627351,-0.09127796,0.1770111,1.654319,0.01919791,-0.3256134,1.591451,-0.125411,-0.0766011,1.638367,0.3118478,-0.09590102,1.648282,NA,NA,NotTracked,NotTracked,
-0.9306641,-0.3383789,-0.2451172,-0.965332,0.4643555,0.01269531,5,-7,-1,-4,-1,-2,2,0,0,0,0,-1,-1,1,1,1,-22.0625,-22.0625,-22.0625,0.6875,0.6875,0.6875,0.9529274,6.970814,0.3629897,7.98762,6.993556,4.163651,-0.1108309,-0.4171024,1.568494,0.3420999,-0.4129028,1.580496,0.09142907,0.4723611,1.681385,-0.1601271,-0.4407234,1.581667,0.388426,-0.4117017,1.576722,0.09726159,-0.001159336,1.655252,0.1031347,-0.3311479,1.628211,-0.09167572,0.1767015,1.65413,0.01730208,-0.3258227,1.592744,-0.1266748,-0.07828008,1.64246,0.3130713,-0.09669659,1.649202,NA,NA,NotTracked,NotTracked,
-0.921875,-0.3637695,-0.2143555,-0.9472656,0.4223633,-0.01074219,-1,-2,-3,-3,-1,1,-1,-2,3,-2,-2,-2,0,0,0,2,-18.8125,-18.8125,-18.8125,3,3,3,0.975332,6.960113,0.4052788,8.074698,7.013639,4.255268,-0.1177647,-0.4173571,1.58019,0.3449188,-0.4126615,1.578107,0.090821,0.4728342,1.680608,-0.1619597,-0.4088336,1.587222,0.3938462,-0.4114606,1.5785,0.09642539,-0.001147129,1.654628,0.1020475,-0.3311763,1.628456,-0.09201879,0.1767581,1.653771,0.016354,-0.3257514,1.593053,-0.1274391,-0.0797886,1.645856,0.3137176,-0.09690783,1.649454,NA,NA,NotTracked,NotTracked,
-0.9301758,-0.3803711,-0.2177734,-0.9365234,0.3964844,-0.02734375,-1,2,2,0,-4,-2,0,-2,-3,-1,-3,0,-2,-1,-4,-4,-7.1875,-7.1875,-7.1875,3.6875,3.6875,3.6875,1.023146,6.944579,0.463471,8.120121,7.024699,4.302147,-0.1211873,-0.417688,1.590341,0.3458751,-0.410759,1.576274,0.09033769,0.4733312,1.680225,-0.1667968,-0.4315223,1.595,0.3891572,-0.4085364,1.572855,0.09571007,-0.00107983,1.654354,0.1007468,-0.331297,1.629027,-0.09247136,0.1766727,1.653284,0.01501897,-0.3257646,1.593806,-0.1290821,-0.08150303,1.650722,0.3143088,-0.09715971,1.649443,NA,NA,NotTracked,NotTracked,
-0.9423828,-0.3666992,-0.2109375,-0.9492188,0.4116211,-0.00390625,0,1,0,-1,0,-1,-1,1,0,-1,-1,-2,-2,-3,0,0,11.6875,11.6875,11.6875,1.375,1.375,1.375,1.095263,6.927651,0.5273162,8.117518,7.026222,4.300548,-0.1241351,-0.4213243,1.59751,0.3460947,-0.409933,1.570986,0.09001361,0.4735918,1.680014,-0.1684769,-0.4081998,1.608455,0.3922214,-0.4126199,1.561813,0.09539118,-0.001143788,1.654269,0.1001098,-0.3315361,1.629501,-0.09284448,0.1763958,1.652998,0.01430385,-0.3259805,1.594507,-0.1300753,-0.08300205,1.654399,0.3149008,-0.09725457,1.64954,NA,NA,NotTracked,NotTracked,
-0.949707,-0.3227539,-0.2182617,-0.9467773,0.3950195,-0.02832031,-3,-1,0,1,0,-2,-2,-1,-1,-1,2,-1,1,-1,-1,-2,21.375,21.375,21.375,-5.875,-5.875,-5.875,1.181603,6.909206,0.5931818,8.080981,7.019972,4.269408,-0.1252018,-0.4216207,1.600401,0.3434465,-0.4090871,1.564247,0.08962893,0.4738436,1.679763,-0.1717371,-0.4354975,1.6098,0.3868258,-0.4116152,1.551455,0.09480721,-0.001236529,1.654111,0.09929483,-0.3318317,1.629947,-0.09311245,0.17625,1.652531,0.01345399,-0.3262102,1.595121,-0.1308382,-0.08404542,1.657138,0.3153961,-0.09709063,1.648889,NA,NA,NotTracked,NotTracked,
