ALX,ALY,ALZ,ARX,ARY,ARZ,EMG0L,EMG1L,EMG2L,EMG3L,EMG4L,EMG5L,EMG6L,EMG7L,EMG0R,EMG1R,EMG2R,EMG3R,EMG4R,EMG5R,EMG6R,EMG7R,GLX,GLY,GLZ,GRX,GRY,GRZ,ORL,OPL,OYL,ORR,OPR,OYR,LHNX,LHNY,LHNZ,RHNX,RHNY,RHNZ,HX,HY,HZ,LTX,LTY,LTZ,RTX,RTY,RTZ,SpineMidX,SpineMidY,SpineMidZ,SpineBaseX,SpineBaseY,SpineBaseZ,ShoulderLeftX,ShoulderLeftY,ShoulderLeftZ,ShoulderRightX,ShoulderRightY,ShoulderRightZ,ElbowLeftX,ElbowLeftY,ElbowLeftZ,ElbowRightX,ElbowRightY,ElbowRightZ,Myo_Pose_left,Myo_Pose_Right,Kinect_pose_left,Kinect_pose_right
-0.9433594,-0.3232422,-0.1953125,-0.9375,0.3442383,-0.06835938,4,3,-1,-2,0,-1,-1,1,0,-2,-1,0,-1,-1,0,-2,-1.5,-1.5,-1.5,-0.8125,-0.8125,-0.8125,1.608111,6.907652,1.161476,7.796938,6.926708,3.782128,-0.09798886,-0.4038852,1.573673,0.3042592,-0.4157289,1.523976,0.1159775,0.4744533,1.673924,-0.1443006,-0.4061881,1.585775,0.3572628,-0.4248251,1.519699,0.1120658,-0.001917185,1.654821,0.1114586,-0.3325107,1.632622,-0.072223,0.18958,1.663631,0.02613878,-0.3244723,1.598901,-0.1093554,-0.0840274,1.664173,0.3161911,-0.09465262,1.628213,NA,NA,NotTracked,NotTracked,
-0.9462891,-0.3227539,-0.1918945,-0.9316406,0.3432617,-0.06347656,0,-2,-1,-1,-1,-2,1,-1,1,-1,-1,-1,1,-1,-2,-1,-1.5,-1.5,-1.5,-0.625,-0.625,-0.625,1.608403,6.908255,1.163791,7.796938,6.926708,3.782128,-0.09813505,-0.4031494,1.572745,0.3038506,-0.4152482,1.522925,0.1160494,0.4744582,1.673944,-0.1445596,-0.4056996,1.586223,0.3568698,-0.4235432,1.517308,0.1121224,-0.001948401,1.654873,0.111442,-0.3326017,1.632668,-0.07249318,0.1877251,1.662976,0.02612054,-0.3245681,1.598934,-0.1092081,-0.08395099,1.664198,0.3162021,-0.0946869,1.62823,NA,NA,NotTracked,NotTracked,
-0.9458008,-0.3178711,-0.1958008,-0.9326172,0.3388672,-0.06445313,0,-2,-1,-1,0,0,0,-1,-1,0,-2,-2,-3,-2,0,-1,-2.375,-2.375,-2.375,1,1,1,1.60872,6.907938,1.166626,7.79775,6.927094,3.782087,-0.09817268,-0.4032102,1.571875,0.3038563,-0.4152396,1.522645,0.1160969,0.4744547,1.673929,-0.1449555,-0.4048806,1.587508,0.3568817,-0.4248426,1.518148,0.112163,-0.001986308,1.654876,0.1115613,-0.3327235,1.63259,-0.07274139,0.1862456,1.662509,0.02619861,-0.3247274,1.598866,-0.1092085,-0.08401334,1.664178,0.3161989,-0.09472202,1.628221,NA,NA,NotTracked,NotTracked,
-0.9414063,-0.3212891,-0.1953125,-0.9370117,0.3432617,-0.06494141,2,1,-2,0,0,-2,-1,0,-1,-1,-1,-2,-1,0,-1,1,-2.4375,-2.4375,-2.4375,0.625,0.625,0.625,1.608591,6.907121,1.167844,7.79775,6.927094,3.782087,-0.09794244,-0.4038727,1.572574,0.3039464,-0.4157216,1.523482,0.1161838,0.4745171,1.674037,-0.1438124,-0.4024135,1.584296,0.3567087,-0.4256693,1.518366,0.1122026,-0.002017518,1.654916,0.1115858,-0.3328039,1.632624,-0.07291364,0.1852696,1.662337,0.02620534,-0.3248316,1.598939,-0.1090047,-0.08420793,1.66421,0.3161937,-0.09462171,1.628249,NA,NA,NotTracked,NotTracked,
-0.9428711,-0.3139648,-0.1943359,-0.9482422,0.3417969,-0.06787109,1,1,-1,0,0,-1,1,1,-2,-2,0,0,-2,-1,-3,-1,-2.375,-2.375,-2.375,-0.5,-0.5,-0.5,1.610394,6.906284,1.173493,7.79776,6.927493,3.781498,-0.09817828,-0.4042003,1.572261,0.3032799,-0.4155055,1.522069,0.1162016,0.4745184,1.674045,-0.1437064,-0.3996612,1.593518,0.3572762,-0.4223478,1.522564,0.1122229,-0.002062304,1.654929,0.1115798,-0.3329511,1.632648,-0.07300803,0.184336,1.662057,0.02619106,-0.3250021,1.599002,-0.1089949,-0.08420768,1.664201,0.3161961,-0.09460929,1.628243,NA,NA,NotTracked,NotTracked,
-0.9428711,-0.3139648,-0.1943359,-0.9365234,0.3457031,-0.07128906,3,1,-1,-4,0,-3,-2,-1,-2,-1,0,-1,-1,-1,0,-1,-2.375,-2.375,-2.375,-1.6875,-1.6875,-1.6875,1.610394,6.906284,1.173493,7.797524,6.927187,3.783,-0.0979161,-0.4036428,1.572033,0.303355,-0.415503,1.522041,0.1162259,0.47452,1.674089,-0.1445536,-0.4049144,1.586229,0.3568417,-0.4241196,1.518677,0.1121981,-0.00213644,1.654978,0.1115139,-0.3331177,1.632772,-0.07304404,0.1834273,1.662084,0.02612981,-0.3251569,1.599099,-0.1089459,-0.0841265,1.664267,0.3162063,-0.09457683,1.628232,NA,NA,NotTracked,NotTracked,
-0.9453125,-0.3115234,-0.1982422,-0.9379883,0.3393555,-0.07080078,-2,0,-1,0,0,-1,-1,0,-1,-2,-1,0,-2,0,-1,-1,-2,-2,-2,-2.8125,-2.8125,-2.8125,1.611016,6.905364,1.17684,7.796668,6.927472,3.783575,-0.09804149,-0.4032551,1.572176,0.3032303,-0.4157201,1.521339,0.1162424,0.4745082,1.674096,-0.1437095,-0.3916117,1.59475,0.356575,-0.4236283,1.517398,0.1122041,-0.002166136,1.654987,0.1115368,-0.3331803,1.632749,-0.07308513,0.1832078,1.66203,0.02615056,-0.3252417,1.599096,-0.1089545,-0.08413112,1.664272,0.3162194,-0.09454231,1.628187,NA,NA,NotTracked,NotTracked,
-0.9414063,-0.3139648,-0.190918,-0.9326172,0.3549805,-0.06152344,0,1,-1,-2,-2,-1,0,-1,-1,-1,-1,0,0,-1,0,-1,-3,-3,-3,0.3125,0.3125,0.3125,1.60752,6.906268,1.176703,7.795787,6.927976,3.783508,-0.09819392,-0.4040224,1.573037,0.3031013,-0.4153753,1.52154,0.1162928,0.4744291,1.674113,-0.1451599,-0.4064789,1.591452,0.3563645,-0.4281309,1.517733,0.1122551,-0.002209956,1.654982,0.1115578,-0.3332844,1.632717,-0.07315557,0.1826963,1.661955,0.02616123,-0.3253499,1.599068,-0.1087549,-0.08441595,1.664383,0.3161855,-0.0944759,1.628175,NA,NA,NotTracked,NotTracked,
-0.9467773,-0.3046875,-0.1918945,-0.9355469,0.3520508,-0.06787109,-1,0,-1,0,1,0,-1,0,2,-1,-2,0,0,-1,-2,0,-0.3125,-0.3125,-0.3125,-0.9375,-0.9375,-0.9375,1.607783,6.906062,1.177851,7.795713,6.928032,3.783268,-0.09828667,-0.4036728,1.573315,0.3034196,-0.4160143,1.521778,0.1163186,0.4744297,1.67412,-0.1448238,-0.4037399,1.590767,0.3566046,-0.4250399,1.517422,0.1122509,-0.002231538,1.654985,0.1115267,-0.3333586,1.632714,-0.07322336,0.182473,1.661975,0.02612525,-0.3254351,1.599089,-0.1086511,-0.08456084,1.66453,0.3161672,-0.09443274,1.628165,NA,NA,NotTracked,NotTracked,
-0.9511719,-0.3066406,-0.1933594,-0.9404297,0.3452148,-0.06103516,-2,-1,-1,-3,-1,1,0,0,-2,-1,-1,-2,-2,-1,-1,0,-0.4375,-0.4375,-0.4375,-1.625,-1.625,-1.625,1.607785,6.906474,1.177927,7.795611,6.928581,3.785512,-0.0978763,-0.4034372,1.573423,0.3033253,-0.4155192,1.52224,0.1163333,0.4744151,1.674188,-0.142796,-0.4029023,1.586075,0.3557236,-0.4225623,1.517465,0.1122686,-0.002277672,1.655012,0.1114774,-0.3334423,1.632776,-0.07328487,0.182146,1.662079,0.02607135,-0.3255289,1.59916,-0.1085794,-0.08438881,1.664761,0.3161465,-0.09443726,1.628224,NA,NA,NotTracked,NotTracked,
-0.9545898,-0.3164063,-0.1933594,-0.9394531,0.3452148,-0.06982422,-1,-1,0,-1,-1,-2,-1,-1,-1,0,-3,-1,-1,-2,0,-1,0.125,0.125,0.125,-0.25,-0.25,-0.25,1.607785,6.906474,1.177927,7.797019,6.928938,3.787258,-0.09819914,-0.4035947,1.572775,0.3031416,-0.4151865,1.521563,0.1163425,0.4744022,1.674204,-0.1444754,-0.4019221,1.588839,0.3565179,-0.4253854,1.517751,0.1122653,-0.002287849,1.655029,0.1114777,-0.3334423,1.632779,-0.07329489,0.181791,1.662094,0.02607394,-0.3255361,1.599231,-0.1085358,-0.08438052,1.664836,0.3161441,-0.09444321,1.628117,NA,NA,NotTracked,NotTracked,
-0.949707,-0.3154297,-0.1899414,-0.9326172,0.3505859,-0.06982422,1,-1,-1,1,-2,0,-3,-1,-2,-2,-2,-3,-2,-1,-2,1,0.8125,0.8125,0.8125,0.625,0.625,0.625,1.60843,6.906563,1.178556,7.796772,6.928816,3.786806,-0.09823851,-0.403082,1.573564,0.3026881,-0.4149582,1.521498,0.1163549,0.4744053,1.674243,-0.1442188,-0.4022556,1.588107,0.3525475,-0.4199606,1.513758,0.1123529,-0.002306477,1.655028,0.1115895,-0.3334005,1.632699,-0.07351245,0.1813114,1.662117,0.02612871,-0.3255766,1.599183,-0.1085347,-0.08427107,1.665066,0.3161278,-0.09442184,1.628052,NA,NA,NotTracked,NotTracked,
-0.9428711,-0.3149414,-0.1884766,-0.9316406,0.3530273,-0.05712891,0,-1,-2,-1,-1,-1,0,-1,-2,-1,0,0,0,-1,-1,-2,-0.0625,-0.0625,-0.0625,0.9375,0.9375,0.9375,1.608648,6.906559,1.178654,7.796772,6.928816,3.786806,-0.09823915,-0.4045151,1.574429,0.3023935,-0.4164614,1.521779,0.1163833,0.474405,1.674444,-0.1435123,-0.4086121,1.584044,0.355436,-0.4237003,1.517958,0.1123606,-0.002338899,1.655075,0.1115875,-0.3334349,1.632714,-0.07352193,0.181217,1.662168,0.0261314,-0.3255957,1.599175,-0.1086308,-0.08406348,1.665171,0.3161107,-0.0942471,1.628042,NA,NA,NotTracked,NotTracked,
-0.9404297,-0.3154297,-0.1958008,-0.9311523,0.3540039,-0.06591797,0,-1,-1,0,-3,0,1,0,-1,0,-2,-1,-1,0,0,-2,-0.0625,-0.0625,-0.0625,0.875,0.875,0.875,1.608648,6.906559,1.178654,7.797478,6.928131,3.786661,-0.09894133,-0.4036066,1.57479,0.3021095,-0.4163886,1.521319,0.1164227,0.4743445,1.674508,-0.1448055,-0.4033762,1.589367,0.3555259,-0.4246094,1.518115,0.1123712,-0.002364291,1.655076,0.1115833,-0.333449,1.632688,-0.07359351,0.181063,1.662231,0.02612561,-0.3256094,1.599148,-0.1086354,-0.08406278,1.665176,0.3160924,-0.09423685,1.628061,NA,NA,NotTracked,NotTracked,
-0.9418945,-0.3149414,-0.1987305,-0.9770508,0.3588867,-0.06054688,0,1,0,-2,2,1,0,1,7,-1,0,-2,0,-1,-1,2,0.125,0.125,0.125,0.1875,0.1875,0.1875,1.608648,6.906559,1.178654,7.795056,6.925761,3.78384,-0.09904411,-0.4034128,1.575096,0.3022046,-0.4166956,1.521568,0.1165246,0.4743686,1.674822,-0.1450732,-0.4071917,1.589953,0.3540639,-0.4183153,1.517426,0.1123931,-0.002367151,1.655088,0.1116228,-0.3334554,1.632657,-0.0736795,0.1809121,1.66236,0.02615741,-0.3256326,1.599145,-0.1086654,-0.08410933,1.66523,0.3160331,-0.09410969,1.628165,NA,NA,NotTracked,NotTracked,
-0.9521484,-0.3139648,-0.1948242,-1.053223,0.3681641,-0.08447266,0,1,-1,-1,1,0,-1,-1,0,3,-4,-2,-2,-2,0,1,0.375,0.375,0.375,0.0625,0.0625,0.0625,1.609464,6.905621,1.179099,7.788515,6.921096,3.776319,-0.09888028,-0.4040363,1.575016,0.3021258,-0.4165681,1.521922,0.1165699,0.4743445,1.675236,-0.1445561,-0.4033399,1.59006,0.3547342,-0.4259343,1.516897,0.1123459,-0.002434325,1.655284,0.111503,-0.3335647,1.632787,-0.07368608,0.1808808,1.662433,0.02605157,-0.3257194,1.599265,-0.1086813,-0.08415656,1.665451,0.3159688,-0.09403834,1.628195,NA,NA,NotTracked,NotTracked,
-1.006836,-0.3525391,-0.1904297,-0.9736328,0.5932617,-0.1269531,9,6,0,0,7,6,15,6,3,0,35,4,1,-1,0,1,3.1875,3.1875,3.1875,-8.5,-8.5,-8.5,1.618208,6.901886,1.185773,7.724998,6.885561,3.708578,-0.09859935,-0.4035833,1.571847,0.3012459,-0.4157422,1.519243,0.1165865,0.4743144,1.675273,-0.1439604,-0.3976159,1.589635,0.3548949,-0.4269204,1.515408,0.112326,-0.002452526,1.655279,0.1114412,-0.3336072,1.63267,-0.0737323,0.1808338,1.662463,0.0259673,-0.3257556,1.599137,-0.1087861,-0.0840886,1.665574,0.3159201,-0.09389508,1.628232,NA,NA,NotTracked,NotTracked,
-1.089844,-0.5439453,-0.2666016,-0.8881836,0.8754883,0.01220703,7,6,6,3,-2,-7,3,3,11,19,60,17,7,1,3,11,32.75,32.75,32.75,-51.3125,-51.3125,-51.3125,1.698218,6.875054,1.244312,7.566586,6.789011,3.586257,-0.09733325,-0.4020267,1.566191,0.3001617,-0.4142673,1.517524,0.1166124,0.4742355,1.675427,-0.1400339,-0.3962332,1.574046,0.3536951,-0.4253358,1.513922,0.1123276,-0.002456832,1.655278,0.1114294,-0.3336328,1.632594,-0.07378572,0.1808222,1.662619,0.02595462,-0.3257652,1.599057,-0.1091008,-0.08333638,1.665967,0.3159983,-0.09376217,1.628406,NA,NA,NotTracked,NotTracked,
-1.178223,-0.5776367,-0.3120117,-0.984375,0.8378906,0.2128906,2,1,-1,-3,-1,2,-1,0,-13,17,-15,-45,-12,1,-14,-19,62.75,62.75,62.75,-18.3125,-18.3125,-18.3125,1.792115,6.840812,1.308958,7.383202,6.640199,3.414536,-0.09256662,-0.40017,1.550861,0.2952816,-0.407744,1.510981,0.116606,0.4742056,1.675604,-0.1396809,-0.4045443,1.552882,0.3425079,-0.4168477,1.497458,0.1122923,-0.00244857,1.655281,0.1113262,-0.3336123,1.632527,-0.07412523,0.1808902,1.663293,0.0258655,-0.3257349,1.599036,-0.1094138,-0.08317173,1.666641,0.3166535,-0.09386382,1.629364,NA,NA,NotTracked,NotTracked,
-1.129883,-0.6264648,-0.2080078,-0.9423828,1.104004,0.5141602,-11,-2,2,-3,-4,-6,-7,-5,-6,6,10,16,43,-3,-27,-12,57.125,57.125,57.125,-17.4375,-17.4375,-17.4375,2.051137,6.728039,1.51223,7.277232,6.528175,3.30135,-0.08458508,-0.3925026,1.527123,0.2872705,-0.3838399,1.498772,0.1164787,0.474229,1.675908,-0.1355465,-0.3791198,1.526857,0.3243971,-0.414442,1.464571,0.1122675,-0.0024357,1.655266,0.1112391,-0.3334831,1.632341,-0.0745361,0.1811702,1.664307,0.02581618,-0.325691,1.598978,-0.1102316,-0.08259086,1.667057,0.3187048,-0.09161574,1.633139,NA,NA,NotTracked,NotTracked,
-0.996582,-1.164063,-0.08789063,-0.8027344,1.574219,0.3999023,-13,-33,0,14,3,-2,-4,1,3,-1,-23,-13,49,44,-4,0,-49.3125,-49.3125,-49.3125,-70.5625,-70.5625,-70.5625,2.250843,6.511424,1.774428,7.097609,6.217064,3.150279,-0.1008896,-0.3509581,1.481059,0.2782035,-0.3586037,1.470988,0.1162089,0.4742281,1.676359,-0.1059615,-0.3794827,1.477875,0.2909869,-0.3622593,1.414083,0.1121209,-0.002235413,1.655272,0.1107009,-0.3325593,1.632043,-0.07357006,0.1894259,1.66749,0.02536594,-0.3249024,1.598938,-0.1132244,-0.08016815,1.667187,0.321876,-0.08702399,1.637342,NA,NA,NotTracked,Unknown,
-0.9072266,-1.530273,-0.05566406,-0.746582,1.092285,0.5322266,3,-1,-14,21,31,7,2,2,9,5,9,-1,-27,-44,-6,6,-92.375,-92.375,-92.375,-125.5625,-125.5625,-125.5625,2.284455,6.358895,1.881278,6.897088,5.883571,3.045558,-0.1017082,-0.3001094,1.438575,0.2605582,-0.3194777,1.441109,0.1157605,0.4742413,1.676877,-0.08465704,-0.3267438,1.4898,0.2742529,-0.3162042,1.388942,0.1117404,-0.002025591,1.655502,0.109706,-0.3320871,1.631884,-0.07480136,0.187854,1.669469,0.02407136,-0.3242757,1.599144,-0.1146852,-0.07559144,1.666393,0.3242801,-0.08336525,1.639896,NA,NA,Unknown,Unknown,
-0.7949219,-1.558594,-0.1342773,-0.5693359,0.8032227,0.5595703,6,-41,1,13,-13,1,1,0,4,0,-1,9,1,-15,-2,-2,-83.875,-83.875,-83.875,-43.375,-43.375,-43.375,2.304865,5.999104,2.066872,6.783581,5.551018,2.94263,-0.09285995,-0.2511351,1.384929,0.2216858,-0.2779914,1.436373,0.1148068,0.4738566,1.677761,-0.0358241,-0.3002746,1.339,0.2924139,-0.2165419,1.367667,0.1112759,-0.001909193,1.655843,0.1090958,-0.3318167,1.631682,-0.07582851,0.1861345,1.671767,0.02350285,-0.3240978,1.599221,-0.1182212,-0.05804566,1.662408,0.3305368,-0.05950667,1.643767,NA,NA,Unknown,Unknown,
-0.6943359,-1.47168,-0.04638672,-0.3886719,0.8632813,0.5712891,5,64,20,-6,-5,-3,-1,-4,0,-2,-5,-2,1,3,0,2,-48.0625,-48.0625,-48.0625,28.6875,28.6875,28.6875,2.330386,5.80628,2.161962,6.773048,5.236155,2.830259,-0.07883219,-0.1940477,1.335034,0.2117612,-0.1983115,1.38651,0.1133689,0.4734537,1.679435,-0.03285443,-0.2282766,1.296833,0.2338562,-0.1926124,1.347861,0.1107848,-0.001339107,1.656349,0.1085288,-0.3303874,1.631068,-0.07499776,0.1896459,1.67247,0.02322775,-0.3230138,1.598908,-0.1199329,-0.04424357,1.653674,0.3500443,-0.04820681,1.633351,NA,NA,Unknown,Unknown,
-0.2426758,-1.260742,-0.05322266,-0.3286133,0.8613281,0.5532227,4,5,4,4,-2,-1,-8,8,9,4,-2,-5,9,-8,10,15,62.75,62.75,62.75,15.875,15.875,15.875,2.463114,5.209338,2.411598,6.774799,5.101294,2.773559,-0.05862974,-0.1308381,1.305005,0.1958843,-0.1244805,1.365869,0.1115423,0.473048,1.681641,-0.02506872,-0.1615588,1.302,0.1297114,-0.1285232,1.429,0.1105134,-0.0009968864,1.657083,0.1087199,-0.3297396,1.63094,-0.07402671,0.1869871,1.672827,0.02337517,-0.3227836,1.598959,-0.1309134,-0.03986908,1.638979,0.3565198,-0.03732353,1.623446,NA,NA,Unknown,Unknown,
0.02050781,-1.110352,-0.1064453,-0.2900391,0.6655273,0.4726563,14,12,-19,-13,-9,-5,-7,14,11,5,2,-6,-72,-30,11,29,21.5625,21.5625,21.5625,26.375,26.375,26.375,2.503545,4.810455,2.563569,6.79842,4.881324,2.656889,-0.03689419,-0.06903081,1.283337,0.1792895,-0.05008215,1.354918,0.1097218,0.4725771,1.684696,0.01108214,-0.08967132,1.269375,0.1228607,-0.05918781,1.3805,0.1098235,-0.0005756956,1.65909,0.1084158,-0.3292718,1.631229,-0.06995966,0.1862886,1.672877,0.02308538,-0.3223951,1.599302,-0.1769611,-0.02810976,1.567483,0.3724594,-0.02813401,1.596774,NA,NA,Unknown,Unknown,
0.171875,-1.141602,-0.03027344,-0.1679688,0.7597656,0.4248047,29,35,11,11,14,7,5,-1,-12,-5,-4,0,-6,-25,-7,-7,-38,-38,-38,43.1875,43.1875,43.1875,2.445035,4.43269,2.700784,6.854956,4.708275,2.543978,-0.01757239,-0.01533132,1.271814,0.1634318,0.0262283,1.346806,0.1078458,0.4726279,1.687916,0.02431165,-0.03797792,1.266833,0.09841185,0.05095167,1.322,0.1096928,0.003221652,1.661419,0.1081547,-0.3224441,1.633275,-0.06818786,0.1924435,1.672722,0.02406178,-0.3165753,1.602097,-0.1647303,-0.002483017,1.56976,0.3740436,-0.01260603,1.566867,NA,NA,Unknown,Unknown,
0.171875,-1.141602,-0.03027344,-0.1679688,0.7597656,0.4248047,29,35,11,11,14,7,5,-1,-12,-5,-4,0,-6,-25,-7,-7,-38,-38,-38,43.1875,43.1875,43.1875,2.445035,4.43269,2.700784,6.854956,4.708275,2.543978,-0.001083186,0.03267381,1.264777,0.1288473,0.1014356,1.323864,0.1063363,0.4716041,1.691684,0.03914522,0.005586993,1.255923,0.1157926,0.1352264,1.309389,0.1095873,0.003551842,1.662307,0.1081513,-0.3225592,1.633435,-0.06676514,0.1984108,1.672616,0.02416526,-0.3167558,1.602502,-0.1348717,-0.009641511,1.50736,0.3421864,-0.008786037,1.496815,NA,NA,NotTracked,Unknown,
0.3481445,-1.029297,-0.1904297,-0.06347656,0.65625,0.3535156,5,1,2,1,-1,-2,0,-1,0,-4,-3,-4,-4,-2,-11,-16,-67.25,-67.25,-67.25,40.6875,40.6875,40.6875,2.379617,4.252984,2.768351,6.923253,4.572014,2.445576,0.0153894,0.07368221,1.261912,0.1455712,0.1707516,1.337708,0.1043838,0.467672,1.697174,0.06187658,0.04891579,1.251444,0.1004922,0.2026162,1.3325,0.1092199,0.003108064,1.66271,0.1084527,-0.3283212,1.632758,-0.06703265,0.2014748,1.672445,0.02375869,-0.3218895,1.602226,-0.1353313,-0.006138512,1.498352,0.3368069,0.02109001,1.477029,NA,NA,NotTracked,NotTracked,
0.2626953,-1.012207,0.03710938,0.007324219,0.6713867,0.3120117,14,-1,6,4,0,4,8,6,-2,-1,-1,3,6,11,3,-6,-150.5625,-150.5625,-150.5625,35.6875,35.6875,35.6875,2.040828,3.823343,2.958462,6.987187,4.472655,2.367799,0.02973914,0.1067082,1.259082,0.1743068,0.2158382,1.351551,0.1016168,0.4714543,1.700379,0.08087439,0.08028889,1.256636,0.1928239,0.2472629,1.37125,0.108706,0.002930499,1.662901,0.1084863,-0.3303187,1.632672,-0.06733999,0.2049967,1.672302,0.02334044,-0.3240523,1.602201,-0.1251897,0.01020622,1.469295,0.3331257,0.0604783,1.454112,NA,NA,Unknown,NotTracked,
0.2548828,-0.7998047,0.006835938,0.07226563,0.6108398,0.1918945,-28,-23,-1,-5,-9,-14,-8,9,5,-1,0,3,18,13,8,6,-99.1875,-99.1875,-99.1875,27.1875,27.1875,27.1875,1.843476,3.644301,3.059671,7.039499,4.411737,2.311432,0.03897031,0.132588,1.258999,0.1334008,0.2989539,1.33815,0.0995847,0.4730589,1.7013,0.07360115,0.09941307,1.250375,0.1583478,0.3128222,1.3216,0.1087563,0.002914722,1.663019,0.1085853,-0.3304013,1.632605,-0.06732666,0.2086183,1.672581,0.02309567,-0.3238543,1.600283,-0.1253326,0.01530422,1.471911,0.3329506,0.09234808,1.440503,NA,NA,Unknown,Unknown,
0.2495117,-0.6611328,-0.02783203,0.1293945,0.6474609,0.1904297,-20,-1,8,-7,-4,5,1,-14,-2,-1,-3,-4,-14,-12,-4,1,-69.0625,-69.0625,-69.0625,21.9375,21.9375,21.9375,1.774942,3.581915,3.101258,7.076755,4.373818,2.273374,0.04764519,0.1538127,1.257654,0.1563077,0.3240947,1.343625,0.09633325,0.4722985,1.702005,0.02137229,0.2268613,1.231583,0.1746442,0.3509721,1.336357,0.1088458,0.002886111,1.663102,0.1086829,-0.3305707,1.632286,-0.0681815,0.2113575,1.67276,0.02193214,-0.3235109,1.596782,-0.1259816,0.02594844,1.480107,0.3310532,0.1296653,1.425522,NA,NA,Unknown,Unknown,
0.1918945,-0.4116211,0.02685547,0.15625,0.7128906,0.1762695,-10,-31,-16,-6,5,3,-10,-7,-1,0,1,3,6,1,-2,2,-65.0625,-65.0625,-65.0625,14.875,14.875,14.875,1.672755,3.497401,3.15079,7.090839,4.361628,2.259795,0.05423974,0.1677117,1.259063,0.1625358,0.3585566,1.345266,0.0945311,0.4712258,1.702136,0.02754041,0.2372852,1.233917,0.2178412,0.3501357,1.353778,0.1090273,0.002720086,1.663008,0.1088731,-0.331393,1.631819,-0.06880905,0.2140922,1.673238,0.02144655,-0.3240561,1.595476,-0.1061657,0.059315,1.436087,0.333252,0.1450288,1.42162,NA,NA,Unknown,Unknown,
0.07373047,-0.359375,0.03369141,0.2353516,0.7353516,0.137207,-7,-4,-4,-4,-2,-5,-4,-6,-2,-1,-1,-2,-10,-2,-3,1,-71.375,-71.375,-71.375,-0.9375,-0.9375,-0.9375,1.636999,3.475382,3.152167,7.101399,4.344844,2.244639,0.06396423,0.1788037,1.255157,0.1632673,0.3865366,1.340966,0.09409291,0.4712703,1.701737,0.03313864,0.2456225,1.23375,0.170039,0.4133727,1.322474,0.1095967,0.003272963,1.662132,0.1092276,-0.3319383,1.630786,-0.06872479,0.2167001,1.672413,0.02106831,-0.3244297,1.592844,-0.106192,0.06007574,1.435559,0.3352292,0.158477,1.4196,NA,NA,Unknown,Unknown,
-0.04345703,-0.2529297,0.03320313,0.2495117,0.7280273,0.1948242,4,18,8,-3,-2,-4,-5,-4,-5,1,-1,6,8,2,1,-4,-40.625,-40.625,-40.625,1.3125,1.3125,1.3125,1.607666,3.457225,3.129135,7.107013,4.340059,2.239179,0.06774744,0.1855424,1.255032,0.1673503,0.4021223,1.344155,0.09416538,0.4720868,1.701317,0.03531167,0.2530016,1.234364,0.1528063,0.3992819,1.299879,0.1102897,0.004742343,1.661265,0.1092624,-0.3317565,1.630489,-0.06841868,0.2178637,1.671876,0.02063638,-0.3237834,1.59204,-0.1053005,0.06175638,1.433943,0.3378292,0.1665336,1.419249,NA,NA,Unknown,Unknown,
-0.109375,-0.1806641,0.04150391,0.2900391,0.8413086,0.1669922,-2,-6,0,5,11,1,2,7,6,0,1,0,-7,-11,1,2,-12.625,-12.625,-12.625,-7.25,-7.25,-7.25,1.626234,3.464869,3.087471,7.103639,4.34352,2.241408,0.07041258,0.1885088,1.253762,0.1670184,0.4106983,1.342455,0.09440374,0.4737692,1.700798,0.0359963,0.2534969,1.236833,0.1763761,0.4328781,1.314211,0.1110567,0.006559126,1.660309,0.1092167,-0.3314149,1.630061,-0.06792367,0.220461,1.673424,0.02014042,-0.3227572,1.590997,-0.1035627,0.06433571,1.431554,0.3449939,0.1699391,1.421233,NA,NA,Unknown,Unknown,
-0.1425781,-0.1240234,0.0390625,0.2177734,0.7729492,0.2050781,-20,-25,2,0,-1,1,-3,0,-3,-3,-1,1,22,7,7,9,21.1875,21.1875,21.1875,-22.25,-22.25,-22.25,1.682004,3.511606,3.044167,7.07907,4.361991,2.254177,0.07300539,0.1895189,1.251326,0.1655377,0.4063053,1.340829,0.09548627,0.4771801,1.699138,0.03589045,0.2572466,1.233333,0.1645299,0.4207953,1.299931,0.1126957,0.0102897,1.658126,0.1089406,-0.3309329,1.629307,-0.06487024,0.2273731,1.67318,0.01933452,-0.3214487,1.58949,-0.1032556,0.06463484,1.431213,0.3470582,0.1698477,1.42155,NA,NA,Unknown,Unknown,
-0.1362305,-0.1831055,0.07275391,0.2817383,0.8168945,0.2202148,13,11,0,1,5,8,1,-1,-4,-2,-4,-4,-9,-5,-1,-1,40.6875,40.6875,40.6875,-10.75,-10.75,-10.75,1.730124,3.550396,3.016783,7.056695,4.381083,2.269778,0.07284769,0.1874497,1.250542,0.1628492,0.3900218,1.334223,0.0951926,0.4767511,1.698991,0.03382422,0.2506196,1.230809,0.1520208,0.3709044,1.295455,0.1126717,0.01023221,1.657932,0.1088589,-0.3311663,1.628665,-0.0653537,0.2265512,1.673268,0.01908689,-0.3215503,1.588844,-0.1026573,0.06483901,1.431322,0.347349,0.1694397,1.421833,NA,NA,Unknown,Unknown,
-0.121582,-0.2587891,0.09130859,0.284668,0.8911133,0.246582,7,4,8,-2,-8,2,-3,-9,-7,-2,-3,-4,-3,-8,-6,-6,63,63,63,-18.5625,-18.5625,-18.5625,1.894946,3.729509,2.923729,7.034749,4.406296,2.286001,0.07354129,0.1828247,1.249843,0.1636865,0.3576139,1.329797,0.09422301,0.475092,1.698523,0.03293188,0.2453349,1.230014,0.1643833,0.3779477,1.291174,0.1125783,0.008352415,1.657405,0.1088837,-0.3320841,1.627875,-0.06690642,0.2250711,1.672881,0.01880373,-0.3225826,1.587504,-0.1018023,0.06518603,1.430553,0.348999,0.1593556,1.424095,NA,NA,Unknown,Unknown,
-0.09863281,-0.559082,0.1474609,0.340332,0.8964844,0.2524414,10,-7,1,-6,-5,-2,6,-2,7,-3,-2,13,0,7,1,8,91.9375,91.9375,91.9375,-2.625,-2.625,-2.625,2.049444,3.938154,2.834352,7.022109,4.437795,2.300951,0.1752498,0.2364175,1.317463,0.1706501,0.246866,1.318074,0.09251513,0.4741404,1.699916,0.1442051,0.2684486,1.287562,0.2055298,0.2398222,1.281125,0.111094,0.005997745,1.656636,0.1087102,-0.3334196,1.62637,-0.06857821,0.2220542,1.672309,0.01824704,-0.3240169,1.585569,-0.09979416,0.06246376,1.428689,0.3396467,0.09510083,1.446873,NA,NA,NotTracked,NotTracked,
0.1337891,-0.9018555,0.009765625,0.3286133,0.8798828,0.2768555,0,-7,5,-2,-2,17,-1,4,-9,-3,-3,-2,-6,-6,2,-4,129.1875,129.1875,129.1875,-2.3125,-2.3125,-2.3125,2.238924,4.248224,2.74051,7.016753,4.466496,2.312778,0.1460788,0.1728084,1.279397,0.157554,0.1813799,1.293983,0.09486372,0.4696895,1.702043,0.1441019,0.2084196,1.260222,0.1515209,0.1650532,1.246833,0.1099809,0.004884241,1.656585,0.1091394,-0.3382154,1.623383,-0.06974581,0.2206712,1.672139,0.01895461,-0.3293189,1.584784,-0.09881385,0.05838437,1.427129,0.3472755,0.05083497,1.458227,NA,NA,NotTracked,NotTracked,
0.4326172,-1.333008,0.08398438,0.4609375,0.90625,0.3393555,-28,-43,0,3,2,-3,0,3,-3,-9,-20,-21,-3,2,2,1,109.75,109.75,109.75,-0.6875,-0.6875,-0.6875,2.404619,4.619113,2.640377,7.013896,4.491178,2.322078,0.1293498,0.1259795,1.281381,0.06599969,0.1465068,1.253836,0.09626338,0.4649534,1.703619,0.1835288,0.1027768,1.294333,0.003785469,0.0928636,1.258857,0.110098,0.003543175,1.657489,0.1096488,-0.3383448,1.622981,-0.07040241,0.2195801,1.672024,0.02049248,-0.3299185,1.583761,-0.09820729,0.05524816,1.42535,0.3452374,0.00132513,1.487022,NA,NA,NotTracked,NotTracked,
0.3930664,-1.587891,-0.07275391,0.4506836,0.9257813,0.3496094,11,22,6,13,5,6,-10,-16,-4,-5,-5,-6,-18,1,3,1,98.875,98.875,98.875,-0.6875,-0.6875,-0.6875,2.467196,4.820896,2.595491,7.01046,4.505688,2.326062,0.1032824,0.1426063,1.25037,0.1153147,0.0467323,1.303217,0.09684173,0.4633909,1.704183,0.07900634,0.1423854,1.214435,0.03413692,0.0722395,1.27,0.1101072,0.002828212,1.658113,0.1099539,-0.3379649,1.622744,-0.07052588,0.2187399,1.671945,0.02177256,-0.3295199,1.582851,-0.0996944,0.04804777,1.427631,0.3566488,-0.001844203,1.548561,NA,NA,NotTracked,NotTracked,
0.03125,-1.92334,0.05908203,0.4257813,0.925293,0.3911133,-14,-20,-15,-7,-1,-9,-1,-5,-8,-3,0,0,-4,0,5,-1,57.5625,57.5625,57.5625,11.8125,11.8125,11.8125,2.540824,5.159496,2.506925,7.012557,4.53376,2.333231,0.1116619,0.1447482,1.247588,0.1674654,-0.05164455,1.342503,0.09707369,0.462659,1.704192,0.08866464,0.1477347,1.213667,0.126246,-0.07208978,1.382222,0.110145,0.002551022,1.658346,0.1103836,-0.3370048,1.622223,-0.07061742,0.2179022,1.671815,0.02303066,-0.3280624,1.581177,-0.1213873,0.01482128,1.464411,0.3534718,-0.005422103,1.571862,NA,NA,NotTracked,Unknown,
-0.2084961,-2.101074,0.0234375,0.3574219,0.9545898,0.3496094,-33,-2,4,9,3,8,0,-2,-7,-1,1,-13,0,-14,-11,-8,70.0625,70.0625,70.0625,14.6875,14.6875,14.6875,2.595777,5.420237,2.438966,7.025344,4.563427,2.336553,0.04647477,0.1155778,1.255944,0.1834452,-0.1059736,1.365901,0.09742278,0.4621179,1.703914,0.01575278,0.1804632,1.2305,0.1230114,-0.1176738,1.427,0.1101778,0.002240618,1.658744,0.1104476,-0.3364454,1.622168,-0.07061626,0.2168213,1.671388,0.02361527,-0.3271824,1.580535,-0.1211259,0.01442329,1.463969,0.3531922,-0.02858097,1.61471,NA,NA,Unknown,Unknown,
-0.2314453,-1.771484,-0.02734375,0.3583984,0.9716797,0.3613281,-11,-8,-3,7,-1,1,-2,12,-7,-2,-1,0,10,8,-3,-7,71.6875,71.6875,71.6875,5.5,5.5,5.5,2.655235,5.577903,2.389244,7.025682,4.57609,2.337412,0.04608013,0.1079064,1.256075,0.1879023,-0.1396386,1.377115,0.0977184,0.4618797,1.703768,0.01623634,0.175698,1.231196,0.1520397,-0.1669007,1.4652,0.1101745,0.002240082,1.658945,0.110613,-0.3345565,1.622019,-0.0705256,0.2158722,1.670976,0.02432824,-0.3253555,1.579777,-0.1205121,0.01443195,1.462469,0.3937921,-0.03580169,1.582769,NA,NA,Unknown,Unknown,
-0.3544922,-1.552734,0.03027344,0.2788086,0.9521484,0.3339844,-20,-9,3,-13,6,4,-1,7,1,-3,-2,-2,3,4,-1,-2,67.9375,67.9375,67.9375,-5.3125,-5.3125,-5.3125,2.704006,5.645809,2.355715,7.01749,4.605165,2.340693,0.04526442,0.100927,1.254254,0.1931607,-0.1579944,1.403096,0.09849997,0.4615565,1.702729,0.01640694,0.1665868,1.2291,0.1385023,-0.1387793,1.478733,0.1102168,0.002270696,1.659092,0.110813,-0.3329857,1.621967,-0.07033072,0.2150325,1.670572,0.0247457,-0.3241747,1.579645,-0.1205329,0.01405006,1.461468,0.3456796,-0.03320897,1.634922,NA,NA,Unknown,Unknown,
-0.1977539,-1.27002,0.01171875,0.2739258,0.9648438,0.3105469,11,-1,-4,7,4,0,6,-1,3,-3,-8,-1,-10,-7,-4,-1,48.0625,48.0625,48.0625,0.8125,0.8125,0.8125,2.744663,5.652017,2.338578,7.015773,4.613458,2.338759,0.04496288,0.09201815,1.253715,0.1894173,-0.1686188,1.427204,0.1006305,0.4611772,1.700231,0.01904329,0.1568744,1.2266,0.1348648,-0.1411972,1.479738,0.1102196,0.00234702,1.659324,0.1108683,-0.3309314,1.622102,-0.06965712,0.2137351,1.669586,0.02507986,-0.3224887,1.579858,-0.1326475,0.04395217,1.506405,0.3442059,-0.03385039,1.640243,NA,NA,Unknown,Unknown,
-0.2089844,-1.125977,0.03515625,0.2431641,0.9555664,0.3295898,23,19,1,-2,0,3,1,26,4,9,9,3,7,13,8,3,18.5,18.5,18.5,-1.8125,-1.8125,-1.8125,2.745633,5.643455,2.328037,7.015065,4.621662,2.332811,0.04664018,0.09001501,1.253982,0.2009225,-0.1700619,1.436213,0.1014799,0.4612287,1.69921,0.02164476,0.1588266,1.225333,0.174025,-0.2268516,1.485909,0.1102647,0.002409148,1.65951,0.1109974,-0.3299828,1.622514,-0.06940785,0.2133472,1.669203,0.02534718,-0.3216321,1.580186,-0.1328298,0.04354799,1.506219,0.3434297,-0.03409374,1.643291,NA,NA,Unknown,Unknown,
-0.2739258,-1.041016,0.07275391,0.1923828,0.8901367,0.2998047,-47,-27,3,2,3,-8,-5,-31,1,0,3,5,12,5,2,1,-4.5625,-4.5625,-4.5625,-8.875,-8.875,-8.875,2.730928,5.624513,2.310499,7.0073,4.631978,2.329556,0.04725567,0.08884849,1.253604,0.1997577,-0.1676717,1.438228,0.1025773,0.461308,1.69787,0.0230977,0.1553859,1.224556,0.1750993,-0.2269937,1.487963,0.1102109,0.00243809,1.659725,0.1108392,-0.3295516,1.622877,-0.06912313,0.212929,1.668718,0.02533343,-0.321189,1.580517,-0.132975,0.04316872,1.505872,0.3445403,-0.03904378,1.644854,NA,NA,Unknown,Unknown,
-0.2954102,-0.9785156,0.1147461,0.1538086,0.8691406,0.3051758,-1,-5,-4,-1,-2,-1,0,5,-3,1,-2,0,-1,2,-1,-2,2.4375,2.4375,2.4375,-4.6875,-4.6875,-4.6875,2.72219,5.605376,2.292338,7.003911,4.637386,2.328977,0.04861329,0.08702517,1.25311,0.1986846,-0.168446,1.426208,0.1034134,0.4614292,1.696827,0.02301424,0.1526578,1.2247,0.1610889,-0.2013949,1.485428,0.1101746,0.002492677,1.659926,0.1106782,-0.3289491,1.62341,-0.06885617,0.2126821,1.66835,0.02530756,-0.3204917,1.581192,-0.1329107,0.04291816,1.505593,0.3455222,-0.04124562,1.645297,NA,NA,Unknown,Unknown,
-0.3442383,-0.8256836,0.1445313,0.07275391,0.8334961,0.2709961,-25,-18,9,4,3,11,4,1,1,2,10,-1,1,2,-1,-1,0.5625,0.5625,0.5625,-8.3125,-8.3125,-8.3125,2.718079,5.601955,2.269646,6.997026,4.653565,2.328617,0.05143875,0.08629657,1.253557,0.2081991,-0.165907,1.427702,0.1042705,0.4615549,1.69579,0.02341053,0.1532769,1.233091,0.1682037,-0.2121149,1.486507,0.1101877,0.002683218,1.660337,0.1107169,-0.3277813,1.624717,-0.06861635,0.2123648,1.667955,0.0255669,-0.319292,1.582908,-0.129304,0.002650152,1.479047,0.3458255,-0.03946872,1.646238,NA,NA,Unknown,Unknown ,
-0.3837891,-0.7963867,0.1821289,-0.01025391,0.7524414,0.2612305,3,0,-10,-3,9,11,-6,-13,0,-1,1,-3,4,3,0,1,-13.3125,-13.3125,-13.3125,-7.4375,-7.4375,-7.4375,2.69877,5.612283,2.238101,6.986468,4.68205,2.332922,0.05074472,0.08262534,1.254542,0.2040613,-0.1659583,1.432916,0.1048494,0.4617928,1.695145,0.02410113,0.1521655,1.229957,0.1419794,-0.1924871,1.4768,0.1101426,0.00276102,1.66073,0.1106781,-0.3272915,1.62583,-0.06757002,0.2092217,1.665473,0.02567523,-0.3188492,1.584221,-0.1352511,0.01956179,1.514751,0.3450594,-0.03878118,1.647253,NA,NA,Unknown,Unknown,
-0.4111328,-0.7524414,0.1621094,-0.06884766,0.7050781,0.2739258,7,7,2,4,-3,-6,-2,-1,-4,-5,-8,-6,-4,-2,-1,-2,-14.75,-14.75,-14.75,-3.3125,-3.3125,-3.3125,2.675581,5.64313,2.200447,6.978113,4.72407,2.344858,0.05025962,0.0769801,1.254165,0.207037,-0.1717717,1.429853,0.1051985,0.4621052,1.694392,0.0240331,0.1414019,1.2255,0.1494498,-0.1377247,1.493596,0.1101121,0.003141807,1.661216,0.1104869,-0.3258949,1.627313,-0.06744019,0.2092391,1.665399,0.02571577,-0.3173902,1.585823,-0.1343011,0.005892011,1.498573,0.3448948,-0.03797678,1.647804,NA,NA,Unknown,Unknown,
-0.4155273,-0.7124023,0.1567383,-0.05029297,0.675293,0.2910156,2,11,1,-2,-3,-2,-3,-3,0,-1,-1,-2,0,-3,-1,-1,-23.125,-23.125,-23.125,-6.25,-6.25,-6.25,2.65766,5.665619,2.17976,6.966989,4.789798,2.359766,0.05077823,0.06849334,1.258015,0.2176445,-0.1877508,1.399905,0.1054767,0.4626571,1.694036,0.02473419,0.1377451,1.232222,0.1967045,-0.2243532,1.4395,0.1100235,0.003712429,1.66188,0.1103026,-0.3242829,1.629106,-0.06734096,0.209244,1.665385,0.02584195,-0.3154769,1.588791,-0.1347901,0.01199452,1.511675,0.3427916,-0.03781644,1.649404,NA,NA,Unknown,Unknown,
-0.4321289,-0.6582031,0.1079102,-0.0234375,0.6494141,0.3168945,12,6,-3,-3,-1,-1,3,2,0,-1,-3,4,32,8,4,0,-54.1875,-54.1875,-54.1875,-9.8125,-9.8125,-9.8125,2.593241,5.726523,2.133287,6.957326,4.834726,2.368936,0.0510447,0.05328835,1.260226,0.2179021,-0.1948268,1.421728,0.1056468,0.4635082,1.693933,0.02262711,0.1176475,1.2385,0.1591722,-0.2239828,1.4226,0.1097168,0.004323343,1.662461,0.1097194,-0.3230159,1.630463,-0.0671934,0.2092045,1.665341,0.02551568,-0.313987,1.590377,-0.1357647,0.01636229,1.528898,0.3431315,-0.03959196,1.649825,NA,NA,Unknown,Unknown,
-0.4667969,-0.6323242,0.07958984,-0.03320313,0.7753906,0.3554688,0,2,-2,1,-1,-2,-1,8,-2,-1,1,-2,-11,-4,-2,-1,-70.125,-70.125,-70.125,-14.0625,-14.0625,-14.0625,2.545249,5.768583,2.108471,6.937009,4.95754,2.39115,0.04688671,0.03050067,1.264111,0.2298881,-0.218888,1.400618,0.1057922,0.464444,1.693635,0.02171741,0.09447571,1.241143,0.1912785,-0.20293,1.379,0.1094928,0.005157635,1.663084,0.1093554,-0.3210312,1.632073,-0.06690124,0.2090597,1.665282,0.02560344,-0.3119283,1.592366,-0.1362824,0.01489987,1.538236,0.338048,-0.04009454,1.650066,NA,NA,Unknown,Unknown,
-0.5576172,-0.6674805,0.01367188,-0.01953125,0.8530273,0.3012695,3,4,-1,0,0,0,0,-6,-2,0,1,-1,-8,-4,-1,-1,-80.25,-80.25,-80.25,0.4375,0.4375,0.4375,2.434026,5.877625,2.058281,6.937351,5.032254,2.405952,0.04210266,0.000714568,1.269683,0.2352111,-0.2427245,1.40861,0.1059508,0.4651737,1.693643,0.02046445,0.06333046,1.2435,0.1875539,-0.2567357,1.494714,0.1093432,0.005382058,1.663255,0.1091568,-0.3207953,1.632464,-0.06448895,0.202852,1.66307,0.02528215,-0.311576,1.593141,-0.1372204,0.002789717,1.549032,0.3339919,-0.0424485,1.6525,NA,NA,Unknown,Unknown,
-0.6811523,-0.7954102,-0.08007813,-0.2236328,0.8286133,0.4208984,-5,1,-1,-3,0,1,-2,-8,-3,-1,-4,-2,-2,-1,-2,-1,-68.5625,-68.5625,-68.5625,30.8125,30.8125,30.8125,2.329086,6.017687,2.012309,6.962437,5.310955,2.460677,0.02898589,-0.0787265,1.286739,0.2430556,-0.2957602,1.456002,0.1063011,0.4673563,1.694072,0.01451208,-0.02305511,1.267583,0.2044285,-0.3249574,1.507043,0.1091603,0.005697416,1.663669,0.1089568,-0.3203418,1.633139,-0.06446175,0.2031833,1.663246,0.02476307,-0.3109412,1.59429,-0.1339443,-0.01386505,1.590909,0.3252091,-0.04936905,1.653362,NA,NA,Unknown,Unknown,
-0.7709961,-0.8198242,-0.15625,-0.2983398,0.8486328,0.3930664,-10,3,2,-1,1,0,0,-4,-2,-5,6,1,-3,0,-1,-1,-46.8125,-46.8125,-46.8125,53.625,53.625,53.625,2.234013,6.180803,1.95541,6.997147,5.41105,2.487242,0.01424304,-0.1258739,1.300853,0.2685033,-0.3196429,1.439704,0.1064168,0.4685905,1.694229,0.009274659,-0.09794399,1.260929,0.2303433,-0.31784,1.419472,0.1087239,0.005425699,1.663968,0.1086425,-0.3207979,1.63358,-0.06475926,0.2030611,1.663401,0.0243114,-0.3113666,1.594854,-0.1695025,-0.03926293,1.580903,0.3229915,-0.05906645,1.651146,NA,NA,Unknown,Unknown,
-0.8178711,-0.6860352,-0.2304688,-0.3754883,1.01123,0.3442383,-1,-10,-1,-1,-3,-7,-11,-5,-5,-6,-14,-5,-2,-3,-2,-2,-40.6875,-40.6875,-40.6875,23.6875,23.6875,23.6875,2.118816,6.3427,1.85719,7.068836,5.614291,2.579854,0.003684469,-0.1807105,1.317529,0.276874,-0.3510785,1.451851,0.1066345,0.469621,1.694493,0.0006893884,-0.1562912,1.27412,0.2406141,-0.3453949,1.437312,0.1086582,0.005217365,1.664085,0.1092966,-0.3214419,1.633947,-0.06574187,0.2027818,1.663793,0.02502117,-0.3123887,1.595427,-0.1663037,-0.04078295,1.58053,0.3216715,-0.06610764,1.649738,NA,NA,Unknown,Unknown,
-1.013184,-0.6953125,-0.2260742,-0.4707031,1.039551,0.1352539,5,14,-1,0,2,4,5,-1,0,0,-13,-3,-1,-1,-2,-2,-41.75,-41.75,-41.75,-43.0625,-43.0625,-43.0625,1.95869,6.498585,1.712866,7.087242,5.85962,2.689016,-0.01415901,-0.2309992,1.340008,0.287311,-0.3749123,1.47017,0.106922,0.470646,1.694644,-0.009634073,-0.1880804,1.311534,0.2519465,-0.3677508,1.455857,0.1089124,0.004990837,1.664075,0.1113816,-0.3223384,1.634113,-0.06672613,0.2026729,1.664193,0.02691963,-0.3140007,1.595624,-0.1534946,-0.04711045,1.588943,0.3204058,-0.07118512,1.648674,NA,NA,Unknown,Unknown,
-1.003418,-0.6469727,-0.2719727,-0.8398438,0.9492188,0.1259766,-5,-1,-1,-2,-2,-1,-6,-4,-1,-2,-2,1,0,-1,-1,-3,-9.8125,-9.8125,-9.8125,-76.3125,-76.3125,-76.3125,1.811787,6.634497,1.565416,7.079614,6.269889,2.889402,-0.03844435,-0.2653107,1.37946,0.2967573,-0.3894398,1.489405,0.1071052,0.4715754,1.694698,-0.02511941,-0.2407387,1.331227,0.2585011,-0.3930906,1.484463,0.1095586,0.004448589,1.663928,0.114458,-0.3240201,1.633987,-0.07270561,0.1950406,1.664189,0.02983954,-0.3170705,1.595711,-0.1128232,-0.03591828,1.636134,0.3186148,-0.07590875,1.647658,NA,NA,Unknown,Unknown,
-1.01416,-0.4423828,-0.3095703,-1.016113,0.9873047,0.1235352,-26,-9,1,-1,-2,-1,0,1,-1,-3,-1,-2,-1,-2,-1,0,34.1875,34.1875,34.1875,-66.875,-66.875,-66.875,1.691323,6.761685,1.395213,7.095831,6.400879,2.960184,-0.07071327,-0.3287922,1.44248,0.3032502,-0.406212,1.528626,0.1074644,0.4730266,1.694613,-0.04897293,-0.3158027,1.398581,0.2462549,-0.3878594,1.51888,0.1102654,0.003804105,1.663415,0.1171811,-0.3256787,1.633754,-0.07589534,0.1918132,1.664804,0.03216973,-0.3195824,1.595684,-0.1089129,-0.0530691,1.639063,0.3165464,-0.0816276,1.647177,NA,NA,Unknown,Unknown,
-0.8833008,-0.4638672,-0.06591797,-0.9370117,0.6962891,0.1572266,-27,-11,-7,-1,0,-1,0,0,-1,1,4,1,0,-1,-2,1,15.8125,15.8125,15.8125,-43.9375,-43.9375,-43.9375,1.53921,6.857071,1.193727,7.162966,6.615238,3.121803,-0.080268,-0.3594508,1.476552,0.3086774,-0.4111613,1.538601,0.107549,0.4735457,1.694458,-0.06097276,-0.3507164,1.427404,0.2517832,-0.3933918,1.519857,0.1102056,0.003514447,1.663149,0.1171599,-0.3261476,1.63372,-0.07771119,0.1895524,1.664889,0.0320429,-0.3203909,1.596068,-0.1085582,-0.06082877,1.639892,0.3161134,-0.08389867,1.647021,NA,NA,Unknown,NotTracked,
-1.1875,-0.5981445,0.2333984,-1.069336,0.5546875,0.08447266,-16,-11,-1,0,0,0,-1,-2,-2,-1,-6,-2,-1,-2,-1,0,9.625,9.625,9.625,38.6875,38.6875,38.6875,1.421772,6.916544,1.040037,7.403433,6.772762,3.367221,-0.08195968,-0.3925961,1.508683,0.3142942,-0.4163595,1.548069,0.1074741,0.474047,1.694158,-0.03536508,-0.3823357,1.5102,0.2563955,-0.3946846,1.522306,0.1098774,0.003191477,1.662758,0.116447,-0.3267371,1.633712,-0.07883674,0.1880055,1.664942,0.0311083,-0.3210019,1.596498,-0.1094226,-0.06680185,1.642079,0.3158997,-0.08580431,1.64691,NA,NA,Unknown,NotTracked,
-0.4545898,-0.2114258,-0.06005859,-1.029785,0.5947266,0.07177734,-1,-5,0,-1,-1,0,-1,-1,-2,-1,0,-1,-2,-2,0,1,20.875,20.875,20.875,53.25,53.25,53.25,1.343339,6.963606,0.9235333,7.710498,6.885334,3.63938,-0.08591352,-0.4039488,1.531943,0.3207359,-0.4194267,1.556309,0.1073637,0.4744787,1.693851,-0.03791853,-0.4070837,1.506914,0.2630348,-0.4066188,1.524902,0.1093049,0.002854316,1.662232,0.1152451,-0.3275405,1.633732,-0.07962643,0.187243,1.664974,0.02976927,-0.3217737,1.596963,-0.1108367,-0.07072406,1.644863,0.3161779,-0.08794317,1.647215,NA,NA,Unknown,NotTracked,
-0.9155273,-0.3041992,-0.1699219,-0.980957,0.5581055,0.02001953,0,-2,-2,0,1,-1,1,-1,-1,0,-1,-2,-1,-1,0,1,-1.25,-1.25,-1.25,20.375,20.375,20.375,1.265581,6.980176,0.8352625,7.970431,6.951071,3.886852,-0.09580775,-0.4104811,1.554357,0.3254071,-0.4213224,1.564598,0.1072405,0.4748142,1.693656,-0.0466919,-0.3981429,1.512651,0.2653127,-0.4021069,1.529892,0.1087458,0.002517346,1.661923,0.1139646,-0.3282338,1.633901,-0.08048958,0.1862752,1.665004,0.02836262,-0.322305,1.597507,-0.1123204,-0.07407346,1.648321,0.3166408,-0.08936407,1.647958,NA,NA,NotTracked,NotTracked,
-0.9287109,-0.3251953,-0.1987305,-0.9682617,0.4790039,-0.03369141,1,-1,-4,-1,-1,-1,-2,-1,-1,0,-1,-1,-2,-2,-1,-2,-13.9375,-13.9375,-13.9375,-7.5625,-7.5625,-7.5625,1.234487,6.982067,0.809359,8.185504,6.988165,4.121767,-0.1059273,-0.4098825,1.577228,0.3301069,-0.4229345,1.569037,0.1069963,0.4751156,1.693239,-0.05805028,-0.4010306,1.521091,0.2698996,-0.3976633,1.535893,0.1078922,0.002125376,1.661592,0.1122566,-0.3288592,1.634395,-0.08112267,0.1857549,1.665023,0.02664809,-0.3227621,1.598467,-0.1137363,-0.07599643,1.651536,0.3170256,-0.09056299,1.648509,NA,NA,NotTracked,NotTracked,
-0.9394531,-0.3833008,-0.2089844,-0.9672852,0.4238281,-0.05615234,-2,0,-3,-1,-2,-1,-2,0,-2,-2,-2,-1,-3,-1,-2,0,-11.9375,-11.9375,-11.9375,-24.125,-24.125,-24.125,1.202785,6.979091,0.7900455,8.322757,7.006646,4.293681,-0.1155691,-0.4123981,1.598146,0.3323506,-0.4232143,1.572351,0.1065527,0.4755269,1.692576,-0.06593711,-0.4011684,1.534759,0.2712182,-0.3998111,1.538425,0.1070962,0.001717203,1.661544,0.1105432,-0.3296114,1.635301,-0.08185257,0.1851233,1.665042,0.02503921,-0.3233553,1.599661,-0.1157866,-0.07853004,1.6558,0.3176835,-0.09186918,1.64918,NA,NA,NotTracked,NotTracked,
-0.9614258,-0.3637695,-0.1943359,-0.9599609,0.4008789,-0.05859375,-1,-1,1,0,-2,-1,-2,-1,-2,-2,0,-1,-2,-1,0,-2,13,13,13,-32.875,-32.875,-32.875,1.22253,6.971212,0.79916,8.351696,7.009987,4.345444,-0.1216431,-0.4151959,1.612218,0.3350259,-0.4243587,1.571592,0.1062015,0.4757524,1.691916,-0.0715196,-0.401208,1.551905,0.2737049,-0.4014983,1.54025,0.1062662,0.001353862,1.661404,0.1085651,-0.3303042,1.636153,-0.08259246,0.1846702,1.66493,0.02322032,-0.3238006,1.600619,-0.1174645,-0.0809947,1.658949,0.3180069,-0.09241584,1.649426,NA,NA,NotTracked,NotTracked,
-0.9536133,-0.3486328,-0.2177734,-0.9785156,0.3452148,-0.05957031,-2,-1,-1,-1,-1,0,0,0,-1,-1,0,0,-1,0,-1,0,20.875,20.875,20.875,-38.6875,-38.6875,-38.6875,1.264439,6.960162,0.8170092,8.354839,7.010725,4.397317,-0.1250319,-0.417376,1.623546,0.3363059,-0.4240157,1.571669,0.1058891,0.4760588,1.691519,-0.07595324,-0.4145511,1.571,0.2744953,-0.4009024,1.541886,0.1054596,0.001072738,1.661467,0.1072925,-0.330782,1.636863,-0.08304811,0.1843549,1.664852,0.02195239,-0.3241961,1.601529,-0.1192009,-0.08256237,1.66219,0.3183735,-0.09300166,1.649779,NA,NA,NotTracked,NotTracked,
-0.9541016,-0.3300781,-0.2231445,-0.9790039,0.3120117,-0.03613281,-3,-1,-2,0,-2,-1,0,-1,-1,-1,0,2,-2,-2,-1,-1,21.1875,21.1875,21.1875,-22.5,-22.5,-22.5,1.291141,6.952888,0.8319528,8.301061,7.009841,4.375714,-0.1263125,-0.4188505,1.625491,0.3357338,-0.4233446,1.566997,0.1053839,0.4764252,1.690479,-0.07638012,-0.4128474,1.571,0.2742385,-0.3984873,1.541908,0.1050727,0.0009590506,1.661371,0.1067431,-0.3309188,1.63701,-0.08324057,0.1841684,1.664727,0.02139306,-0.3243006,1.601768,-0.1202063,-0.08418427,1.664766,0.318593,-0.0933826,1.64983,NA,NA,NotTracked,NotTracked,
-0.9443359,-0.3022461,-0.2226563,-0.9575195,0.3486328,-0.03808594,0,-2,-1,-2,0,-1,0,-1,-2,-1,-1,-1,-2,0,-1,0,15.25,15.25,15.25,3.125,3.125,3.125,1.353311,6.936821,0.8766146,8.208133,7.002511,4.284259,-0.1286542,-0.4185073,1.62521,0.3317989,-0.4220251,1.558407,0.1047149,0.4766736,1.689361,-0.07609905,-0.4071443,1.57181,0.2731892,-0.3978577,1.542435,0.1042723,0.0006495718,1.661349,0.1057174,-0.3312756,1.637511,-0.08364538,0.1838766,1.664717,0.02035955,-0.3245698,1.602431,-0.1223123,-0.08478047,1.669625,0.3186514,-0.09349802,1.649754,NA,NA,NotTracked,NotTracked,
-0.953125,-0.2915039,-0.215332,-0.9560547,0.3823242,-0.0390625,-1,0,-2,0,-1,-1,0,1,0,0,-1,-2,-2,-1,-1,-3,5.5,5.5,5.5,7.75,7.75,7.75,1.422125,6.917627,0.9401005,8.151728,6.994585,4.22161,-0.1279734,-0.4174583,1.620067,0.3279223,-0.419791,1.55147,0.1044047,0.476728,1.688785,-0.07617048,-0.4102448,1.570291,0.2686616,-0.386811,1.53853,0.1040296,0.0005588097,1.661405,0.1054236,-0.331369,1.637704,-0.0839096,0.1836292,1.66484,0.02002837,-0.3246443,1.602804,-0.1230503,-0.08428644,1.671304,0.3186109,-0.09362081,1.649608,NA,NA,NotTracked,NotTracked,
-0.9443359,-0.3095703,-0.215332,-0.9433594,0.4160156,-0.03417969,1,1,0,-2,1,1,0,1,-1,-3,-1,0,-1,-1,-1,-1,-1.8125,-1.8125,-1.8125,-3.375,-3.375,-3.375,1.493788,6.895411,1.016942,8.027254,6.97131,4.092871,-0.1268127,-0.415951,1.613909,0.3232905,-0.4186777,1.544101,0.104184,0.4767405,1.688485,-0.0758683,-0.427326,1.5696,0.2691056,-0.3964651,1.53693,0.1037281,0.0004341112,1.661474,0.105099,-0.3315294,1.637919,-0.08399338,0.1834516,1.66486,0.01970128,-0.3247914,1.60306,-0.123294,-0.08414903,1.671862,0.3183389,-0.09373272,1.648815,NA,NA,NotTracked,NotTracked,
-0.9458008,-0.3110352,-0.2177734,-0.9414063,0.3842773,-0.046875,0,-2,-3,2,-1,-1,-1,0,0,-1,-1,-2,-1,-1,-1,0,-3.625,-3.625,-3.625,-11.0625,-11.0625,-11.0625,1.52855,6.883563,1.056605,7.906784,6.945779,3.978339,-0.1251365,-0.411775,1.607491,0.3187442,-0.4169486,1.53687,0.1039953,0.4766824,1.688285,-0.07546756,-0.3899606,1.568454,0.2642284,-0.3832656,1.535697,0.1035583,0.0003396586,1.661573,0.1048259,-0.3316623,1.638053,-0.08420333,0.1831389,1.664972,0.0194259,-0.3248996,1.603223,-0.1234819,-0.08413967,1.672292,0.3178194,-0.0939059,1.647898,NA,NA,NotTracked,NotTracked,
-0.9448242,-0.3056641,-0.2133789,-0.9482422,0.3652344,-0.04931641,1,-1,-2,-2,-1,-1,-1,-3,-1,1,-1,-2,-1,-1,-1,-1,-4.6875,-4.6875,-4.6875,-10.9375,-10.9375,-10.9375,1.595991,6.85999,1.135455,7.80151,6.917834,3.880531,-0.1230696,-0.4111178,1.598325,0.3145758,-0.4151125,1.530358,0.1038781,0.4766325,1.688076,-0.07489586,-0.3917034,1.56587,0.2627924,-0.4042168,1.529718,0.103104,0.0002266156,1.661831,0.1042053,-0.3316281,1.638382,-0.08196856,0.1885644,1.666185,0.01894891,-0.3247452,1.603521,-0.1236914,-0.08452643,1.672738,0.3172459,-0.0938582,1.646711,NA,NA,NotTracked,NotTracked,
-0.9506836,-0.3139648,-0.2119141,-0.9526367,0.3427734,-0.06298828,5,0,1,-2,-2,-1,-1,-1,-2,-1,-1,0,-2,1,-1,0,-6.0625,-6.0625,-6.0625,-6.8125,-6.8125,-6.8125,1.654914,6.836964,1.20724,7.711857,6.89118,3.793083,-0.1194364,-0.4116427,1.586663,0.3095452,-0.4129794,1.523375,0.1036033,0.4764533,1.687707,-0.07150085,-0.4166382,1.545667,0.2574984,-0.3772937,1.530667,0.1027575,0.0001591297,1.66196,0.103872,-0.3316175,1.63846,-0.08103529,0.1910802,1.666958,0.01868883,-0.3246615,1.60359,-0.1237799,-0.08456341,1.672676,0.3157966,-0.09338237,1.644675,NA,NA,NotTracked,NotTracked,
-0.9467773,-0.315918,-0.2182617,-0.956543,0.3330078,-0.06152344,-2,-1,-2,-1,-1,0,-2,-1,-1,1,-1,-2,-1,-3,-2,-1,-5.375,-5.375,-5.375,1,1,1,1.704011,6.816125,1.269302,7.638628,6.864831,3.71443,-0.1164955,-0.4090863,1.577951,0.3058936,-0.4103127,1.518218,0.1034614,0.4764396,1.687684,-0.06868655,-0.4060172,1.536885,0.2546997,-0.3698601,1.532267,0.1025763,1.075897E-05,1.662145,0.1035638,-0.3317975,1.638631,-0.08281346,0.1879922,1.667781,0.01841594,-0.3248194,1.603784,-0.1238119,-0.08437818,1.672289,0.3146796,-0.09305353,1.643368,NA,NA,NotTracked,NotTracked,
-0.9511719,-0.3183594,-0.2172852,-0.9624023,0.3466797,-0.06835938,1,0,-3,-1,0,-2,-1,0,-3,-2,-2,-1,-1,-2,-3,0,-4.4375,-4.4375,-4.4375,4,4,4,1.725359,6.807302,1.296368,7.608627,6.851297,3.678805,-0.1128495,-0.4047506,1.569915,0.3020039,-0.4070235,1.514621,0.1033443,0.4763946,1.687711,-0.06540125,-0.3834913,1.535216,0.2534032,-0.3856747,1.529271,0.1023773,-0.0001838971,1.662429,0.1032667,-0.331998,1.638887,-0.08408867,0.1863766,1.668445,0.01812888,-0.3249992,1.604126,-0.1237183,-0.08426308,1.671972,0.313697,-0.09249046,1.641898,NA,NA,NotTracked,NotTracked,
-0.9467773,-0.3212891,-0.2192383,-0.9472656,0.3569336,-0.0703125,0,-2,0,-1,1,-1,-2,0,-1,0,1,-1,-1,-2,-1,0,-4.25,-4.25,-4.25,2,2,2,1.744057,6.799505,1.32039,7.556441,6.825001,3.615976,-0.1085929,-0.4040205,1.5593,0.2985777,-0.4049512,1.509442,0.1031321,0.4762942,1.687682,-0.06090954,-0.3973448,1.526846,0.2504964,-0.3635402,1.531692,0.1021584,-0.0003340555,1.66267,0.1028699,-0.3321148,1.639019,-0.08494449,0.185305,1.669052,0.01775188,-0.3250934,1.60432,-0.1230738,-0.08398689,1.67044,0.3124057,-0.09209291,1.640738,NA,NA,NotTracked,NotTracked,
-0.9467773,-0.3305664,-0.215332,-0.9174805,0.3486328,-0.07470703,-3,-4,0,-1,0,-2,-2,-2,-2,0,-3,-1,-1,-1,-1,0,-2.4375,-2.4375,-2.4375,-2.5,-2.5,-2.5,1.783036,6.783932,1.37211,7.510668,6.801132,3.56532,-0.1055009,-0.4011744,1.552186,0.2961078,-0.4032241,1.506627,0.1028439,0.4762515,1.687843,-0.0572114,-0.3983603,1.524419,0.2501523,-0.3699829,1.529992,0.1020423,-0.000428512,1.66285,0.1028482,-0.3321302,1.639027,-0.08522857,0.1848568,1.669376,0.01767918,-0.3251293,1.60441,-0.1224755,-0.08364191,1.66908,0.3113023,-0.09148642,1.639652,NA,NA,NotTracked,NotTracked,
