ALX,ALY,ALZ,ARX,ARY,ARZ,EMG0L,EMG1L,EMG2L,EMG3L,EMG4L,EMG5L,EMG6L,EMG7L,EMG0R,EMG1R,EMG2R,EMG3R,EMG4R,EMG5R,EMG6R,EMG7R,GLX,GLY,GLZ,GRX,GRY,GRZ,ORL,OPL,OYL,ORR,OPR,OYR,LHNX,LHNY,LHNZ,RHNX,RHNY,RHNZ,HX,HY,HZ,LTX,LTY,LTZ,RTX,RTY,RTZ,SpineMidX,SpineMidY,SpineMidZ,SpineBaseX,SpineBaseY,SpineBaseZ,ShoulderLeftX,ShoulderLeftY,ShoulderLeftZ,ShoulderRightX,ShoulderRightY,ShoulderRightZ,ElbowLeftX,ElbowLeftY,ElbowLeftZ,ElbowRightX,ElbowRightY,ElbowRightZ,Myo_Pose_left,Myo_Pose_Right,Kinect_pose_left,Kinect_pose_right
-0.9477539,-0.3164063,-0.168457,-0.9321289,0.3457031,-0.06591797,1,-1,-1,-2,-2,-3,-2,0,-2,-1,-1,0,-2,-1,-1,0,0.5,0.5,0.5,0.5,0.5,0.5,1.730088,6.917255,1.778705,7.804484,6.932682,2.63886,-0.1126823,-0.4146495,1.566829,0.2764865,-0.4268527,1.488459,0.1069066,0.4654274,1.657524,-0.1570958,-0.4149067,1.58127,0.3261441,-0.4370735,1.485075,0.09778379,-0.009234159,1.642136,0.09218477,-0.3393795,1.619416,-0.08713855,0.1702083,1.656008,0.00733009,-0.3309658,1.587774,-0.1226978,-0.09182459,1.665369,0.2994788,-0.09672444,1.597633,NA,NA,NotTracked,NotTracked,
-0.9511719,-0.3193359,-0.1630859,-0.9399414,0.347168,-0.06103516,0,-1,-1,0,1,1,0,-2,-1,0,-1,-2,-2,-1,0,-2,0.8125,0.8125,0.8125,0.8125,0.8125,0.8125,1.729929,6.917732,1.77868,7.802615,6.932634,2.635798,-0.1131217,-0.4149051,1.567557,0.2761829,-0.4262871,1.487996,0.106903,0.4654312,1.657524,-0.1565419,-0.4147997,1.581692,0.3257605,-0.4362412,1.484758,0.0977817,-0.009234743,1.642137,0.09212688,-0.3393764,1.619415,-0.08713778,0.1702146,1.656046,0.007269249,-0.3309461,1.58776,-0.1227531,-0.09171178,1.665496,0.2994734,-0.09670997,1.59761,NA,NA,NotTracked,NotTracked,
-0.9472656,-0.3203125,-0.1674805,-0.9726563,0.3603516,-0.08154297,-1,-1,0,-2,-3,0,0,0,-1,-1,-1,-1,-1,-1,0,0,1.125,1.125,1.125,2,2,2,1.72965,6.917634,1.777562,7.797646,6.930919,2.627593,-0.1130009,-0.4141517,1.567926,0.2761659,-0.4264385,1.488841,0.1069106,0.4654235,1.657523,-0.1574347,-0.4125162,1.583801,0.325644,-0.4365717,1.484357,0.09782408,-0.00921974,1.642146,0.09212106,-0.3393621,1.619424,-0.08711117,0.1702261,1.656055,0.007257714,-0.3309385,1.587764,-0.1227433,-0.09164335,1.665537,0.2994701,-0.09672023,1.597611,NA,NA,NotTracked,NotTracked,
-0.9521484,-0.3193359,-0.1616211,-0.9990234,0.3867188,-0.09521484,-1,-1,0,0,-2,-1,0,-2,5,-5,15,4,0,2,1,-1,3.125,3.125,3.125,2.4375,2.4375,2.4375,1.731038,6.91758,1.774344,7.787986,6.927843,2.615661,-0.1135838,-0.4146537,1.567253,0.2764734,-0.4264279,1.488696,0.1069049,0.4654166,1.657523,-0.1576953,-0.4082298,1.587634,0.3270891,-0.4395977,1.487103,0.09781917,-0.009218536,1.642154,0.09210538,-0.3393475,1.619424,-0.08709005,0.1702542,1.656099,0.007227168,-0.3309222,1.587755,-0.1227218,-0.09147494,1.665597,0.2994624,-0.09670927,1.597611,NA,NA,NotTracked,NotTracked,
-0.9482422,-0.3256836,-0.1625977,-0.9082031,0.503418,-0.08642578,3,0,0,-1,1,1,-2,-2,4,0,7,1,2,-1,0,1,3.375,3.375,3.375,-5.625,-5.625,-5.625,1.731539,6.917379,1.772749,7.732465,6.902758,2.555846,-0.1126168,-0.4136348,1.566476,0.2763661,-0.42632,1.489021,0.1068906,0.4654286,1.657545,-0.1564983,-0.4111284,1.584158,0.3246618,-0.4290315,1.482463,0.09781981,-0.009222757,1.642159,0.09208903,-0.3393462,1.61944,-0.08717106,0.1702918,1.656223,0.007219923,-0.3309128,1.587761,-0.1226926,-0.09146784,1.665675,0.2994743,-0.09670864,1.597612,NA,NA,NotTracked,NotTracked,
-0.9555664,-0.3222656,-0.1621094,-0.9262695,0.3999023,-0.03564453,0,-2,0,-3,-1,-1,0,0,-2,-1,1,0,-2,-3,-1,0,3.875,3.875,3.875,23.5,23.5,23.5,1.734105,6.916698,1.770851,7.655165,6.864295,2.45847,-0.1118978,-0.4135914,1.562514,0.2763782,-0.4263807,1.488454,0.106846,0.4653914,1.65763,-0.1571475,-0.4135464,1.582163,0.3256574,-0.4358907,1.483771,0.09781516,-0.009255325,1.642161,0.09206385,-0.3393702,1.619411,-0.08716188,0.1702953,1.656252,0.007191706,-0.3309298,1.587717,-0.123027,-0.09096523,1.665769,0.2994886,-0.09685251,1.597613,NA,NA,NotTracked,NotTracked,
-0.9526367,-0.3212891,-0.1660156,-0.8754883,0.5263672,-0.01367188,0,-2,1,-1,-1,0,-1,-2,-2,-3,3,0,-1,-1,-1,-3,3.875,3.875,3.875,44,44,44,1.734057,6.916379,1.768566,7.607111,6.807851,2.354686,-0.1115623,-0.4116035,1.558456,0.2766354,-0.4267483,1.489415,0.1068154,0.4653586,1.657743,-0.1549764,-0.4136389,1.573812,0.3261362,-0.4343854,1.485992,0.09781216,-0.009273627,1.642159,0.0920722,-0.3393727,1.619405,-0.08723237,0.1703085,1.656358,0.00720289,-0.3309304,1.587702,-0.1232932,-0.09080838,1.666007,0.2994446,-0.09684975,1.5977,NA,NA,NotTracked,NotTracked,
-0.9404297,-0.3237305,-0.1640625,-0.8769531,0.5351563,0.0234375,-2,2,-2,0,0,-1,0,-2,0,-1,-1,0,-2,0,0,4,3.3125,3.3125,3.3125,27.625,27.625,27.625,1.736218,6.916862,1.764161,7.564621,6.74585,2.269695,-0.1110096,-0.412742,1.550015,0.2762375,-0.4270176,1.488657,0.1067793,0.4652883,1.657796,-0.1560591,-0.4438109,1.5625,0.3260137,-0.436452,1.484952,0.09779892,-0.009322,1.642154,0.09208046,-0.3394147,1.619354,-0.08736218,0.1702543,1.656569,0.007207695,-0.3310007,1.587649,-0.1238477,-0.09033839,1.665953,0.2994379,-0.09690608,1.597697,NA,NA,NotTracked,NotTracked,
-0.9458008,-0.3291016,-0.1635742,-0.8881836,0.5078125,0.007324219,0,1,0,0,0,0,-1,-1,0,4,5,6,0,-1,-2,-1,0.625,0.625,0.625,23.3125,23.3125,23.3125,1.741464,6.917909,1.768283,7.525589,6.683562,2.197304,-0.1096346,-0.4102247,1.540569,0.2769011,-0.4275179,1.489796,0.1067327,0.4650807,1.657995,-0.158782,-0.4082788,1.559731,0.3268788,-0.4367907,1.486758,0.09779345,-0.009358911,1.642171,0.09214728,-0.3394426,1.61932,-0.08773029,0.1702199,1.656952,0.007274099,-0.3310363,1.587618,-0.1248713,-0.08957759,1.665573,0.2994105,-0.09697014,1.597733,NA,NA,NotTracked,NotTracked,
-0.9516602,-0.3266602,-0.1665039,-0.9550781,0.5317383,0.01611328,0,0,0,-1,0,1,0,0,5,9,27,8,1,-1,-1,0,-1.5625,-1.5625,-1.5625,23.75,23.75,23.75,1.74303,6.918183,1.770829,7.504936,6.649202,2.158856,-0.1087773,-0.4062103,1.530697,0.2766138,-0.4279263,1.489082,0.1065831,0.4649066,1.658137,-0.1606954,-0.4030757,1.550313,0.3265629,-0.4352675,1.4871,0.09780575,-0.009431356,1.642155,0.09216989,-0.3394797,1.619292,-0.0878389,0.1702242,1.657022,0.007293538,-0.331088,1.58759,-0.1263609,-0.08869813,1.664375,0.2993996,-0.09718931,1.597661,NA,NA,NotTracked,NotTracked,
-0.9584961,-0.3305664,-0.1704102,-1.214844,0.5380859,0.1386719,1,0,-1,-1,5,8,8,0,-7,28,104,0,-5,-2,-3,-6,-6.875,-6.875,-6.875,50,50,50,1.737287,6.917974,1.774586,7.426581,6.553333,2.01984,-0.1075455,-0.4032855,1.518843,0.2759479,-0.4268163,1.488414,0.1065296,0.4648886,1.658115,-0.1605213,-0.4055389,1.531565,0.3258952,-0.437012,1.48474,0.09781738,-0.009458207,1.642085,0.09229931,-0.3394726,1.619118,-0.08803265,0.1703637,1.657116,0.007404279,-0.3311291,1.587464,-0.1279479,-0.08813649,1.662111,0.2993535,-0.09726215,1.597559,NA,NA,NotTracked,NotTracked,
-0.9584961,-0.3305664,-0.1704102,-1.233398,0.7890625,0.09082031,-3,1,0,-1,0,-2,2,-4,3,36,52,16,-3,-2,2,-2,-6.875,-6.875,-6.875,185.25,185.25,185.25,1.737287,6.917974,1.774586,7.411981,6.375439,1.788025,-0.1057176,-0.3972167,1.508304,0.2763524,-0.4270945,1.48996,0.106344,0.4649727,1.658327,-0.1587411,-0.4002814,1.509947,0.3258603,-0.4367045,1.485175,0.09779532,-0.009444574,1.642119,0.09236538,-0.3394509,1.619098,-0.08714861,0.1716009,1.655872,0.007445699,-0.3311175,1.587459,-0.1296842,-0.08706924,1.660446,0.2993385,-0.09725829,1.597584,NA,NA,NotTracked,NotTracked,
-1.041504,-0.5,-0.1474609,-0.9936523,1.610352,0.4306641,1,-2,-3,-1,-2,-4,-7,-8,20,0,4,4,4,1,-1,7,13.6875,13.6875,13.6875,204.75,204.75,204.75,1.742507,6.901926,1.773269,7.424491,6.053914,1.475607,-0.1008331,-0.384834,1.485129,0.2762164,-0.4268242,1.489064,0.1062129,0.4649989,1.658545,-0.1405634,-0.3844222,1.462938,0.3258535,-0.4379343,1.484057,0.09787032,-0.009418825,1.642173,0.09271624,-0.3393582,1.61907,-0.08820819,0.1720193,1.657007,0.007808884,-0.3311592,1.587461,-0.1326973,-0.08335876,1.658985,0.2993447,-0.09723626,1.597668,NA,NA,NotTracked,NotTracked,
-0.925293,-0.3813477,-0.2788086,-0.2836914,1.597168,0.2050781,-2,-2,-1,0,-1,-1,-2,1,-8,-21,-75,-89,-76,-21,-10,-5,101.6875,101.6875,101.6875,79.0625,79.0625,79.0625,1.859314,6.872007,1.763063,7.415517,5.621847,1.198992,-0.0300251,-0.2726717,1.445111,0.2728707,-0.4196242,1.481228,0.1053418,0.4652455,1.658934,-0.09541488,-0.2594587,1.383455,0.3094399,-0.4373231,1.45134,0.09884939,-0.009098834,1.64187,0.09837751,-0.338304,1.617004,-0.09041494,0.1740219,1.659501,0.01339911,-0.3322095,1.585695,-0.1445138,-0.06140103,1.653799,0.2997484,-0.09662497,1.598468,NA,NA,Unknown,NotTracked,
-0.9223633,-0.3364258,-0.21875,-0.1347656,0.9077148,0.01660156,7,3,-1,-1,-1,-1,-1,0,-29,-30,-33,-77,-40,-7,-5,-6,95.6875,95.6875,95.6875,2.8125,2.8125,2.8125,1.921691,6.859321,1.774438,7.376678,5.177804,0.9259633,0.01245426,-0.1872283,1.443289,0.2703357,-0.414266,1.476305,0.1043275,0.4653729,1.659444,-0.05815643,-0.1847984,1.406717,0.3090143,-0.4199534,1.449243,0.09879074,-0.009036241,1.642018,0.09826556,-0.3381386,1.617223,-0.09089607,0.1752336,1.661013,0.01345666,-0.3320825,1.585935,-0.1600423,-0.04844779,1.647286,0.2999789,-0.09607826,1.59957,NA,NA,Closed,NotTracked,
-0.8989258,-0.53125,-0.078125,-0.2250977,0.621582,-0.07666016,4,1,-2,1,-1,1,-2,-3,-1,6,7,-29,8,-6,2,-7,13.25,13.25,13.25,-11.3125,-11.3125,-11.3125,2.072683,6.802987,1.855374,7.364068,4.989646,0.7793962,0.06690223,-0.1199311,1.442634,0.268205,-0.4117694,1.470267,0.103011,0.4650181,1.660315,0.04121798,-0.1218705,1.375963,0.3059919,-0.4282969,1.44055,0.09861488,-0.0089407,1.642488,0.09812648,-0.3379033,1.617514,-0.09168994,0.1761015,1.662917,0.01340622,-0.3317149,1.586294,-0.162578,-0.04706744,1.642896,0.3001584,-0.09611812,1.600283,NA,NA,Closed,NotTracked,
-0.8432617,-0.6088867,-0.06689453,-0.1015625,0.4116211,-0.1376953,2,2,-2,-3,-4,-3,-1,2,-3,13,28,67,47,4,0,1,-2.5,-2.5,-2.5,122.375,122.375,122.375,2.100401,6.754842,1.886294,7.500534,4.653218,0.4730316,0.09000011,-0.06976727,1.460013,0.2696565,-0.4069355,1.463775,0.1014769,0.4647772,1.661259,0.03904734,-0.05459665,1.406,0.2737946,-0.391753,1.412861,0.09813843,-0.008840892,1.643279,0.097914,-0.3376741,1.617827,-0.0914862,0.1770938,1.664198,0.01331681,-0.3314437,1.586625,-0.1689887,-0.0433828,1.632064,0.3001162,-0.09633636,1.600682,NA,NA,Unknown,NotTracked,
-0.8408203,-0.5854492,-0.07714844,0.1196289,0.6831055,-0.004882813,4,2,-1,-2,-1,1,-1,-4,-8,18,30,15,13,0,0,0,-2.0625,-2.0625,-2.0625,135.5,135.5,135.5,2.098871,6.734244,1.88444,7.747246,4.409919,0.1690279,0.1065227,-0.01400609,1.470873,0.2721277,-0.4019256,1.45295,0.09988376,0.4641142,1.662262,0.08705466,-0.03735527,1.420742,0.2872752,-0.3851973,1.405813,0.09769964,-0.008920209,1.644092,0.09748131,-0.3374044,1.618039,-0.09087562,0.1776996,1.664322,0.01312717,-0.3312297,1.586721,-0.1703969,-0.03585594,1.593576,0.3000214,-0.09667028,1.600754,NA,NA,Unknown,NotTracked,
-0.8613281,-0.4204102,-0.1137695,0.1313477,0.6816406,-0.09033203,5,0,-2,-2,-1,1,-3,-1,-1,-1,0,21,6,-2,-2,-5,7.5625,7.5625,7.5625,38.9375,38.9375,38.9375,2.090643,6.704283,1.869141,7.920047,4.295576,9.902509,0.1467807,0.05592941,1.477681,0.2753395,-0.4002113,1.437667,0.09832659,0.4635107,1.663478,0.1334274,0.04694453,1.418532,0.2867424,-0.3923428,1.387217,0.09705918,-0.008718622,1.645285,0.09690191,-0.3368656,1.618303,-0.08985698,0.1788251,1.663958,0.01263703,-0.3305371,1.586855,-0.1698217,-0.02812553,1.572681,0.2998626,-0.0965569,1.600605,NA,NA,Unknown,NotTracked,
-0.8974609,-0.3710938,-0.125,0.1313477,0.6816406,-0.09033203,3,4,-1,-1,-1,0,-2,-3,-1,-1,0,21,6,-2,-2,-5,10.8125,10.8125,10.8125,38.9375,38.9375,38.9375,2.087738,6.691994,1.859632,7.920047,4.295576,9.902509,0.1238158,0.07056787,1.517057,0.2768223,-0.3947419,1.425234,0.09654809,0.4631344,1.664799,0.1107619,0.05406046,1.428458,0.2844477,-0.3891572,1.376103,0.09657987,-0.008480888,1.64613,0.09642955,-0.3362508,1.618283,-0.08665312,0.1807488,1.658986,0.01199617,-0.3297307,1.586501,-0.1717122,-0.0161339,1.549103,0.2994723,-0.09549979,1.599792,NA,NA,Unknown,Unknown,
-0.9731445,-0.4238281,-0.1113281,0.1538086,0.5302734,-0.07714844,-1,-3,0,-2,-2,-4,0,0,9,5,1,6,-1,0,1,-2,44.75,44.75,44.75,25.0625,25.0625,25.0625,2.119506,6.640557,1.844497,8.064347,4.292774,9.63473,0.1095036,0.06450467,1.521046,0.2770112,-0.390499,1.414116,0.0953386,0.4627983,1.666245,0.04895374,0.08579908,1.454114,0.2833838,-0.3863517,1.365549,0.09626688,-0.008306739,1.646636,0.09613506,-0.3358082,1.618038,-0.08493546,0.1823081,1.655697,0.0114553,-0.3289947,1.585689,-0.1701765,-0.004536005,1.527787,0.2991275,-0.09460469,1.598551,NA,NA,Unknown,Unknown,
-0.9731445,-0.4238281,-0.1113281,0.1582031,0.7480469,-0.1821289,-3,-1,0,-2,-1,-3,-2,0,-21,-11,-8,-44,-19,-5,-5,-8,44.75,44.75,44.75,24.0625,24.0625,24.0625,2.119506,6.640557,1.844497,8.121964,4.339983,9.564324,0.1112846,0.06605925,1.525356,0.2775463,-0.3843333,1.404907,0.09403571,0.4622621,1.668722,0.05250617,0.09592075,1.468404,0.2859354,-0.3817752,1.356226,0.09591984,-0.008181805,1.647505,0.09599652,-0.3356258,1.618007,-0.08391178,0.1831404,1.653642,0.01122991,-0.3287418,1.585428,-0.1682044,0.0006111886,1.518374,0.2987203,-0.09370226,1.598286,NA,NA,Unknown,Unknown,
-0.9628906,-0.6948242,-0.1591797,0.2866211,0.831543,-0.1796875,-3,-1,5,0,6,2,-2,-1,0,-3,1,4,4,-1,-1,-2,130.625,130.625,130.625,-14.6875,-14.6875,-14.6875,2.284461,6.563239,1.845543,8.108646,4.392601,9.547726,0.15965,0.09650582,1.539027,0.2786251,-0.3733663,1.396386,0.09323879,0.4619464,1.670181,0.1759137,0.1016794,1.459976,0.2829686,-0.3633998,1.351566,0.09556738,-0.008096042,1.647969,0.09580784,-0.3353453,1.617756,-0.08301919,0.1840888,1.651455,0.0107945,-0.3281654,1.584427,-0.1661164,0.007562319,1.506999,0.2984301,-0.09360236,1.598237,NA,NA,NotTracked,Unknown,
-1.003906,-0.809082,-0.2060547,0.2304688,0.7368164,-0.2055664,-22,-44,-29,-32,-35,-21,-11,-8,-1,-3,6,12,8,-1,-2,-1,197.625,197.625,197.625,-15.1875,-15.1875,-15.1875,2.478191,6.472065,1.839549,8.09727,4.414121,9.548307,0.1131987,0.07435355,1.52604,0.2833675,-0.3539742,1.391069,0.09262719,0.4625155,1.672294,0.1031694,0.1341686,1.546448,0.272314,-0.3411534,1.3458,0.09536944,-0.007631549,1.64867,0.09578761,-0.3348167,1.617616,-0.08242112,0.1849578,1.650047,0.01072555,-0.3273553,1.583738,-0.1657015,0.009711019,1.504015,0.2981293,-0.09291925,1.598826,NA,NA,NotTracked,Unknown,
-1.043945,-1.000488,-0.05615234,0.2426758,0.9658203,-0.1923828,-64,-42,-13,-2,68,8,-47,-26,23,0,-6,-13,-5,-1,1,9,222.5,222.5,222.5,5.75,5.75,5.75,2.600196,6.396433,1.838377,8.087334,4.456239,9.556748,0.1732236,0.09180968,1.540776,0.2877825,-0.3286685,1.375181,0.09228791,0.4630287,1.673942,0.1789442,0.1022164,1.472169,0.2964893,-0.3103029,1.327222,0.09517171,-0.007239447,1.649051,0.09562433,-0.3342018,1.617334,-0.08176617,0.1856517,1.648657,0.01043907,-0.3265482,1.582832,-0.1656255,0.0120396,1.500877,0.2974389,-0.08945239,1.602485,NA,NA,NotTracked,Unknown,
-1.381836,-2.119629,0.2875977,0.234375,0.9658203,-0.2773438,64,46,8,1,-75,-5,-3,0,5,2,2,1,1,-3,-3,2,259.75,259.75,259.75,-24.8125,-24.8125,-24.8125,2.893946,6.130761,1.860042,8.058324,4.500731,9.572612,0.1145774,0.06882384,1.522706,0.2956537,-0.2765244,1.400861,0.09228971,0.4631845,1.675442,0.1175599,0.02716631,1.478704,0.3197464,-0.2433757,1.369408,0.09489252,-0.006822148,1.649407,0.09513805,-0.3331862,1.617037,-0.0818559,0.1875256,1.647631,0.009855114,-0.3253042,1.581847,-0.1659423,0.01422712,1.499577,0.2943214,-0.08111837,1.617481,NA,NA,NotTracked,Closed,
-1.381836,-2.119629,0.2875977,0.234375,0.9658203,-0.2773438,64,46,8,1,-75,-5,-3,0,5,2,2,1,1,-3,-3,2,259.75,259.75,259.75,-24.8125,-24.8125,-24.8125,2.893946,6.130761,1.860042,8.058324,4.500731,9.572612,0.153619,0.08781091,1.535039,0.3179816,-0.2038868,1.324331,0.09254669,0.4632394,1.676782,0.14994,0.06577039,1.44309,0.3429544,-0.180317,1.293857,0.09472464,-0.006555333,1.649554,0.09479296,-0.3325514,1.616798,-0.08178054,0.1886786,1.646989,0.009478795,-0.3245977,1.581086,-0.1655319,0.01503291,1.499154,0.2929218,-0.07467626,1.626596,NA,NA,NotTracked,Closed,
-1.381836,-2.119629,0.2875977,0.3388672,0.9116211,-0.3520508,55,9,-9,-17,-8,5,-13,-7,-9,4,3,1,2,0,-1,-8,259.75,259.75,259.75,-29.6875,-29.6875,-29.6875,2.893946,6.130761,1.860042,8.018894,4.539628,9.586876,0.1525912,0.07958981,1.534604,0.3435327,-0.1069556,1.30949,0.09303391,0.4634399,1.677573,0.1462577,0.06149048,1.441439,0.3636555,-0.06862161,1.333714,0.09463506,-0.00637778,1.64959,0.09447089,-0.3319477,1.616568,-0.08124614,0.1886135,1.646242,0.009154744,-0.3240874,1.580604,-0.1668834,0.01583046,1.498493,0.2919101,-0.06737804,1.632732,NA,NA,NotTracked,Unknown,
-0.2485352,-1.012695,0.4335938,0.3447266,0.9545898,-0.28125,-46,38,9,-26,-45,-36,-21,-9,14,-3,-5,6,0,1,5,1,151.4375,151.4375,151.4375,-6.375,-6.375,-6.375,3.409672,5.192013,1.696388,8.002517,4.578394,9.589462,0.1480295,0.074105,1.534789,0.3708982,0.001528746,1.329904,0.09391876,0.4636231,1.678145,0.1344569,0.05183592,1.4405,0.4077745,0.06771916,1.32475,0.09452946,-0.00614386,1.649786,0.09391127,-0.3315815,1.616592,-0.08081003,0.1885076,1.645749,0.008586916,-0.3236609,1.580365,-0.167699,0.01606436,1.498367,0.2916919,-0.06355653,1.633315,NA,NA,NotTracked,Unknown,
0.1425781,-1.037109,0.4111328,0.3066406,0.9550781,-0.3374023,-20,-36,-12,2,-5,-8,0,5,-39,-43,-18,-7,-4,-2,-5,-17,60.1875,60.1875,60.1875,13.625,13.625,13.625,3.487758,4.58285,1.563876,8.02016,4.614773,9.573533,0.1120911,0.05245754,1.525003,0.3850347,0.08848046,1.372908,0.09484596,0.4636674,1.678629,0.1218902,-0.02450518,1.523571,0.4225207,0.1693072,1.386333,0.09447961,-0.005892244,1.649953,0.09317001,-0.3311375,1.616591,-0.0804373,0.1883763,1.645194,0.007700796,-0.3229842,1.579949,-0.1685025,0.01644615,1.497926,0.3036014,-0.06153884,1.611856,NA,NA,NotTracked,Lasso,
0.1425781,-1.037109,0.4111328,0.315918,0.9672852,-0.3051758,-3,-24,11,-1,-2,-1,0,-6,-17,-7,-1,2,2,3,12,-2,60.1875,60.1875,60.1875,17.9375,17.9375,17.9375,3.487758,4.58285,1.563876,8.031814,4.633402,9.560838,0.1752262,0.07075852,1.548532,0.391555,0.1537993,1.421079,0.09611767,0.4641778,1.678859,0.1476942,-0.01013444,1.539814,0.3612185,0.1595797,1.484875,0.09438097,-0.005652729,1.650108,0.09230027,-0.3307654,1.616725,-0.07998064,0.188378,1.644629,0.006819924,-0.3224383,1.579904,-0.1703427,0.01735153,1.497743,0.3206155,-0.05496337,1.57777,NA,NA,NotTracked,Lasso,
0.215332,0.01904297,0.7211914,0.2402344,0.8217773,-0.3549805,-4,-15,2,7,18,-4,10,4,-20,-2,-3,-1,-4,-2,-2,-13,52,52,52,9.9375,9.9375,9.9375,3.987325,3.384053,0.9579672,8.060785,4.693784,9.501181,0.1787411,0.06903234,1.552787,0.3946813,0.2074537,1.464493,0.09757567,0.4642713,1.679061,0.1688757,-0.016369,1.533423,0.3640508,0.2155622,1.5015,0.094213,-0.005537154,1.65046,0.09122252,-0.3305827,1.617021,-0.07956856,0.1882645,1.644239,0.00582294,-0.3221036,1.580176,-0.1719719,0.01879809,1.49679,0.3365209,-0.03755577,1.532261,NA,NA,NotTracked,Closed,
0.3745117,0.6103516,0.7832031,0.1757813,0.8212891,-0.2729492,-4,-2,-5,0,6,3,4,3,4,-5,-1,-1,-2,-4,-17,-8,77.9375,77.9375,77.9375,22,22,22,4.942037,3.030956,0.01074725,8.094822,4.760893,9.445984,0.1887128,0.06658671,1.556153,0.3876393,0.2429802,1.495435,0.09907294,0.4642436,1.679067,0.2513835,-0.01686333,1.49025,0.3613784,0.1929017,1.532667,0.09402685,-0.005511252,1.650944,0.0893058,-0.3306823,1.617432,-0.07918498,0.1882831,1.643915,0.003654851,-0.3219926,1.581117,-0.1724912,0.01966048,1.496041,0.3454358,-0.01852576,1.50187,NA,NA,NotTracked,Closed,
0.07373047,0.4648438,0.8295898,0.08837891,0.9628906,-0.3505859,2,6,8,-13,-9,-1,-3,-11,72,15,3,1,1,0,-1,-3,299.8125,299.8125,299.8125,9.0625,9.0625,9.0625,6.696784,2.96172,8.642403,8.107814,4.883513,9.363911,0.1028631,0.02843988,1.530466,0.3398046,0.3664522,1.547331,0.106292,0.4629215,1.680014,0.1085643,-0.03843328,1.4983,0.302183,0.3551683,1.529125,0.09363209,-0.005393822,1.65261,0.08583082,-0.3308032,1.6175,-0.07727697,0.1883794,1.642826,0.0001049555,-0.3214592,1.581413,-0.1733137,0.02721718,1.488071,0.3370882,0.06251568,1.421969,NA,NA,NotTracked,NotTracked,
0.09960938,0.3251953,0.03710938,-0.009277344,1.039063,-0.4731445,0,76,-31,-8,-1,-8,4,33,14,16,5,3,2,-1,4,19,418.25,418.25,418.25,-10.5,-10.5,-10.5,1.619407,2.5985,4.421328,8.11925,4.98974,9.311332,0.1109068,0.03131361,1.535301,0.2036372,0.3661575,1.458863,0.1093918,0.462496,1.680595,0.1194372,-0.03675441,1.517281,0.1863834,0.3280887,1.423625,0.09397753,-0.005395455,1.652842,0.0844442,-0.3301693,1.616613,-0.07369042,0.1891355,1.642195,-0.002463688,-0.3196864,1.579905,-0.1650065,0.03361888,1.478442,0.2968234,0.1172314,1.390631,NA,NA,NotTracked,Unknown,
-0.4125977,-0.2602539,-0.3710938,-0.08349609,0.9501953,-0.2885742,2,-16,-10,-12,-17,3,7,11,-51,-6,1,-2,-5,-2,-2,-9,-66.875,-66.875,-66.875,8.3125,8.3125,8.3125,2.362938,3.61411,3.851947,8.126042,5.003541,9.302119,0.1204257,0.03676282,1.528629,0.1447124,0.1699111,1.379657,0.1205509,0.4696356,1.683781,0.06190036,0.001444192,1.466057,0.1599255,0.1752662,1.331077,0.09362798,-0.01628141,1.649466,0.08518402,-0.3386395,1.614409,-0.0726267,0.1891133,1.64174,-0.001970613,-0.3289019,1.581745,-0.1602362,0.03447345,1.474955,0.2361881,0.09068748,1.395807,NA,NA,NotTracked,NotTracked,
-0.324707,-1.351074,-0.2055664,-0.2089844,0.855957,-0.3125,-20,6,2,-56,-22,-14,-2,-10,-13,-3,1,2,0,-3,-3,-6,-111.4375,-111.4375,-111.4375,15,15,15,2.22288,4.090456,3.871779,8.142704,5.006845,9.318137,0.2071242,0.06104682,1.393814,-0.04318807,0.1516547,1.357585,0.125838,0.4616087,1.687953,0.2432889,0.01700458,1.377,-0.06995445,0.1222948,1.3699,0.09599718,-0.01661257,1.649556,0.08768544,-0.3410943,1.612956,-0.0693691,0.1831784,1.637346,0.002278967,-0.332401,1.57226,-0.1517675,0.02948532,1.466836,0.2185788,0.05762859,1.411381,NA,NA,Unknown,NotTracked,
-0.2958984,-1.766602,-0.5058594,-0.144043,0.8359375,-0.2939453,16,16,13,1,8,33,20,9,-17,-5,-7,-6,-4,-2,0,-4,-5.3125,-5.3125,-5.3125,-17.875,-17.875,-17.875,2.126458,4.686669,3.926798,8.125125,5.037584,9.375558,0.1420367,0.03630495,1.375374,-0.05910652,0.0681363,1.370413,0.1275134,0.4603014,1.689881,0.1560885,0.004486932,1.366914,-0.05478807,0.02565655,1.429588,0.09868263,-0.01027124,1.652041,0.08906868,-0.3304424,1.612088,-0.06413166,0.198714,1.644975,0.005250238,-0.3198778,1.573252,-0.1441153,0.0397025,1.478364,0.226413,0.03461058,1.426535,NA,NA,NotTracked,NotTracked,
0.2495117,-1.363281,-0.5649414,0.3769531,0.9770508,-0.4111328,34,21,20,6,7,-5,-14,-2,-11,-2,-1,-4,-2,-1,-2,-6,90.5,90.5,90.5,-32.875,-32.875,-32.875,2.258077,4.838436,3.942312,8.048334,5.007558,9.456771,-0.0277538,0.04474451,1.361388,-0.05345962,0.05108291,1.36085,0.1278162,0.4605614,1.690612,0.03334782,0.04619677,1.331684,-0.078672,0.01893334,1.351,0.09967005,-0.006711113,1.65375,0.08795872,-0.3258757,1.612726,-0.06365791,0.200345,1.646039,0.004945884,-0.3151249,1.575094,-0.1563199,0.03797876,1.490278,0.225924,0.02160338,1.432969,NA,NA,NotTracked,NotTracked,
0.1318359,-1.098633,-0.3110352,0.08154297,0.9350586,-0.3847656,-5,15,16,9,8,15,0,1,-3,-1,-1,-3,-1,0,1,-2,5.5625,5.5625,5.5625,-18.5,-18.5,-18.5,2.289226,4.81133,3.926246,8.020486,4.947203,9.50813,-0.02756718,0.04479488,1.358708,-0.04347276,0.04907845,1.358045,0.1269199,0.4612841,1.691097,0.03320746,0.04693702,1.331651,-0.06766094,0.01381532,1.3558,0.09940237,-0.004398756,1.654608,0.08709657,-0.3237775,1.613678,-0.06382685,0.2011287,1.646812,0.004475601,-0.3130709,1.577135,-0.157127,0.0353099,1.495413,0.2413134,0.01130259,1.438321,NA,NA,NotTracked,NotTracked,
-0.01855469,-0.9208984,-0.2192383,-0.1264648,0.8793945,-0.2431641,12,11,6,4,1,1,1,2,-24,-7,-3,-1,-1,-1,-2,-8,6.5625,6.5625,6.5625,-8.375,-8.375,-8.375,2.28881,4.795735,3.902206,8.000253,4.904739,9.567846,-0.02481132,0.04232847,1.348053,-0.03801754,0.0487132,1.345759,0.1243283,0.4627902,1.690358,0.03424145,0.0280123,1.327958,-0.07040621,0.02103406,1.329235,0.0989404,-0.003363778,1.654776,0.08604497,-0.3226575,1.614664,-0.06468772,0.2021633,1.648171,0.003711821,-0.3120477,1.579104,-0.1569054,0.03061341,1.503047,0.245492,0.008343376,1.437641,NA,NA,NotTracked,NotTracked,
-0.2333984,-0.5776367,0.09033203,-0.08447266,0.7885742,-0.1113281,-11,13,-4,-16,-10,-5,-4,-1,3,-1,-3,-1,0,-2,2,0,16.4375,16.4375,16.4375,-27.0625,-27.0625,-27.0625,2.346749,4.853715,3.776288,7.933896,4.89109,9.729959,-0.01549578,0.03120458,1.335357,0.0825789,0.00707968,1.352135,0.1201687,0.4657043,1.687787,0.0639491,-0.002453254,1.3408,-0.006390252,0.02964697,1.3025,0.09796858,-0.001643913,1.654361,0.0853021,-0.3218738,1.615322,-0.06520168,0.2022362,1.648378,0.002894234,-0.3113451,1.580835,-0.1580824,0.02118022,1.516913,0.258021,0.004921046,1.440277,NA,NA,NotTracked,NotTracked,
-0.2436523,-0.6337891,0.1499023,0.03857422,0.7890625,-0.08789063,12,10,1,3,0,-3,-3,-4,-7,-2,-3,-2,-2,-2,-1,-4,34.875,34.875,34.875,-55.375,-55.375,-55.375,2.416321,4.998477,3.653314,7.870629,4.90095,9.873833,-0.01176856,-0.01277,1.322699,0.1381019,-0.02860797,1.373204,0.1152539,0.4691166,1.683946,-0.02510136,-0.04559606,1.29779,0.1126067,0.02403567,1.457692,0.09685805,0.0008721278,1.652433,0.08536185,-0.3210767,1.615386,-0.06892549,0.1986852,1.649249,0.002943563,-0.3108136,1.581798,-0.1748679,0.0104105,1.542706,0.2966232,-0.009339709,1.461214,NA,NA,NotTracked,NotTracked,
-0.2451172,-0.6513672,0.2456055,0.05810547,0.7495117,-0.06005859,-7,-5,-3,0,0,1,-2,-2,-2,-5,1,0,-1,-3,1,-1,51.375,51.375,51.375,-96.0625,-96.0625,-96.0625,2.471119,5.140077,3.538981,7.665636,5.052685,0.3286424,0.05010917,-0.09677333,1.330327,0.01957487,-0.1067624,1.311395,0.1121722,0.4707069,1.681417,0.007365495,-0.1145609,1.275542,0.02313223,-0.07289326,1.293714,0.09596087,0.001502024,1.650694,0.08541247,-0.3212989,1.615442,-0.06910034,0.1983855,1.649363,0.002932557,-0.3113581,1.582154,-0.1962445,-0.00698399,1.556029,0.3094733,-0.02933135,1.497484,NA,NA,NotTracked,NotTracked,
-0.4326172,-1.222656,0.1977539,-0.1235352,1.023438,-0.01074219,8,-6,1,1,-1,-3,-1,-1,2,0,-1,0,0,0,1,3,57.375,57.375,57.375,-152.6875,-152.6875,-152.6875,2.518214,5.77356,3.165701,7.499288,5.331937,0.7758933,0.09480509,-0.1371115,1.403435,0.1294363,-0.2111072,1.356799,0.1087021,0.472763,1.677899,0.04588303,-0.2114932,1.290182,0.08673323,-0.1840538,1.311857,0.09440466,0.001732995,1.648326,0.08494413,-0.3224265,1.615655,-0.07682235,0.1921745,1.650748,0.0022937,-0.3130134,1.582736,-0.1423808,-0.06813837,1.542505,0.3146713,-0.04316098,1.535751,NA,NA,NotTracked,NotTracked,
-0.8417969,-1.144531,0.015625,-0.5063477,1.150879,-0.01611328,2,3,2,-3,-4,-1,2,0,-3,-3,-6,-3,-1,-1,-1,-3,49.9375,49.9375,49.9375,-177.375,-177.375,-177.375,2.436412,6.209764,2.864046,7.367603,5.821342,1.402308,-0.0116595,-0.2138034,1.428365,0.1684831,-0.316337,1.375981,0.1057979,0.4736227,1.674242,-0.01554501,-0.1762571,1.349431,0.1394493,-0.2943486,1.3405,0.09216748,0.001004574,1.643259,0.08360629,-0.3249564,1.613736,-0.08252185,0.1879631,1.650612,-5.678586E-05,-0.3149107,1.580782,-0.1615454,-0.03252004,1.638621,0.3080197,-0.05494665,1.564876,NA,NA,NotTracked,Closed,
-0.9301758,-0.996582,-0.05566406,-0.6313477,0.8261719,0.03955078,-1,0,0,-1,-7,-3,-3,-1,-2,0,4,1,1,-1,-2,1,83.8125,83.8125,83.8125,-223.8125,-223.8125,-223.8125,2.273703,6.598708,2.519314,7.230555,6.183315,1.787551,-0.09920366,-0.2921354,1.440295,0.2280395,-0.3741027,1.422221,0.1037306,0.4737581,1.670527,-0.1038997,-0.2810405,1.369765,0.1869119,-0.3934037,1.426,0.09143994,-3.651902E-05,1.639941,0.08376297,-0.3268467,1.612418,-0.08600404,0.1845635,1.649477,-0.0006550823,-0.3175546,1.57928,-0.1414746,-0.04829934,1.651785,0.2937484,-0.06556052,1.583721,NA,NA,Unknown,Unknown,
-1.123535,-0.269043,-0.1015625,-1.102539,0.4321289,0.230957,3,5,-5,-2,-4,-1,-1,0,-2,-4,-3,-2,-2,-1,-3,-2,84.3125,84.3125,84.3125,-59.75,-59.75,-59.75,1.795526,6.923107,1.793711,7.275801,6.615987,2.245463,-0.137397,-0.3378936,1.48298,0.2610577,-0.3994301,1.476281,0.101753,0.4737884,1.666628,-0.1345282,-0.3348807,1.427766,0.2302734,-0.4231516,1.442345,0.09151027,-0.001288237,1.638092,0.08561514,-0.3298199,1.611779,-0.08963916,0.1810378,1.647761,0.001184164,-0.3212719,1.578534,-0.1403868,-0.06293938,1.65124,0.2929874,-0.07639356,1.587122,NA,NA,Unknown,Unknown,
-1.132324,-0.4907227,-0.4863281,-1.107422,0.4462891,0.02587891,73,38,-1,-3,7,-4,-3,-2,2,4,0,0,0,-1,-2,-1,-31.4375,-31.4375,-31.4375,41.875,41.875,41.875,1.440205,7.009733,1.422411,7.68292,6.793835,2.636075,-0.1703692,-0.4035957,1.513774,0.2804402,-0.4300953,1.498164,0.1006782,0.4745849,1.663403,-0.0978316,-0.3760698,1.526714,0.2253286,-0.4286033,1.470962,0.09181003,-0.001662378,1.637028,0.08820805,-0.3315063,1.611805,-0.09092624,0.1801006,1.646413,0.003751276,-0.3235683,1.578454,-0.141721,-0.07566825,1.651352,0.2956501,-0.08738959,1.591944,NA,NA,Unknown,NotTracked,
-0.3618164,-0.4052734,-0.4746094,-1.083496,0.3032227,0.046875,-10,1,0,0,5,7,-1,-2,-2,-1,-2,-1,-1,-1,0,-3,21.3125,21.3125,21.3125,51.3125,51.3125,51.3125,1.055396,7.018531,1.034557,8.062158,6.910601,2.98441,-0.1793384,-0.4228302,1.5582,0.2958474,-0.4309254,1.514784,0.09965941,0.4743893,1.660275,-0.149488,-0.4029555,1.535923,0.2390561,-0.4282584,1.478511,0.09167453,-0.002183353,1.635971,0.08868845,-0.3327127,1.612046,-0.09223861,0.1789241,1.643968,0.004302214,-0.3249708,1.578442,-0.1456334,-0.09058145,1.653308,0.2991944,-0.09827261,1.598348,NA,NA,NotTracked,NotTracked,
-0.9477539,-0.3613281,-0.1303711,-0.9326172,0.503418,-0.01953125,0,1,-1,-2,-6,-2,-1,-3,-1,-2,-1,-1,-1,-2,1,0,-6.4375,-6.4375,-6.4375,15.5,15.5,15.5,1.08649,7.014007,1.031736,8.285204,6.97318,3.133945,-0.1746058,-0.4226186,1.592214,0.3023888,-0.4309678,1.523772,0.09899385,0.4741774,1.658684,-0.1448296,-0.4191494,1.5669,0.2451612,-0.4148856,1.487073,0.09187657,-0.002597779,1.634806,0.08997458,-0.3336613,1.611893,-0.0924611,0.1784332,1.641395,0.005477919,-0.3260661,1.577927,-0.1467069,-0.09532744,1.657563,0.3025354,-0.1010714,1.602956,NA,NA,NotTracked,NotTracked,
-0.9375,-0.4589844,-0.109375,-0.9213867,0.4008789,-0.01611328,2,-2,-4,0,1,1,-1,0,-2,-2,-2,-1,-1,0,-1,-1,3.75,3.75,3.75,-30.6875,-30.6875,-30.6875,1.186363,6.994087,1.129878,8.244002,6.989915,3.135528,-0.167284,-0.4233526,1.607713,0.303029,-0.4290024,1.522997,0.09838805,0.474209,1.656906,-0.1368588,-0.4236794,1.5794,0.2472694,-0.4109315,1.491244,0.09178375,-0.002977197,1.634107,0.09044814,-0.3343106,1.612078,-0.09254383,0.1779031,1.639396,0.005869281,-0.3266929,1.577889,-0.1466851,-0.09325916,1.663337,0.3044933,-0.1048887,1.606919,NA,NA,NotTracked,NotTracked,
-0.9130859,-0.3881836,-0.1743164,-0.9399414,0.3544922,-0.03466797,-7,-8,-10,-4,-2,-3,-3,-2,-1,-3,-2,-1,-2,2,-1,-2,26.4375,26.4375,26.4375,-10.75,-10.75,-10.75,1.314326,6.969913,1.223225,8.162066,6.997976,3.087595,-0.1573568,-0.4248398,1.609755,0.2983618,-0.4237656,1.516033,0.0979205,0.4744136,1.655454,-0.09860159,-0.4038624,1.582546,0.2476932,-0.4178187,1.491157,0.09139714,-0.003177739,1.633709,0.09040214,-0.3347535,1.612393,-0.09262028,0.1777375,1.638293,0.005762361,-0.3270312,1.578087,-0.1455623,-0.09232361,1.666439,0.3047479,-0.1050799,1.607132,NA,NA,NotTracked,NotTracked,
-0.9638672,-0.2832031,-0.2099609,-0.9536133,0.3706055,-0.1044922,-2,3,2,16,7,1,1,-1,0,-1,-2,0,-2,-1,0,-1,-13,-13,-13,1.6875,1.6875,1.6875,1.459346,6.930558,1.359807,8.001714,6.980274,2.921408,-0.1463361,-0.4234549,1.603038,0.2933438,-0.4164981,1.507224,0.09748505,0.4744136,1.65464,-0.09489252,-0.3932878,1.566375,0.2424456,-0.3960433,1.491414,0.09112863,-0.003209931,1.633646,0.09009029,-0.3349042,1.61306,-0.09264805,0.1777065,1.63805,0.005375559,-0.3272001,1.578857,-0.1428288,-0.0895785,1.668056,0.3043248,-0.1045283,1.606394,NA,NA,NotTracked,NotTracked,
-0.9453125,-0.3027344,-0.2509766,-0.9599609,0.3574219,-0.09863281,-1,-3,1,7,0,-1,0,-1,-1,0,-3,-2,-2,0,-1,-2,-25.5625,-25.5625,-25.5625,3.3125,3.3125,3.3125,1.495222,6.89893,1.450753,7.853723,6.946692,2.759493,-0.1343754,-0.4173199,1.586962,0.2876684,-0.409968,1.496756,0.09701307,0.4740595,1.653994,-0.08848871,-0.4194304,1.539667,0.2361986,-0.3720699,1.4935,0.09076024,-0.003408285,1.63383,0.08927017,-0.3351284,1.614125,-0.08902124,0.1802583,1.639811,0.004447566,-0.327374,1.580165,-0.1405766,-0.08880288,1.667559,0.3025809,-0.1030969,1.603006,NA,NA,NotTracked,NotTracked,
-0.9487305,-0.3134766,-0.2280273,-0.9619141,0.3466797,-0.08349609,-1,-1,0,4,5,1,1,0,-1,0,-1,0,0,-1,-2,0,-20.5,-20.5,-20.5,5.625,5.625,5.625,1.536188,6.860534,1.540954,7.708154,6.898396,2.592804,-0.1234397,-0.4130981,1.564487,0.2814802,-0.4072814,1.486122,0.09655861,0.4738128,1.654181,-0.07731634,-0.4199932,1.519688,0.2337312,-0.3979389,1.488091,0.09035401,-0.003794172,1.634406,0.08852941,-0.3354624,1.615102,-0.08719002,0.1819347,1.642468,0.003694648,-0.3275927,1.581548,-0.1383369,-0.08876744,1.666161,0.3006479,-0.09985911,1.599315,NA,NA,NotTracked,NotTracked,
-0.9482422,-0.2924805,-0.1708984,-0.9296875,0.3535156,-0.06201172,2,-1,0,0,-2,-3,0,-1,-2,-1,-1,1,-2,-2,-1,0,-4.5,-4.5,-4.5,12.125,12.125,12.125,1.662586,6.818704,1.674535,7.568417,6.826145,2.413936,-0.1131515,-0.4081568,1.54511,0.2773201,-0.4047828,1.473337,0.09593198,0.4734906,1.654646,-0.06916171,-0.3820073,1.516022,0.2334641,-0.382031,1.492549,0.09028874,-0.004063906,1.635125,0.08855993,-0.3356444,1.615566,-0.09115599,0.1775842,1.644622,0.003744609,-0.3279248,1.582219,-0.1352229,-0.08835697,1.662816,0.2998579,-0.09790151,1.596019,NA,NA,NotTracked,NotTracked,
-0.9135742,-0.3452148,-0.1791992,-0.8959961,0.3525391,-0.08398438,0,2,1,2,-1,1,0,1,-3,-2,-1,0,-1,-1,-1,-1,-18.875,-18.875,-18.875,17.5625,17.5625,17.5625,1.716619,6.785333,1.763398,7.536269,6.785047,2.34409,-0.1082308,-0.4067305,1.531464,0.2747129,-0.4012241,1.462765,0.09537375,0.4732164,1.6552,-0.05945425,-0.3948472,1.507111,0.2387868,-0.4042253,1.450695,0.09004231,-0.004106415,1.636237,0.08830883,-0.3355108,1.616219,-0.08827307,0.1806272,1.646879,0.003497452,-0.3278001,1.583177,-0.1332193,-0.08765009,1.659418,0.2989515,-0.0956977,1.593974,NA,NA,NotTracked,NotTracked,
-0.9238281,-0.3583984,-0.1679688,-0.9023438,0.3740234,-0.05126953,2,2,-1,-2,0,2,0,-2,-1,-1,-1,-1,-1,0,-1,-2,-4.5,-4.5,-4.5,9.5625,9.5625,9.5625,1.747733,6.765322,1.818996,7.536828,6.763665,2.316955,-0.1063164,-0.4077674,1.523483,0.2724889,-0.3999566,1.456667,0.09479643,0.4727578,1.656026,-0.05739377,-0.3877286,1.508041,0.2368336,-0.4026556,1.435561,0.09003997,-0.004246903,1.637232,0.08829094,-0.335456,1.616601,-0.08723654,0.1819196,1.64856,0.003494836,-0.3277836,1.583735,-0.1318897,-0.08703905,1.655612,0.2980599,-0.0934701,1.59162,NA,NA,NotTracked,Unknown,
-0.9179688,-0.3349609,-0.1704102,-0.9130859,0.3598633,-0.04101563,1,2,0,-2,-4,-3,-3,-2,-2,-1,-3,0,-1,0,-2,-2,5.625,5.625,5.625,4.25,4.25,4.25,1.775192,6.768056,1.8439,7.554973,6.768214,2.324445,-0.1066567,-0.4080122,1.522718,0.269789,-0.4007793,1.456711,0.09431782,0.4723928,1.656922,-0.05656061,-0.3846709,1.508572,0.2352933,-0.401726,1.441196,0.08989668,-0.004460734,1.638497,0.08817627,-0.3354996,1.61701,-0.08864365,0.1807648,1.650285,0.003360134,-0.3278964,1.584281,-0.1313336,-0.08618381,1.653126,0.297449,-0.09250762,1.590927,NA,NA,NotTracked,Unknown,
