ALX,ALY,ALZ,ARX,ARY,ARZ,EMG0L,EMG1L,EMG2L,EMG3L,EMG4L,EMG5L,EMG6L,EMG7L,EMG0R,EMG1R,EMG2R,EMG3R,EMG4R,EMG5R,EMG6R,EMG7R,GLX,GLY,GLZ,GRX,GRY,GRZ,ORL,OPL,OYL,ORR,OPR,OYR,LHNX,LHNY,LHNZ,RHNX,RHNY,RHNZ,HX,HY,HZ,LTX,LTY,LTZ,RTX,RTY,RTZ,SpineMidX,SpineMidY,SpineMidZ,SpineBaseX,SpineBaseY,SpineBaseZ,ShoulderLeftX,ShoulderLeftY,ShoulderLeftZ,ShoulderRightX,ShoulderRightY,ShoulderRightZ,ElbowLeftX,ElbowLeftY,ElbowLeftZ,ElbowRightX,ElbowRightY,ElbowRightZ,Myo_Pose_left,Myo_Pose_Right,Kinect_pose_left,Kinect_pose_right
-0.9399414,-0.2495117,-0.2783203,-0.940918,0.3481445,-0.05078125,-2,-1,-1,7,-1,-2,-2,0,-1,-3,-2,-3,-1,-2,-2,0,0.875,0.875,0.875,1,1,1,1.249099,6.931597,8.83447,7.727409,6.941213,7.255059,-0.05595145,-0.4163805,1.60564,0.327714,-0.4166214,1.532469,0.14815,0.4635047,1.711828,-0.0135145,-0.4058849,1.561962,0.371522,-0.4322431,1.53014,0.1482623,-0.01306328,1.688443,0.1488974,-0.3454802,1.6631,-0.03426058,0.1667508,1.693167,0.06492664,-0.3378803,1.633342,-0.06514212,-0.09042235,1.694148,0.3547101,-0.09777723,1.648304,NA,NA,NotTracked,NotTracked,
-0.9443359,-0.2504883,-0.2749023,-0.9326172,0.3276367,-0.04736328,-1,-2,-2,-1,-1,0,-1,0,-1,0,-2,-2,-1,-2,-1,0,2,2,2,0.8125,0.8125,0.8125,1.2579,6.93147,8.839652,7.727341,6.941563,7.25655,-0.05558936,-0.4164459,1.605207,0.3275059,-0.4167343,1.532329,0.1481878,0.4635193,1.711655,-0.01452354,-0.3966473,1.563713,0.3710392,-0.4276478,1.529872,0.1482064,-0.01312083,1.688313,0.1488272,-0.3455314,1.662969,-0.03458853,0.1667051,1.693851,0.06487005,-0.3379243,1.633214,-0.06512854,-0.09037163,1.694122,0.3547609,-0.0977781,1.648275,NA,NA,NotTracked,NotTracked,
-0.9335938,-0.2563477,-0.2705078,-0.9414063,0.3427734,-0.04882813,-2,-1,-1,-3,-1,0,-3,-3,-1,-1,-1,-2,-1,-1,-1,0,1,1,1,-0.75,-0.75,-0.75,1.255529,6.932017,8.836613,7.728372,6.941638,7.256455,-0.05584579,-0.4154589,1.604124,0.3276564,-0.4158641,1.531505,0.1482431,0.4635759,1.711499,-0.01365866,-0.4047414,1.561126,0.3711627,-0.428298,1.530116,0.1481582,-0.01313365,1.688158,0.1487948,-0.3456188,1.662797,-0.0346534,0.1666036,1.694106,0.06483827,-0.338012,1.633069,-0.06515285,-0.09046565,1.693933,0.3547548,-0.09762654,1.648018,NA,NA,NotTracked,NotTracked,
-0.9394531,-0.2524414,-0.2724609,-0.9389648,0.3388672,-0.05175781,1,2,-2,-2,-1,-1,-1,-1,-2,-2,-2,0,-1,0,0,-1,1.125,1.125,1.125,-0.3125,-0.3125,-0.3125,1.2609,6.930638,8.83963,7.726665,6.941817,7.255597,-0.05535076,-0.4163195,1.603472,0.3277239,-0.4162442,1.531107,0.1483614,0.463613,1.711138,-0.01417384,-0.4030102,1.561818,0.3714656,-0.4277337,1.531077,0.1481492,-0.01311744,1.688053,0.148783,-0.3456141,1.662672,-0.0347546,0.166621,1.694323,0.0648408,-0.338,1.632992,-0.06520679,-0.09042443,1.693887,0.3548034,-0.09755538,1.647917,NA,NA,NotTracked,NotTracked,
-0.9404297,-0.2548828,-0.2753906,-0.9355469,0.3388672,-0.04980469,0,-2,-1,2,-2,-1,-2,-1,-1,0,0,-2,-1,-1,-2,-1,2.375,2.375,2.375,-1.8125,-1.8125,-1.8125,1.26622,6.930058,8.843407,7.725701,6.941913,7.256469,-0.05594956,-0.4152619,1.604788,0.3276545,-0.4162758,1.531525,0.1483973,0.4636944,1.71101,-0.01465187,-0.4166649,1.559895,0.3711729,-0.4255353,1.531178,0.1482061,-0.01310329,1.687964,0.1487977,-0.3456234,1.662631,-0.03422028,0.1665895,1.692919,0.06485714,-0.3380072,1.632959,-0.06520081,-0.09039535,1.693896,0.3548658,-0.09732533,1.647834,NA,NA,NotTracked,NotTracked,
-0.9404297,-0.253418,-0.2744141,-0.9428711,0.3452148,-0.046875,0,-1,0,-1,1,1,0,-1,-3,0,-3,-2,0,-1,-1,-1,2,2,2,-0.6875,-0.6875,-0.6875,1.272022,6.929042,8.844386,7.725646,6.941785,7.256552,-0.05601408,-0.4158598,1.604102,0.3275295,-0.4158899,1.530607,0.1484143,0.4636716,1.710893,-0.01438901,-0.4055572,1.561562,0.369794,-0.4260686,1.527676,0.1482079,-0.01309882,1.687839,0.1488125,-0.3456526,1.662505,-0.03380367,0.1665941,1.692194,0.06485439,-0.3380527,1.632881,-0.06519066,-0.0905106,1.693911,0.3548677,-0.09734115,1.647782,NA,NA,NotTracked,NotTracked,
-0.9399414,-0.2490234,-0.2685547,-0.9414063,0.34375,-0.05126953,0,-1,-2,-3,0,-3,-3,-3,2,2,0,-2,-1,-1,-1,-1,1,1,1,-0.3125,-0.3125,-0.3125,1.277559,6.928712,8.848759,7.725646,6.941785,7.256552,-0.05556133,-0.4161969,1.604327,0.3275148,-0.4166539,1.531268,0.1485004,0.463677,1.71076,-0.0142512,-0.4041401,1.561881,0.3713458,-0.431491,1.529689,0.1482129,-0.01312785,1.687736,0.1487983,-0.3456818,1.66241,-0.03421452,0.1665336,1.692914,0.0648538,-0.3380798,1.632778,-0.0651883,-0.09037447,1.693881,0.3548954,-0.09745464,1.647613,NA,NA,NotTracked,NotTracked,
-0.9399414,-0.2490234,-0.2685547,-0.9360352,0.3408203,-0.05126953,-1,-1,0,3,-1,-1,-3,-2,-1,-2,0,-2,-1,0,-1,-2,1,1,1,-0.375,-0.375,-0.375,1.277559,6.928712,8.848759,7.725123,6.941943,7.256601,-0.05569298,-0.4161119,1.604134,0.3273695,-0.4161401,1.530765,0.1485517,0.4636548,1.710557,-0.01431028,-0.3969797,1.562721,0.3711408,-0.431008,1.528945,0.1482196,-0.01316426,1.687566,0.148829,-0.3457245,1.662158,-0.03400913,0.1665656,1.692493,0.06485992,-0.3381114,1.632452,-0.06520712,-0.09024176,1.693714,0.3548658,-0.09760038,1.647415,NA,NA,NotTracked,NotTracked,
-0.9423828,-0.2592773,-0.2744141,-0.9458008,0.355957,-0.05566406,-1,1,-1,-1,-2,0,-2,-2,-1,0,-3,1,0,0,-1,-2,0.625,0.625,0.625,-0.875,-0.875,-0.875,1.279406,6.927702,8.849811,7.725211,6.941676,7.256826,-0.05518943,-0.4161959,1.602628,0.3265416,-0.4157764,1.528507,0.1486236,0.4636694,1.710434,-0.01422233,-0.4036497,1.560872,0.3709548,-0.427558,1.529864,0.1482097,-0.01315688,1.687408,0.1487459,-0.3457069,1.662001,-0.03430576,0.1664603,1.693246,0.06477469,-0.3380846,1.632273,-0.06527156,-0.09061554,1.693524,0.3549012,-0.09778748,1.647473,NA,NA,NotTracked,NotTracked,
-1.134766,-0.5283203,-0.4316406,-0.9213867,0.3168945,-0.07177734,27,-3,-1,-2,-2,-2,-25,-8,-1,-1,-3,-1,-1,0,0,0,-43.5625,-43.5625,-43.5625,-7.625,-7.625,-7.625,1.315168,6.849035,8.995916,7.725859,6.942864,7.266532,-0.05552876,-0.4167117,1.604034,0.3151958,-0.4031211,1.510412,0.1486737,0.4636797,1.710339,-0.01410935,-0.4032201,1.560874,0.3573852,-0.4313323,1.500692,0.1481396,-0.01313005,1.687199,0.1486277,-0.3456727,1.661891,-0.0341298,0.1663482,1.692619,0.06457464,-0.337967,1.632058,-0.06529464,-0.09062631,1.693511,0.3588229,-0.09484667,1.650472,NA,NA,NotTracked,NotTracked,
-1.214844,-0.7148438,-0.5722656,-0.934082,0.3203125,-0.05029297,15,-4,-5,-2,2,-2,-2,10,0,0,-2,0,-1,-1,-2,-1,7.375,7.375,7.375,16.875,16.875,16.875,1.693141,6.581015,9.387662,7.736103,6.951089,7.264433,-0.05634609,-0.4082169,1.605313,0.2691444,-0.3146915,1.477179,0.1491517,0.4638394,1.709377,-0.01486465,-0.3895911,1.562634,0.3359354,-0.2342658,1.411,0.147144,-0.01298474,1.686468,0.1448462,-0.3450383,1.661385,-0.03428524,0.1664349,1.692792,0.05964635,-0.336271,1.631159,-0.06531166,-0.09052056,1.693439,0.372785,-0.08251212,1.657204,NA,NA,NotTracked,Unknown,
-0.6904297,-1.718262,-0.418457,-0.9194336,0.3681641,-0.02734375,-9,-11,-8,41,-39,-14,-11,-41,0,-2,0,-2,0,-1,-1,-1,45.3125,45.3125,45.3125,26.5,26.5,26.5,1.872178,5.783295,9.7073,7.789268,6.960836,7.266355,-0.0569728,-0.4083913,1.608031,0.2284456,-0.1704172,1.436526,0.1500349,0.4637818,1.707522,-0.01433031,-0.3997951,1.561976,0.292498,-0.1596742,1.421333,0.1463093,-0.01287305,1.685964,0.142827,-0.3443985,1.661555,-0.03422412,0.1665039,1.69259,0.05835047,-0.3356062,1.63127,-0.06513973,-0.09036174,1.693346,0.3867862,-0.04754124,1.661146,NA,NA,NotTracked,Closed,
-0.1948242,-0.6806641,-0.2539063,-0.9477539,0.3481445,-0.04345703,5,3,33,73,39,7,0,1,0,-4,-2,0,-1,0,0,-1,83.375,83.375,83.375,11.625,11.625,11.625,2.09344,4.839939,9.873385,7.839648,6.963097,7.290496,-0.0588972,-0.4098203,1.609805,0.2203414,-0.001203725,1.455637,0.1519006,0.4636394,1.704885,-0.01570396,-0.3907703,1.565406,0.2762357,-0.02238921,1.465229,0.1464084,-0.01258421,1.685988,0.1430526,-0.3429754,1.66249,-0.03187389,0.1669816,1.688253,0.05896141,-0.3344732,1.632298,-0.06488232,-0.0904652,1.692865,0.386032,-0.03724765,1.632284,NA,NA,NotTracked,Unknown,
0.1328125,-0.4013672,-0.1733398,-0.9873047,0.3085938,-0.06542969,21,19,6,0,3,-3,-1,18,-1,-1,-2,-1,-2,-1,-1,-2,3.25,3.25,3.25,6.3125,6.3125,6.3125,2.060552,4.163581,0.05089993,7.846664,6.962358,7.28844,-0.05881132,-0.4087779,1.608144,0.2017259,0.1366061,1.49147,0.1543122,0.462485,1.70198,-0.01523785,-0.3955086,1.563547,0.206133,0.1302345,1.437372,0.1465015,-0.01282279,1.686011,0.1430965,-0.3435246,1.662588,-0.03147388,0.1673637,1.687357,0.05900272,-0.3354129,1.633012,-0.06438375,-0.09055967,1.691702,0.3818258,-0.02753391,1.608914,NA,NA,NotTracked,Lasso,
0.2915039,-0.2241211,-0.1201172,-0.9291992,0.3178711,-0.09277344,-9,-10,-4,-5,-8,-3,-1,-3,-1,-2,0,-1,-1,-1,-1,-1,-38.75,-38.75,-38.75,4.3125,4.3125,4.3125,1.6755,3.53579,0.5043163,7.802752,6.947847,7.225381,-0.05691845,-0.4051302,1.605262,0.2051251,0.1805264,1.544657,0.1553054,0.461668,1.699645,-0.01609285,-0.383507,1.565097,0.2230169,0.1707639,1.487,0.146,-0.01414155,1.684478,0.143404,-0.3456516,1.662234,-0.0312271,0.1674828,1.686478,0.05898299,-0.3378353,1.633849,-0.06375325,-0.09026976,1.689919,0.374984,-0.0210567,1.582358,NA,NA,NotTracked,Unknown,
0.4487305,-0.3896484,-0.230957,-0.9179688,0.3178711,-0.1015625,9,-9,0,-9,-4,0,-3,7,0,-2,-3,-1,-1,0,-1,-1,29.5625,29.5625,29.5625,-11.75,-11.75,-11.75,1.454018,3.393746,0.8006619,7.788832,6.933914,7.217115,-0.05647166,-0.4010677,1.602471,0.1968534,0.2101184,1.555478,0.1558378,0.4608964,1.698856,-0.01530661,-0.3727093,1.563967,0.207716,0.2151328,1.495337,0.1451624,-0.01532574,1.683632,0.1435993,-0.3467299,1.661931,-0.03154927,0.1676348,1.687748,0.0591295,-0.3390625,1.634525,-0.06355601,-0.09031542,1.689165,0.3687632,-0.008890644,1.554974,NA,NA,NotTracked,Unknown,
0.597168,-0.4418945,-0.2836914,-0.9511719,0.2841797,-0.08691406,-35,-14,4,15,10,0,2,-13,-2,-1,-1,-2,-2,-1,-1,0,-7.4375,-7.4375,-7.4375,-23.875,-23.875,-23.875,1.356251,3.384241,0.9196135,7.775499,6.927956,7.239163,-0.05806165,-0.3996547,1.603508,0.1924453,0.2190383,1.553967,0.1560347,0.4604545,1.698749,-0.0155096,-0.3858143,1.563289,0.2053308,0.2149465,1.493154,0.144689,-0.01640783,1.682746,0.143826,-0.3478585,1.661417,-0.03160702,0.1676506,1.688566,0.05924155,-0.3402854,1.635027,-0.06344837,-0.09061123,1.688847,0.3634126,-0.005708891,1.546786,NA,NA,NotTracked,Lasso,
0.7714844,-0.2773438,-0.4272461,-0.9487305,0.3271484,-0.04492188,7,-3,-5,0,1,3,10,9,-1,-2,-2,-1,-1,-1,0,-2,7.625,7.625,7.625,-8.6875,-8.6875,-8.6875,1.355097,3.42396,0.9682589,7.750951,6.932536,7.247711,-0.05763849,-0.3997314,1.605002,0.1913409,0.2206676,1.55109,0.1560092,0.4605441,1.69895,-0.01570965,-0.3811814,1.563926,0.195822,0.2316909,1.493127,0.1442302,-0.01709514,1.682205,0.1438301,-0.3485151,1.661151,-0.03242113,0.1676435,1.692463,0.05922344,-0.3411303,1.635372,-0.06357132,-0.09051967,1.689103,0.3608624,-0.003257384,1.542061,NA,NA,NotTracked,Lasso,
0.8378906,-0.5170898,-0.5317383,-0.9301758,0.3681641,-0.03173828,19,9,0,0,-1,1,14,7,-1,-3,0,1,-1,0,-1,-3,-38.125,-38.125,-38.125,-4.8125,-4.8125,-4.8125,1.262072,3.440858,1.027514,7.7438,6.94243,7.251442,-0.05737738,-0.4003045,1.607295,0.1930591,0.2225539,1.550783,0.1558222,0.4602936,1.699457,-0.01573603,-0.3791531,1.563402,0.1871688,0.2377985,1.488397,0.1439427,-0.01761081,1.681762,0.1437856,-0.3491328,1.660785,-0.03316623,0.1672788,1.694881,0.05919148,-0.3417337,1.635511,-0.06380977,-0.09021153,1.690391,0.3603574,-0.0006719149,1.537891,NA,NA,NotTracked,Lasso,
0.9360352,-0.3081055,-0.6879883,-0.9321289,0.3867188,-0.04980469,8,-10,3,8,7,8,12,11,0,0,0,-2,-2,-1,0,-2,-47.4375,-47.4375,-47.4375,-10.75,-10.75,-10.75,1.153192,3.448394,1.080196,7.749327,6.949764,7.272684,-0.05799766,-0.4022947,1.612497,0.1969421,0.2488461,1.544915,0.155181,0.4602792,1.699953,-0.01637042,-0.3819941,1.565036,0.1956309,0.2527451,1.484868,0.1437277,-0.01804216,1.681786,0.1436979,-0.349411,1.660724,-0.03343713,0.1669031,1.696736,0.05903847,-0.3421571,1.635849,-0.06405319,-0.08883505,1.693588,0.3625109,0.004610987,1.532006,NA,NA,NotTracked,Unknown,
0.9350586,-0.5688477,-0.4775391,-0.9301758,0.3837891,-0.05859375,11,8,5,3,3,3,5,3,0,0,-1,0,-2,-1,-1,-2,-65.5625,-65.5625,-65.5625,-13.5,-13.5,-13.5,1.029305,3.402963,1.085264,7.73794,6.948073,7.284235,-0.05909264,-0.4034019,1.615088,0.1990983,0.302656,1.553959,0.1535541,0.4595951,1.700389,-0.01685873,-0.406647,1.564778,0.2093878,0.2719806,1.483795,0.1438154,-0.01799153,1.681716,0.1435558,-0.3493574,1.66065,-0.03318186,0.1665761,1.698422,0.05886606,-0.3421222,1.635823,-0.06418969,-0.08816517,1.695386,0.3699051,0.014343,1.52324,NA,NA,NotTracked,Unknown,
0.9477539,-0.3217773,-0.2573242,-0.9228516,0.371582,-0.04785156,19,12,3,5,2,2,-2,10,0,-2,-1,-2,0,-2,-1,-2,-39.6875,-39.6875,-39.6875,13.5,13.5,13.5,0.9212428,3.300822,1.141566,7.722577,6.938437,7.26313,-0.05837914,-0.4034705,1.613027,0.2389652,0.3014556,1.555536,0.1522588,0.4584112,1.700245,-0.01867581,-0.3662697,1.5682,0.2347602,0.2961466,1.499721,0.1481852,-0.0128558,1.68427,0.1428185,-0.3470799,1.660443,-0.03236154,0.1666358,1.699029,0.05805432,-0.3397416,1.63531,-0.0649503,-0.08548511,1.697398,0.3812569,0.02772045,1.517436,NA,NA,NotTracked,Unknown,
0.7514648,-0.02539063,-0.2329102,-0.9248047,0.394043,-0.02441406,25,9,3,9,-6,-5,4,21,0,-2,-1,-2,0,-3,-1,-2,-98.25,-98.25,-98.25,17.1875,17.1875,17.1875,0.3703113,3.142208,1.530138,7.736425,6.932659,7.248034,-0.05866951,-0.3995037,1.613385,0.264414,0.287418,1.559691,0.1517768,0.4573844,1.700016,-0.01712644,-0.3926031,1.562733,0.253652,0.3115199,1.516212,0.151624,-0.009326291,1.686585,0.1418641,-0.3444178,1.660565,-0.03105244,0.1670242,1.699507,0.05690167,-0.3368965,1.635217,-0.06570636,-0.08273515,1.698858,0.3912882,0.03831274,1.514287,NA,NA,NotTracked,Closed,
0.7363281,-0.04296875,-0.2143555,-0.9433594,0.3461914,-0.03564453,-24,-14,-10,-10,-9,-28,-10,-19,-1,-3,-1,-2,-2,-2,0,1,-28.375,-28.375,-28.375,9.5,9.5,9.5,9.988626,3.101741,1.779769,7.757943,6.933286,7.252751,-0.06000186,-0.3988569,1.61292,0.2652206,0.2952292,1.565014,0.1517817,0.4564379,1.699435,-0.01895267,-0.3599265,1.568786,0.2549376,0.3200929,1.520791,0.1532057,-0.007617332,1.68738,0.1412904,-0.3422782,1.660455,-0.0302279,0.1672367,1.699269,0.05611864,-0.3344206,1.634642,-0.06571926,-0.08203471,1.698813,0.398931,0.04741123,1.511257,NA,NA,NotTracked,NotTracked,
0.828125,-0.01708984,-0.2773438,-0.9438477,0.3422852,-0.06396484,-5,-7,0,-7,-7,-2,2,0,-2,-1,-2,0,-2,-2,-1,0,-22.9375,-22.9375,-22.9375,4.3125,4.3125,4.3125,9.961838,3.103859,1.781332,7.766354,6.930965,7.242849,-0.06079139,-0.3982455,1.610345,0.2640192,0.2999701,1.564451,0.1520007,0.4555183,1.698998,-0.01825854,-0.3901077,1.562684,0.2591111,0.3232317,1.515614,0.1538483,-0.006954434,1.687589,0.1410986,-0.3410183,1.660267,-0.0292676,0.1674734,1.698749,0.05579879,-0.332984,1.634142,-0.06570627,-0.08154017,1.698272,0.4026735,0.0532359,1.50856,NA,NA,NotTracked,NotTracked,
0.894043,-0.004882813,-0.3022461,-0.9458008,0.3183594,-0.06298828,-4,-31,3,2,-2,-5,7,-6,-1,1,0,-2,0,0,-1,0,1.875,1.875,1.875,2.8125,2.8125,2.8125,9.983673,3.100233,1.746407,7.751127,6.928442,7.22542,-0.0608139,-0.3981373,1.60916,0.2631822,0.3001803,1.566084,0.1522812,0.4551474,1.698939,-0.018271,-0.3689099,1.566737,0.2672076,0.3207928,1.512739,0.1537572,-0.0064492,1.687313,0.1409592,-0.3398401,1.660362,-0.02874347,0.16754,1.698526,0.05561041,-0.3316686,1.633988,-0.06568196,-0.0809715,1.697731,0.4042314,0.05597465,1.508131,NA,NA,NotTracked,NotTracked,
0.9116211,-0.002929688,-0.3305664,-0.9331055,0.3256836,-0.06787109,-7,1,3,-1,-2,1,-2,-1,-2,-1,-1,-2,-2,-1,0,-1,-5.125,-5.125,-5.125,4.3125,4.3125,4.3125,9.939808,3.095032,1.776428,7.758505,6.930756,7.222953,-0.0602909,-0.3981279,1.60745,0.2637245,0.2992653,1.564109,0.1526881,0.4547759,1.698623,-0.017933,-0.3777879,1.565492,0.2596616,0.3230892,1.516104,0.1530681,-0.006454851,1.686492,0.1409022,-0.3390529,1.660337,-0.02826132,0.1680462,1.698014,0.05549635,-0.3307578,1.633748,-0.06577716,-0.08111854,1.696712,0.4052666,0.05775101,1.507717,NA,NA,NotTracked,NotTracked,
0.8862305,0.04541016,-0.3510742,-0.9301758,0.3359375,-0.07275391,-4,-1,-6,-6,5,11,13,5,-1,-1,-1,-1,-1,0,-2,0,-5.8125,-5.8125,-5.8125,4.3125,4.3125,4.3125,9.909957,3.088673,1.799781,7.782802,6.936057,7.238072,-0.05978892,-0.3976533,1.607053,0.2644832,0.3005951,1.566017,0.1531891,0.4546071,1.698447,-0.01695409,-0.3859033,1.563387,0.2661362,0.3271008,1.514727,0.1533121,-0.006147934,1.686499,0.1408212,-0.3383917,1.660301,-0.0277573,0.1684176,1.697447,0.05531809,-0.3299641,1.633511,-0.06568035,-0.08128942,1.695864,0.4053643,0.05826161,1.507584,NA,NA,NotTracked,NotTracked,
0.7797852,0.04248047,-0.3056641,-0.9321289,0.3383789,-0.06201172,-4,3,1,3,3,2,-1,-6,-1,0,0,0,0,-2,0,-1,-9.5625,-9.5625,-9.5625,2.3125,2.3125,2.3125,9.926115,3.074162,1.765677,7.796173,6.938659,7.246995,-0.05988101,-0.3978227,1.607225,0.2644799,0.3036385,1.563066,0.1541466,0.4541542,1.698279,-0.01686585,-0.3897162,1.561334,0.2462668,0.2774265,1.609707,0.1538047,-0.005995425,1.686359,0.1408378,-0.3379306,1.660123,-0.02679788,0.168653,1.696414,0.05520535,-0.3293899,1.633115,-0.06572891,-0.08102999,1.695474,0.4053907,0.05742562,1.508542,NA,NA,NotTracked,NotTracked,
0.59375,0.1049805,-0.2578125,-0.9311523,0.331543,-0.05175781,0,5,-1,1,0,-2,0,-2,-1,-1,-1,-2,0,0,-1,-1,-24.9375,-24.9375,-24.9375,-4.875,-4.875,-4.875,0.1035234,3.054664,1.539577,7.795016,6.937505,7.250607,-0.06041379,-0.3978143,1.607825,0.2623194,0.3080506,1.547204,0.1548271,0.453869,1.697915,-0.01830162,-0.3658386,1.565292,0.2415581,0.2746494,1.59275,0.1538112,-0.005760854,1.686275,0.1406827,-0.337422,1.66004,-0.02610055,0.1690479,1.69582,0.05495606,-0.3287461,1.632897,-0.06573702,-0.08002641,1.694801,0.4042107,0.04998697,1.514413,NA,NA,NotTracked,Closed,
0.5102539,0.005859375,-0.2060547,-0.9672852,0.3452148,-0.0625,-5,-3,0,4,1,1,0,0,0,-1,-1,0,-2,-1,-1,-1,-14,-14,-14,-10.25,-10.25,-10.25,0.7188433,3.091309,0.8461106,7.780294,6.936954,7.253001,-0.06001935,-0.3978279,1.607232,0.2741733,0.2797644,1.492269,0.1547,0.4545224,1.698328,-0.01766059,-0.3811839,1.563183,0.2442074,0.2703887,1.558734,0.1540477,-0.005316654,1.68681,0.1405479,-0.336993,1.660089,-0.02589775,0.1694632,1.695683,0.05471697,-0.3281094,1.632702,-0.06570503,-0.07884485,1.694241,0.3987246,0.03243578,1.527837,NA,NA,NotTracked,Unknown,
0.4848633,-0.2265625,-0.2412109,-0.9516602,0.3164063,-0.07519531,-17,-12,0,6,1,-3,-4,10,-2,-3,-1,-2,-1,-2,0,-2,-38.5625,-38.5625,-38.5625,-12.6875,-12.6875,-12.6875,1.52417,3.477065,9.876959,7.761271,6.939021,7.256393,-0.05966616,-0.3969359,1.607652,0.2846364,0.2271168,1.410944,0.1546126,0.4559335,1.699962,-0.01891091,-0.3563745,1.567227,0.2566865,0.2193312,1.4659,0.1522751,-0.006552828,1.687438,0.1405676,-0.3370845,1.660058,-0.02694025,0.1694149,1.695937,0.05472953,-0.3283029,1.63245,-0.06567538,-0.07887533,1.694207,0.3898798,0.00857221,1.549177,NA,NA,NotTracked,Lasso,
0.1816406,-0.5869141,-0.2641602,-0.8994141,0.3374023,-0.06884766,-7,3,-2,-1,-3,-5,1,-4,-1,-2,-1,-1,-2,-1,0,0,-42.875,-42.875,-42.875,-2,-2,-2,1.722874,4.047199,9.49894,7.749121,6.941767,7.252223,-0.06057432,-0.3989446,1.611035,0.303766,0.1165503,1.317332,0.1546959,0.4571112,1.701707,-0.01905331,-0.4047786,1.565,0.2533016,0.1275737,1.331667,0.149738,-0.009453204,1.687851,0.1406789,-0.3399814,1.659705,-0.02924451,0.1690399,1.696726,0.05537404,-0.3316783,1.631275,-0.06548822,-0.08313406,1.694511,0.3860012,-0.02704929,1.566313,NA,NA,NotTracked,Lasso,
-0.0234375,-1.01123,-0.1870117,-0.9423828,0.3696289,-0.04980469,-3,0,1,0,1,14,1,-11,0,-2,-1,-2,-1,-1,0,-1,11.625,11.625,11.625,-3.875,-3.875,-3.875,1.849124,4.863951,9.264422,7.748522,6.941781,7.252335,-0.06037692,-0.4022193,1.609499,0.3247999,-0.04262087,1.26813,0.1538971,0.4582655,1.704116,-0.01978391,-0.3799352,1.567729,0.3238509,-0.003997847,1.236769,0.1488893,-0.01031667,1.687859,0.1409851,-0.3408213,1.659483,-0.03105173,0.1685497,1.697098,0.05599239,-0.3328586,1.630777,-0.06556198,-0.08519892,1.694713,0.3840483,-0.02167673,1.620021,NA,NA,NotTracked,Lasso,
-0.4946289,-0.9375,-0.3071289,-0.96875,0.3803711,-0.04101563,2,-1,-4,-5,-9,-8,6,2,-2,-1,-2,0,-1,-2,-1,-1,-17.375,-17.375,-17.375,-7.0625,-7.0625,-7.0625,1.840854,5.270823,9.189883,7.74766,6.941214,7.262599,-0.06072859,-0.4023856,1.612419,0.3449486,-0.1879313,1.294052,0.1525823,0.4595941,1.706666,-0.01929355,-0.3874285,1.566905,0.3009476,-0.1529726,1.289808,0.1482869,-0.0106861,1.688017,0.1412141,-0.3410919,1.659525,-0.03259428,0.1678139,1.697796,0.05638603,-0.3332507,1.630696,-0.06570685,-0.08679534,1.695261,0.3773049,-0.04917455,1.624727,NA,NA,NotTracked,Unknown,
-1.015137,-1.262695,-0.4106445,-0.9633789,0.3432617,-0.0390625,2,-12,2,0,2,11,-7,2,-2,-2,0,1,-2,-1,-1,-1,-54.0625,-54.0625,-54.0625,-7.25,-7.25,-7.25,1.722503,5.97683,9.087636,7.739892,6.944144,7.274665,-0.05942123,-0.4055592,1.611032,0.3436079,-0.2937068,1.361598,0.1513452,0.4606097,1.708185,-0.01790906,-0.3881149,1.566721,0.3097503,-0.2697986,1.34388,0.147988,-0.01091598,1.688056,0.1418643,-0.3417693,1.659694,-0.03387713,0.1674767,1.698325,0.05731653,-0.3341398,1.630721,-0.06562419,-0.08719071,1.695489,0.3752008,-0.06181949,1.626918,NA,NA,NotTracked,Unknown,
-1.019043,-0.8413086,-0.5180664,-0.940918,0.293457,-0.05517578,-7,0,-11,-3,0,-6,0,-4,-1,-1,-2,-1,-1,-2,-2,-1,-55.9375,-55.9375,-55.9375,-8.6875,-8.6875,-8.6875,1.635742,6.498957,9.057363,7.747351,6.951464,7.307253,-0.05876079,-0.4056285,1.611041,0.3343239,-0.3485504,1.442567,0.1507607,0.4613969,1.708633,-0.01721848,-0.397688,1.564909,0.2905551,-0.346403,1.432312,0.1479491,-0.01109836,1.687891,0.1431907,-0.3428097,1.659845,-0.03438991,0.1674982,1.698513,0.05877085,-0.3350845,1.630454,-0.06541412,-0.08789898,1.695929,0.3704056,-0.08486415,1.637388,NA,NA,NotTracked,Unknown,
-1.009277,-0.8383789,-0.5302734,-0.9199219,0.3691406,-0.02587891,-3,-3,0,2,2,4,3,-1,-2,-1,0,1,-1,-1,-1,-1,-91.5625,-91.5625,-91.5625,15.75,15.75,15.75,1.590099,6.604105,9.063614,7.762604,6.961423,7.306278,-0.05824643,-0.4096723,1.61084,0.3099336,-0.3905688,1.51789,0.1505269,0.4619153,1.708506,-0.01578464,-0.4133867,1.563667,0.2656057,-0.3931327,1.48775,0.1477964,-0.0112175,1.686873,0.1435282,-0.3428997,1.65958,-0.0335443,0.1677022,1.694968,0.05913816,-0.3351536,1.63009,-0.06541737,-0.08801414,1.695981,0.366684,-0.08833866,1.645595,NA,NA,NotTracked,Unknown,
-0.9682617,-0.890625,-0.8222656,-0.9487305,0.371582,-0.04882813,-15,12,4,1,5,0,2,-3,3,2,-2,-1,-1,0,-2,1,181.875,181.875,181.875,12.6875,12.6875,12.6875,1.474847,6.946427,8.903515,7.799516,6.968026,7.320804,-0.05897514,-0.4140352,1.612252,0.3164673,-0.3862574,1.548447,0.1506922,0.4623125,1.70805,-0.01777577,-0.3919131,1.567197,0.2732215,-0.3576795,1.530203,0.1481113,-0.01135151,1.68619,0.1444017,-0.3430908,1.659636,-0.0335594,0.1676211,1.694583,0.06010067,-0.335389,1.63019,-0.06530727,-0.08840654,1.695695,0.3643263,-0.08751228,1.6516,NA,NA,NotTracked,NotTracked,
-0.9306641,-0.2651367,-0.8051758,-0.9306641,0.3276367,-0.08447266,12,8,-3,-1,-3,-3,-3,1,-2,-1,-1,-2,-2,-2,-2,-3,-102.3125,-102.3125,-102.3125,14.5625,14.5625,14.5625,1.422333,6.884149,8.928679,7.819318,6.973271,7.318064,-0.05838149,-0.4141069,1.610794,0.3243291,-0.4034813,1.534873,0.1517478,0.4628663,1.706459,-0.01717404,-0.3985457,1.56533,0.2790773,-0.4082219,1.52052,0.1486231,-0.01118156,1.685419,0.1453467,-0.3428062,1.659762,-0.03336817,0.1678955,1.692907,0.06111107,-0.3351789,1.630133,-0.06515839,-0.08921935,1.694489,0.3635807,-0.08857931,1.654959,NA,NA,NotTracked,NotTracked,
-1.005371,-0.02246094,-0.3017578,-0.9326172,0.3496094,-0.07421875,-2,1,1,1,0,0,-2,-2,-1,0,-1,-1,0,-1,-2,-2,21.6875,21.6875,21.6875,31.125,31.125,31.125,1.189015,6.834686,8.717576,7.828486,6.970626,7.277719,-0.0582813,-0.4141172,1.608842,0.337326,-0.4118221,1.530114,0.1531447,0.4632051,1.705382,-0.01681826,-0.3983389,1.565018,0.290263,-0.4116676,1.5125,0.1493071,-0.01143551,1.684919,0.1467189,-0.3434428,1.660161,-0.03270255,0.1679244,1.689942,0.06241331,-0.3356625,1.63016,-0.06478841,-0.09008766,1.692288,0.3647925,-0.09104664,1.655725,NA,NA,NotTracked,NotTracked,
-0.9980469,-0.2314453,-0.140625,-0.9467773,0.3325195,-0.08789063,0,-2,-1,-2,0,-1,1,1,-2,-1,-2,-2,-1,0,-2,0,-73.0625,-73.0625,-73.0625,19.4375,19.4375,19.4375,1.024176,6.791592,8.697827,7.856884,6.964738,7.261618,-0.05792607,-0.4127014,1.605897,0.3516185,-0.4164429,1.525266,0.1550122,0.4636709,1.703978,-0.01615764,-0.3928824,1.565227,0.3024689,-0.4234933,1.514077,0.150443,-0.01170518,1.684296,0.1490913,-0.3440289,1.660775,-0.03098546,0.1685894,1.6854,0.06484999,-0.3361852,1.629925,-0.06437497,-0.09096135,1.68821,0.3664449,-0.09661013,1.654567,NA,NA,NotTracked,NotTracked,
-0.9501953,-0.3427734,-0.2143555,-0.9541016,0.3061523,-0.0703125,0,1,-2,-2,0,-1,0,-2,-1,1,0,-1,-1,-1,0,0,-1.0625,-1.0625,-1.0625,-11.1875,-11.1875,-11.1875,0.9509635,6.806657,8.662608,7.841965,6.94642,7.251627,-0.05803242,-0.4131339,1.598601,0.3595281,-0.4214296,1.521406,0.1566133,0.4642043,1.702983,-0.01669059,-0.3966677,1.564745,0.3116375,-0.4217539,1.509943,0.1509995,-0.01171951,1.68399,0.1502648,-0.3443323,1.661304,-0.03034357,0.1689229,1.683334,0.06594392,-0.3364054,1.629964,-0.06476261,-0.09069611,1.68453,0.366993,-0.09749072,1.653286,NA,NA,NotTracked,NotTracked,
-0.972168,-0.1914063,-0.2333984,-0.9458008,0.2573242,-0.05664063,-4,-2,-1,0,1,1,1,-2,-2,-1,-2,-2,-1,0,-3,-2,17.8125,17.8125,17.8125,-7.125,-7.125,-7.125,0.9710056,6.848597,8.620691,7.784802,6.932421,7.211312,-0.05664981,-0.4121531,1.591057,0.3579507,-0.4242161,1.522178,0.1578676,0.4645521,1.701951,-0.01274936,-0.3981593,1.557738,0.3101667,-0.423845,1.507868,0.151643,-0.0117636,1.683672,0.151382,-0.3445419,1.66169,-0.03000951,0.1692235,1.682252,0.06705939,-0.3365641,1.629989,-0.0647084,-0.09063788,1.682327,0.3670763,-0.09886854,1.651843,NA,NA,NotTracked,Unknown,
-0.9609375,-0.2011719,-0.2368164,-0.9282227,0.3007813,-0.05761719,-2,0,1,-1,-2,-1,-2,-1,0,-2,0,-1,-1,-3,-2,-2,-6.4375,-6.4375,-6.4375,2,2,2,1.022114,6.879276,8.672287,7.764023,6.926433,7.1868,-0.05587797,-0.4116124,1.587708,0.3516577,-0.4238558,1.527688,0.1585215,0.4647001,1.701302,-0.01317212,-0.4006992,1.55508,0.3056906,-0.4185311,1.511035,0.1522242,-0.01179482,1.683302,0.1526304,-0.3446035,1.661813,-0.02985059,0.169615,1.681783,0.06842839,-0.3366616,1.629786,-0.06462272,-0.09038215,1.680624,0.3660893,-0.09976332,1.651833,NA,NA,NotTracked,Unknown,
