ALX,ALY,ALZ,ARX,ARY,ARZ,EMG0L,EMG1L,EMG2L,EMG3L,EMG4L,EMG5L,EMG6L,EMG7L,EMG0R,EMG1R,EMG2R,EMG3R,EMG4R,EMG5R,EMG6R,EMG7R,GLX,GLY,GLZ,GRX,GRY,GRZ,ORL,OPL,OYL,ORR,OPR,OYR,LHNX,LHNY,LHNZ,RHNX,RHNY,RHNZ,HX,HY,HZ,LTX,LTY,LTZ,RTX,RTY,RTZ,SpineMidX,SpineMidY,SpineMidZ,SpineBaseX,SpineBaseY,SpineBaseZ,ShoulderLeftX,ShoulderLeftY,ShoulderLeftZ,ShoulderRightX,ShoulderRightY,ShoulderRightZ,ElbowLeftX,ElbowLeftY,ElbowLeftZ,ElbowRightX,ElbowRightY,ElbowRightZ,Myo_Pose_left,Myo_Pose_Right,Kinect_pose_left,Kinect_pose_right
-0.9682617,-0.3198242,-0.2666016,-0.9487305,0.3603516,-0.07568359,-1,1,0,-3,0,-1,0,1,0,0,0,-1,0,0,0,-2,26.8125,26.8125,26.8125,6,6,6,1.325515,6.937524,0.7572669,7.658805,6.894938,6.933909,-0.07146171,-0.4003628,1.520666,0.3043551,-0.4215006,1.451086,0.1205347,0.4750249,1.626758,-0.03064364,-0.4079217,1.4812,0.3435473,-0.425106,1.440684,0.1256574,-0.003607595,1.611801,0.1266397,-0.337152,1.590309,-0.05648327,0.1769895,1.631884,0.04261402,-0.3296553,1.561102,-0.08768029,-0.09150958,1.625709,0.3315552,-0.0864952,1.561469,NA,NA,NotTracked,NotTracked,
-0.9604492,-0.2631836,-0.2724609,-0.9003906,0.3637695,-0.07568359,-1,0,-1,-1,0,-1,-1,-2,-1,-1,-1,-3,-2,-1,-1,-2,39.1875,39.1875,39.1875,-2.0625,-2.0625,-2.0625,1.360248,6.95632,0.6995227,7.664577,6.894816,6.937233,-0.07049007,-0.398154,1.522361,0.3047317,-0.4216838,1.455743,0.121089,0.4748791,1.626755,-0.1087676,-0.408199,1.5372,0.3468811,-0.4206357,1.45,0.1261976,-0.003842926,1.612208,0.1272695,-0.3374534,1.591011,-0.05625797,0.1769339,1.631867,0.04313605,-0.3298687,1.561626,-0.08693992,-0.09097646,1.625633,0.3323365,-0.08775936,1.563474,NA,NA,NotTracked,NotTracked,
-0.925293,-0.25,-0.2739258,-0.9233398,0.359375,-0.03613281,-2,-1,-3,-1,0,-1,0,1,1,-2,-2,-2,-1,0,0,-1,8.75,8.75,8.75,0.8125,0.8125,0.8125,1.353943,6.961867,0.6604457,7.666134,6.892001,6.938089,-0.07146119,-0.3914657,1.526852,0.3052653,-0.4205448,1.456783,0.1215271,0.4746349,1.627055,-0.1093619,-0.4041378,1.539088,0.3477396,-0.4242972,1.451833,0.12659,-0.003963775,1.612686,0.1278208,-0.3375858,1.591623,-0.05600918,0.1769201,1.631953,0.04359823,-0.3300331,1.562083,-0.08673687,-0.09119751,1.625766,0.3325723,-0.08788567,1.565364,NA,NA,NotTracked,NotTracked,
-0.9326172,-0.2700195,-0.2734375,-0.9404297,0.3730469,-0.009277344,0,-2,0,-1,0,-1,0,-3,-2,-2,0,-1,-2,-2,-1,-2,-18.6875,-18.6875,-18.6875,-3.125,-3.125,-3.125,1.339393,6.95366,0.6662083,7.659609,6.891801,6.934287,-0.07192188,-0.3955608,1.52615,0.3049698,-0.4213191,1.457272,0.1218942,0.4744541,1.627575,-0.1141493,-0.4267373,1.5402,0.3458544,-0.4262959,1.448097,0.1269417,-0.004249101,1.613274,0.1281554,-0.3378968,1.592302,-0.05576663,0.1766647,1.632344,0.04391385,-0.3303257,1.562685,-0.08646988,-0.09117176,1.62593,0.3329135,-0.0884687,1.566925,NA,NA,NotTracked,NotTracked,
-0.9472656,-0.2763672,-0.2470703,-0.9277344,0.3789063,-0.02246094,0,-2,0,-1,-2,-1,-2,-1,-1,1,-1,-2,-3,0,-1,0,-15.625,-15.625,-15.625,-6.3125,-6.3125,-6.3125,1.331221,6.946331,0.6904426,7.64598,6.89503,6.934152,-0.07280137,-0.3858109,1.531638,0.3056363,-0.421355,1.457327,0.1221783,0.4743326,1.628455,-0.1114969,-0.3797207,1.549143,0.3476117,-0.420579,1.452376,0.1273245,-0.0044782,1.613986,0.1287063,-0.3380481,1.593116,-0.05555839,0.1763076,1.633109,0.04452126,-0.3305459,1.563539,-0.0860443,-0.09109372,1.627067,0.3331211,-0.08830099,1.567982,NA,NA,NotTracked,NotTracked,
-0.9462891,-0.265625,-0.2578125,-0.9272461,0.3813477,-0.03076172,-1,-1,0,-2,-1,-1,0,-1,-1,-1,1,0,-2,-1,0,0,-12.6875,-12.6875,-12.6875,-5.4375,-5.4375,-5.4375,1.306543,6.942106,0.7014128,7.633357,6.896501,6.932202,-0.07125975,-0.3979179,1.527809,0.3049648,-0.4209709,1.456671,0.1223282,0.4740994,1.629008,-0.1073004,-0.4194987,1.532695,0.3459767,-0.4316959,1.449926,0.127499,-0.004659059,1.614512,0.1289624,-0.3381858,1.593643,-0.05547522,0.1762373,1.633873,0.04476516,-0.3306825,1.564067,-0.08556941,-0.09117881,1.628225,0.3331718,-0.08809925,1.568441,NA,NA,NotTracked,NotTracked,
-0.9404297,-0.2509766,-0.2758789,-0.9179688,0.3833008,-0.046875,0,-3,-2,-1,-1,-2,0,0,0,-1,0,-1,0,-1,-2,-1,-7.75,-7.75,-7.75,-7.5625,-7.5625,-7.5625,1.29829,6.93952,0.7073673,7.625659,6.895549,6.935786,-0.06922515,-0.4014809,1.527279,0.3047336,-0.4206617,1.456232,0.1223811,0.4742011,1.629788,-0.1079354,-0.4247723,1.528286,0.3474242,-0.4288413,1.452378,0.1277874,-0.004689215,1.615216,0.1293468,-0.3381985,1.594415,-0.05547038,0.1761843,1.634843,0.04522055,-0.3307801,1.565017,-0.08498652,-0.09127457,1.629422,0.3332153,-0.08805113,1.568662,NA,NA,NotTracked,NotTracked,
-0.9458008,-0.2509766,-0.2563477,-0.9477539,0.4003906,-0.02832031,-4,2,-1,0,-1,4,3,-3,-1,-3,-2,-1,-2,0,-1,-2,-7.3125,-7.3125,-7.3125,-1.5625,-1.5625,-1.5625,1.289546,6.935359,0.7142062,7.625101,6.892671,6.942267,-0.07109223,-0.3984953,1.530819,0.3042674,-0.4204633,1.455554,0.1221761,0.4741218,1.630551,-0.1091027,-0.4153545,1.537104,0.346546,-0.4275631,1.450297,0.1279053,-0.004649917,1.616197,0.1295419,-0.3381505,1.59519,-0.05562156,0.1759802,1.636431,0.04544725,-0.3308198,1.565977,-0.08431248,-0.09075324,1.630764,0.3332307,-0.08815372,1.568936,NA,NA,NotTracked,NotTracked,
-1.147461,-0.8598633,-0.5292969,-0.9541016,0.3945313,-0.02832031,-11,-4,1,1,-4,-13,-15,-4,0,-3,-1,-2,-1,0,-1,-1,72.125,72.125,72.125,-7.6875,-7.6875,-7.6875,1.459906,6.836188,0.8550223,7.619869,6.890113,6.945376,-0.07030115,-0.3936475,1.531624,0.2981421,-0.3984935,1.436078,0.1220934,0.4740026,1.631145,-0.1095288,-0.3856539,1.54928,0.3377769,-0.430749,1.431889,0.127895,-0.004649894,1.616447,0.1294373,-0.3381106,1.595434,-0.05565988,0.1758195,1.63755,0.0453178,-0.3307535,1.56627,-0.08420852,-0.0906978,1.631514,0.3350117,-0.0867791,1.57329,NA,NA,NotTracked,Unknown,
-1.1875,-0.15625,-0.7294922,-0.9736328,0.3681641,-0.04882813,-1,-33,2,-3,2,-14,-3,4,-2,-2,0,0,-1,-2,-1,-2,89.75,89.75,89.75,-2.4375,-2.4375,-2.4375,1.74468,6.655617,1.076394,7.613562,6.891365,6.949134,-0.07081655,-0.3988928,1.529927,0.2564963,-0.2903118,1.383022,0.1223094,0.4735186,1.631173,-0.1122169,-0.3899576,1.555875,0.3110896,-0.241326,1.367878,0.1271797,-0.00461495,1.616799,0.1255783,-0.3371648,1.596202,-0.0555574,0.1759582,1.638171,0.04085704,-0.3292611,1.567028,-0.08404443,-0.08958302,1.63267,0.3466822,-0.06918627,1.59182,NA,NA,NotTracked,Closed,
-0.9262695,-2.342773,-0.6777344,-0.840332,0.3696289,-0.01220703,23,110,-9,-3,50,56,15,0,-4,-3,-1,-1,-2,-1,-1,0,67.875,67.875,67.875,30.3125,30.3125,30.3125,1.955539,5.719572,1.319563,7.639071,6.891103,6.936823,-0.07122955,-0.3940446,1.53246,0.2490342,-0.07907306,1.299515,0.1242512,0.4718817,1.629286,-0.1101377,-0.4045571,1.538947,0.2573864,-0.1030487,1.237,0.127125,-0.004405618,1.617444,0.1244503,-0.336098,1.59719,-0.05513795,0.1765721,1.639044,0.03996659,-0.3285657,1.567911,-0.08407642,-0.08891114,1.633829,0.3730079,-0.01340219,1.596972,NA,NA,NotTracked,Unknown,
-0.375,-0.3647461,-0.3720703,-0.8549805,0.4291992,0.001464844,-27,-107,11,0,-4,10,2,-8,-1,-1,0,-1,0,0,-2,-2,46.625,46.625,46.625,28,28,28,2.22733,4.463,1.34871,7.67274,6.884031,6.917432,-0.07221616,-0.3911509,1.534611,0.2525409,0.1688168,1.324464,0.1300062,0.4673473,1.623464,-0.1152649,-0.4161844,1.547278,0.2455621,0.1358559,1.286182,0.1275597,-0.004860782,1.618718,0.1245474,-0.3358313,1.598055,-0.05351539,0.1775541,1.638921,0.0399977,-0.3284623,1.568763,-0.0843807,-0.08814156,1.634225,0.3657722,-0.03336022,1.52696,NA,NA,NotTracked,Unknown,
0.2880859,-0.7460938,-0.09082031,-0.9711914,0.3984375,-0.03173828,-24,21,9,23,-6,0,-3,-6,-1,-2,-3,-1,-2,-1,-2,0,-151.9375,-151.9375,-151.9375,4.625,4.625,4.625,1.701727,3.369234,1.724134,7.691759,6.879744,6.916779,-0.07323964,-0.3902743,1.532569,0.2711582,0.2747022,1.426121,0.133972,0.4627108,1.619839,-0.114445,-0.4081529,1.55087,0.2804009,0.2715217,1.369625,0.1281801,-0.0036804,1.622324,0.1235129,-0.3324906,1.600054,-0.05010832,0.1786875,1.63875,0.038079,-0.3247209,1.571182,-0.08462809,-0.08270429,1.634152,0.3876103,0.01707048,1.505003,NA,NA,NotTracked,Lasso,
0.5043945,0.08251953,0.1337891,-0.9472656,0.3325195,-0.05419922,-17,3,1,12,8,-1,-9,-3,1,0,-1,0,-3,-1,-1,-2,-34.625,-34.625,-34.625,3.5625,3.5625,3.5625,0.5847633,3.023968,2.810507,7.672061,6.869765,6.886478,-0.07319659,-0.3874306,1.532335,0.2774046,0.3067203,1.468827,0.1395674,0.4582734,1.617967,-0.1135226,-0.4034749,1.547407,0.2459555,0.2876115,1.516,0.1292441,-0.002128985,1.624583,0.1228788,-0.3295554,1.601085,-0.04589673,0.1799156,1.638859,0.03688476,-0.3210607,1.571765,-0.08468172,-0.07808733,1.633546,0.4146943,0.06189972,1.474026,NA,NA,NotTracked,Lasso,
0.3413086,-0.1679688,0.002929688,-0.8945313,0.3598633,-0.03808594,-3,2,-1,0,-23,-6,6,8,-1,1,0,0,-1,1,-1,-2,-114.5625,-114.5625,-114.5625,5.5625,5.5625,5.5625,9.846768,3.056486,3.428141,7.646533,6.851949,6.847449,-0.07267853,-0.3938285,1.525002,0.2703,0.3320628,1.474973,0.1422859,0.4563885,1.618211,-0.1103591,-0.4047918,1.534621,0.2562476,0.3046649,1.508676,0.1294934,-0.001923114,1.625447,0.1228401,-0.3288884,1.601179,-0.04327594,0.180171,1.639225,0.03668289,-0.3202351,1.571664,-0.0847532,-0.07781699,1.63351,0.4225472,0.1084793,1.447389,NA,NA,NotTracked,Unknown,
0.550293,-0.0234375,-0.2099609,-0.9331055,0.359375,-0.03027344,-7,-2,-1,2,5,-2,-1,13,-1,0,1,0,-1,0,-1,-2,-7.75,-7.75,-7.75,-19.6875,-19.6875,-19.6875,9.750555,3.095859,3.504107,7.606904,6.840914,6.832426,-0.0719471,-0.3926595,1.524077,0.2691364,0.340311,1.472195,0.1432978,0.455552,1.619616,-0.1112188,-0.4034301,1.541162,0.2399351,0.3251434,1.527889,0.1295622,-0.001784448,1.626288,0.1229241,-0.3283885,1.601251,-0.04174827,0.1805634,1.639818,0.03662823,-0.3196725,1.571752,-0.08489378,-0.07747359,1.633354,0.4231029,0.1211317,1.441579,NA,NA,NotTracked,Closed,
0.8544922,-0.02050781,-0.2856445,-0.949707,0.3657227,-0.02734375,10,1,6,2,4,-1,-1,0,-3,-2,-1,-3,-2,-1,-1,-1,13,13,13,1.5,1.5,1.5,9.698373,3.099693,3.561658,7.608378,6.854236,6.845415,-0.07198066,-0.3933891,1.525597,0.2664663,0.340618,1.471776,0.1433336,0.4552986,1.621138,-0.1120426,-0.4090327,1.541674,0.2544009,0.3156791,1.519533,0.129625,-0.001804052,1.626821,0.1230015,-0.3281956,1.601199,-0.04080934,0.1807045,1.640421,0.036635,-0.319587,1.571764,-0.0849654,-0.07704309,1.633699,0.4227251,0.1221169,1.440717,NA,NA,NotTracked,Unknown,
0.8613281,0.1113281,-0.3867188,-0.9135742,0.4311523,-0.03857422,0,0,-3,-7,-2,1,8,4,0,0,-1,-3,-1,-1,-2,0,12.5,12.5,12.5,-7.0625,-7.0625,-7.0625,9.64333,3.101737,3.640651,7.61773,6.863254,6.857234,-0.07027473,-0.392835,1.527947,0.2647144,0.3388151,1.473513,0.1432506,0.455051,1.623121,-0.111984,-0.3852429,1.552437,0.2555298,0.3126704,1.520522,0.1298442,-0.00182221,1.627226,0.1232652,-0.3280409,1.6011,-0.03973263,0.180505,1.641769,0.03680481,-0.3195222,1.571753,-0.08479435,-0.07688849,1.634085,0.4208564,0.1193118,1.440215,NA,NA,NotTracked,Closed,
0.8779297,0.1606445,-0.4311523,-0.9165039,0.3896484,-0.02294922,10,3,0,8,5,2,4,7,0,0,-1,-1,0,-1,-1,-3,11.0625,11.0625,11.0625,-12.0625,-12.0625,-12.0625,9.623578,3.105921,3.682923,7.606488,6.86731,6.869109,-0.0701629,-0.394965,1.530711,0.2642805,0.3381341,1.475236,0.1431291,0.454852,1.624341,-0.1104741,-0.4065826,1.545633,0.2667116,0.3067332,1.52632,0.1300412,-0.001825095,1.627739,0.123404,-0.3278924,1.601176,-0.03896188,0.1807267,1.642509,0.03688259,-0.3194089,1.571844,-0.08443833,-0.07636404,1.635227,0.4188895,0.1215704,1.437781,NA,NA,NotTracked,Closed,
0.8574219,0.09863281,-0.4042969,-1.063965,0.4580078,-0.06396484,-3,0,-1,-2,-11,10,26,-3,-24,-36,-24,-9,-5,-3,-3,-8,-12.125,-12.125,-12.125,-28.1875,-28.1875,-28.1875,9.602818,3.113949,3.683594,7.571501,6.848333,6.864597,-0.06975327,-0.3942578,1.53181,0.265986,0.3390746,1.474365,0.1432377,0.4547917,1.626009,-0.106151,-0.412175,1.53585,0.2542542,0.3120176,1.518004,0.1301906,-0.001766183,1.628526,0.1235483,-0.3276255,1.601511,-0.03784497,0.1806959,1.64437,0.03697693,-0.31912,1.572232,-0.08387782,-0.07676317,1.636877,0.4190624,0.1181774,1.43927,NA,NA,NotTracked,Closed,
0.8095703,0.05615234,-0.3808594,-1.211426,0.4135742,-0.07519531,23,6,-1,6,5,8,20,7,28,55,-2,0,0,0,1,1,-25,-25,-25,-133.8125,-133.8125,-133.8125,9.622649,3.112839,3.634127,7.364836,6.774728,6.820117,-0.06957212,-0.3852881,1.523471,0.2685849,0.3402807,1.476983,0.1433941,0.4547495,1.627267,-0.1096955,-0.3937393,1.53575,0.2584809,0.3111332,1.52332,0.1302873,-0.001729284,1.629208,0.1236205,-0.3274553,1.601787,-0.0374991,0.1806908,1.645251,0.03700683,-0.3189089,1.572645,-0.08326878,-0.07564092,1.642248,0.418824,0.1212582,1.437977,NA,NA,NotTracked,Closed,
0.7167969,0.04931641,-0.2602539,-1.301758,1.041504,0.5351563,17,9,-1,1,3,8,10,-26,-4,-54,-27,-6,-9,-4,-1,-3,-53.0625,-53.0625,-53.0625,-110.3125,-110.3125,-110.3125,9.6293,3.095422,3.546259,6.961766,6.487973,6.589814,-0.08333393,-0.3418254,1.480059,0.2751157,0.3432468,1.478213,0.1435159,0.4551617,1.628445,-0.1250031,-0.3624762,1.475875,0.2622635,0.3130455,1.514413,0.1304032,-0.001365651,1.629956,0.1239334,-0.3266442,1.602492,-0.03773822,0.1812643,1.647082,0.0371776,-0.318065,1.573568,-0.08338965,-0.06660707,1.665452,0.4230838,0.1092069,1.446903,NA,NA,NotTracked,Closed,
0.9799805,-0.05273438,-0.3325195,-1.025391,1.516113,0.5727539,-3,-1,1,0,1,4,8,-2,22,34,2,-16,-5,-4,-6,0,-9.375,-9.375,-9.375,-65.1875,-65.1875,-65.1875,9.889009,3.081009,3.222974,6.813752,5.870354,6.545077,-0.09863479,-0.2171276,1.43829,0.2810461,0.3499647,1.4817,0.1430743,0.4552764,1.629059,-0.08973029,-0.1781741,1.394167,0.2674453,0.3111893,1.521264,0.1310209,-0.000844898,1.630956,0.1264379,-0.3249091,1.603959,-0.03823592,0.1815505,1.647364,0.03907659,-0.3169226,1.574998,-0.07900675,-0.03675693,1.693581,0.4260829,0.08927581,1.461773,NA,NA,NotTracked,Closed,
1.157227,0.08837891,-0.2695313,0.2421875,0.5385742,0.1611328,0,5,2,4,7,-1,-2,-1,-2,3,-5,-17,-9,-4,-3,-5,8.3125,8.3125,8.3125,-93.5625,-93.5625,-93.5625,6.114623E-06,3.060682,3.126545,6.602349,4.815092,6.584166,-0.1110703,-0.01279942,1.412304,0.2831696,0.3648279,1.495028,0.1416113,0.4548012,1.629117,-0.08626709,0.02893323,1.4087,0.2569566,0.3289995,1.529154,0.1315186,-0.0005720367,1.631876,0.1284164,-0.3234352,1.605394,-0.03523653,0.1880505,1.659589,0.04095126,-0.3155245,1.576132,-0.06489991,-0.01743701,1.695987,0.4266063,0.08287244,1.468745,NA,NA,Closed,Open,
1.024902,0.1196289,-0.2172852,0.5737305,0.2773438,0.2558594,-2,1,-2,0,1,4,11,-3,-7,4,6,15,-6,-2,3,3,23.3125,23.3125,23.3125,64.875,64.875,64.875,9.975945,3.02125,3.163204,6.615262,4.067741,6.58272,-0.1057867,0.1552159,1.436023,0.2854091,0.3658913,1.500276,0.1389886,0.4524164,1.628312,-0.1003615,0.1813376,1.495333,0.2588082,0.3262426,1.527886,0.1328697,-0.001221595,1.634232,0.129565,-0.322811,1.606611,-0.03058586,0.1908415,1.657799,0.041905,-0.3149437,1.576793,-0.08047212,-0.02707994,1.661047,0.4261822,0.07977869,1.472019,NA,NA,Unknown,Unknown,
0.878418,0.01513672,-0.3481445,0.4316406,0.4702148,0.2719727,-3,3,2,0,1,-2,5,-22,16,7,-2,-13,-13,-11,2,16,22.0625,22.0625,22.0625,14.625,14.625,14.625,9.962553,3.017338,3.210911,6.928613,3.39655,6.415731,-0.09180354,0.2370457,1.465836,0.2851171,0.3661411,1.503906,0.1361363,0.4496313,1.627934,-0.07120214,0.2664673,1.487143,0.2552963,0.3311622,1.535264,0.1339898,-0.001571589,1.636915,0.1304645,-0.321875,1.607935,-0.02929043,0.1925719,1.660082,0.04273018,-0.3143858,1.577738,-0.1214275,-0.04323212,1.62178,0.4234913,0.0780801,1.476533,NA,NA,Unknown,Unknown,
0.8374023,0.04296875,-0.2875977,0.402832,0.2827148,0.2119141,-30,-13,-3,-3,-2,-1,-6,-27,6,2,-1,-8,-1,0,-4,0,12.125,12.125,12.125,3.4375,3.4375,3.4375,0.01860384,3.013865,3.199152,7.155396,3.1878,6.143687,-0.07440968,0.2786618,1.480024,0.2824328,0.3636972,1.500449,0.1347221,0.4479974,1.628011,-0.03283835,0.2817746,1.506118,0.2560636,0.328777,1.535587,0.1351524,-0.001427594,1.639319,0.1313056,-0.3199941,1.609657,-0.02881936,0.1926745,1.661481,0.04324318,-0.3131346,1.579156,-0.1388064,-0.01103638,1.583958,0.4201361,0.07788023,1.479612,NA,NA,Unknown,Open,
0.8154297,0.002441406,-0.2915039,0.4702148,0.203125,0.1801758,2,2,4,-1,1,0,1,-10,3,1,0,3,8,4,2,1,17.1875,17.1875,17.1875,-4.25,-4.25,-4.25,0.1908987,3.022209,3.032795,7.29877,3.145978,5.97411,-0.0624341,0.2899767,1.476035,0.2827064,0.3553754,1.48927,0.1344794,0.4469257,1.62839,-0.02663998,0.2835606,1.502834,0.2543494,0.3301793,1.533952,0.1357573,-0.0001353773,1.641513,0.1320207,-0.317596,1.611249,-0.02769722,0.1939824,1.662213,0.04366184,-0.3112638,1.580382,-0.146203,0.002083197,1.568598,0.4164546,0.07209888,1.485058,NA,NA,Unknown,Unknown,
0.6123047,-0.07617188,-0.15625,0.534668,0.3208008,0.09277344,1,-5,-2,-2,0,-2,-3,4,12,3,-3,-6,2,1,0,2,7.375,7.375,7.375,-24.9375,-24.9375,-24.9375,0.7354541,3.070844,2.489774,7.168832,3.333805,6.083378,-0.05464209,0.2834435,1.44883,0.2859987,0.334763,1.4593,0.1346447,0.4466538,1.629318,-0.01291492,0.2859409,1.48135,0.2476469,0.3314488,1.519,0.1362729,0.0007726761,1.642869,0.1324662,-0.3166015,1.612221,-0.02640888,0.1945089,1.662265,0.04397098,-0.3104009,1.581156,-0.1458991,0.004192675,1.56464,0.4111285,0.0617617,1.492051,NA,NA,Unknown,Unknown,
0.5415039,-0.2475586,-0.1928711,0.5791016,0.3881836,0.09863281,-5,-6,0,0,-1,2,10,-7,-9,3,1,3,13,7,0,-1,30.875,30.875,30.875,-24.4375,-24.4375,-24.4375,1.290827,3.250812,1.914292,6.992242,3.657573,6.246956,-0.05462043,0.2527117,1.396587,0.2947825,0.2886872,1.40665,0.1359052,0.4472561,1.631837,-0.01538144,0.2623674,1.424294,0.2617809,0.2939268,1.462577,0.1369506,0.0004737364,1.644358,0.1330498,-0.3169405,1.613056,-0.02342909,0.1938552,1.662644,0.04456893,-0.3106599,1.582016,-0.1411366,0.00302445,1.562888,0.4014437,0.03993972,1.508713,NA,NA,Unknown,Unknown,
0.5112305,-0.3852539,-0.1962891,0.5639648,0.4985352,0.07177734,-6,-2,-3,-1,0,-1,-12,-23,-15,-8,17,-8,-8,3,-2,-3,53.1875,53.1875,53.1875,-24.1875,-24.1875,-24.1875,1.71937,3.610804,1.508676,6.862989,4.120625,6.370318,-0.0747716,0.1651859,1.332291,0.3032708,0.2129623,1.332101,0.1378791,0.4479692,1.634938,-0.03978621,0.1884301,1.347824,0.2636441,0.2300593,1.374412,0.1373787,-0.001168095,1.643743,0.1349964,-0.3232211,1.613032,-0.02618633,0.1871348,1.654063,0.04732125,-0.3170184,1.582883,-0.1216703,-0.02479565,1.570763,0.3951924,-0.003758609,1.532962,NA,NA,Unknown,Unknown,
0.1743164,-0.8085938,-0.1416016,0.07617188,0.8198242,0.2700195,8,4,2,2,-1,-2,-9,4,2,13,13,6,4,3,7,5,57.6875,57.6875,57.6875,14.25,14.25,14.25,2.040076,4.31345,1.234357,6.818561,4.830716,6.480295,-0.09719585,0.04631448,1.281166,0.3128815,0.09346323,1.279182,0.140193,0.4486436,1.638816,-0.06615283,0.07488443,1.281091,0.2732624,0.1170293,1.30715,0.1395184,-0.004639252,1.645783,0.1357559,-0.3276362,1.613156,-0.0261033,0.1899662,1.665663,0.04912184,-0.3212231,1.582852,-0.1056447,-0.06618926,1.599943,0.4021377,-0.06763532,1.54064,NA,NA,Unknown,Unknown,
-0.03173828,-1.019531,-0.2910156,-0.3452148,1.158691,0.5800781,-1,-5,-7,5,-2,-4,6,7,-19,-20,-11,-5,-12,-7,-10,3,32,32,32,1.3125,1.3125,1.3125,2.106479,4.873601,1.14173,6.81144,5.321463,6.483198,-0.1071478,-0.08627588,1.287735,0.3217947,-0.04488448,1.262173,0.1426401,0.4496957,1.642416,-0.07794879,-0.04882103,1.260231,0.2698212,-0.01129006,1.258647,0.1408939,-0.005480618,1.646509,0.1365427,-0.3282863,1.613034,-0.03020156,0.187444,1.671876,0.05048996,-0.3219291,1.582778,-0.08759192,-0.05152986,1.590153,0.3585293,-0.03742166,1.613165,NA,NA,Unknown,Unknown,
-0.2792969,-1.206543,-0.2602539,-0.5424805,1.175781,0.5317383,-10,-1,1,4,5,9,-1,-2,2,7,-1,-8,-22,-1,0,-2,-47.625,-47.625,-47.625,95.4375,95.4375,95.4375,2.071539,5.22221,1.100164,6.943214,5.67531,6.476345,-0.1083674,-0.1821896,1.346702,0.331332,-0.1744926,1.294558,0.1443686,0.4511466,1.645934,-0.1054734,-0.1599632,1.295565,0.2998928,-0.1243898,1.279882,0.1421641,-0.006094051,1.647327,0.1374166,-0.3288178,1.613111,-0.03215131,0.1866162,1.674826,0.05188967,-0.3224517,1.582791,-0.1043576,-0.05316152,1.623684,0.3924846,-0.04380922,1.597319,NA,NA,Unknown,Unknown,
-0.6362305,-1.242676,-0.4023438,-0.6220703,1.160156,0.3164063,-4,-5,-3,-1,0,-3,-3,-17,-9,3,0,-3,-5,-2,7,5,-22.5625,-22.5625,-22.5625,-13.0625,-13.0625,-13.0625,1.995734,5.846289,1.039913,7.002537,5.947314,6.499391,-0.09632404,-0.2314097,1.363881,0.3275076,-0.2287488,1.309685,0.1453638,0.4523661,1.648372,-0.07561491,-0.2110315,1.323046,0.3385442,-0.2067884,1.268069,0.1427823,-0.006248761,1.647715,0.138103,-0.3292605,1.613241,-0.0328378,0.1859978,1.676215,0.05286956,-0.3228284,1.582933,-0.08526602,-0.05194834,1.638623,0.3914847,-0.07829822,1.583686,NA,NA,Lasso,Lasso,
-0.6245117,-1.302734,-0.4433594,-0.5605469,0.9912109,0.2836914,-5,-3,-3,2,5,9,-1,-13,-6,-10,1,8,12,4,-1,1,-11.4375,-11.4375,-11.4375,-32.4375,-32.4375,-32.4375,1.966788,5.975139,1.027922,6.964614,6.005943,6.531684,-0.08988041,-0.2535682,1.370905,0.3270653,-0.265357,1.331987,0.1460219,0.4533512,1.649233,-0.06195284,-0.2396526,1.3188,0.3326463,-0.2425033,1.285566,0.1434769,-0.006235065,1.647692,0.1391448,-0.32961,1.6134,-0.03323847,0.1857084,1.67693,0.05423458,-0.3231768,1.583145,-0.08253777,-0.05404617,1.641888,0.3757061,-0.06270654,1.602824,NA,NA,Lasso,Lasso,
-0.5541992,-0.9082031,-0.4047852,-0.5424805,0.8813477,0.2973633,5,-2,-3,-1,0,1,1,21,-1,-10,-6,-6,6,1,-1,-5,0.1875,0.1875,0.1875,-10.5625,-10.5625,-10.5625,1.980173,6.063356,1.024218,6.948153,5.995717,6.547184,-0.08863701,-0.2573516,1.375131,0.3251292,-0.2748044,1.340935,0.1462603,0.4542848,1.64961,-0.08831888,-0.2399441,1.330992,0.3272122,-0.2557712,1.291103,0.1439982,-0.006227271,1.647611,0.1399513,-0.3300028,1.613595,-0.03364353,0.1853461,1.677354,0.05517651,-0.3235059,1.583285,-0.08057997,-0.05525135,1.644326,0.3746806,-0.06298511,1.60541,NA,NA,Lasso,Lasso,
-0.5537109,-0.8798828,-0.3105469,-0.5449219,0.7954102,0.3017578,2,7,-2,-2,0,0,2,3,-2,3,1,-5,-7,-2,-1,3,-18.625,-18.625,-18.625,6.0625,6.0625,6.0625,1.953657,6.060778,1.036315,6.950074,5.953674,6.53709,-0.0903831,-0.254295,1.371467,0.3245941,-0.2736669,1.342288,0.1465116,0.4547663,1.649667,-0.06725536,-0.2361471,1.332125,0.3276816,-0.2553716,1.296182,0.1446969,-0.006143905,1.647524,0.1414013,-0.3304411,1.613898,-0.03372605,0.1852401,1.677454,0.0567469,-0.3240102,1.58372,-0.07930273,-0.05568819,1.646055,0.3739299,-0.06370509,1.607634,NA,NA,Lasso,Lasso,
-0.5976563,-0.7348633,-0.21875,-0.5678711,0.7026367,0.2861328,-4,3,3,-3,-4,-1,2,4,-4,-18,-6,-5,-3,-1,-3,-1,-4.875,-4.875,-4.875,5.5,5.5,5.5,1.951876,6.058617,1.047549,6.948867,5.938269,6.525706,-0.09111186,-0.2473867,1.371422,0.3246751,-0.2743868,1.339474,0.1467662,0.4555404,1.649973,-0.09094983,-0.2316716,1.322333,0.3284885,-0.2532456,1.293414,0.145468,-0.006133158,1.647577,0.1427469,-0.3307548,1.614612,-0.03379064,0.1851594,1.677497,0.05806433,-0.3243279,1.584457,-0.07904918,-0.05564997,1.64649,0.3738302,-0.06380333,1.608114,NA,NA,Lasso,Lasso,
-0.6503906,-0.668457,-0.203125,-0.6103516,0.6821289,0.2763672,-1,-1,-3,-4,-2,-2,-3,-1,-1,-5,-3,-3,-5,-2,-5,-3,-1.9375,-1.9375,-1.9375,4.375,4.375,4.375,1.956709,6.084955,1.057092,6.949679,5.952274,6.516375,-0.08982282,-0.2464241,1.373939,0.3243984,-0.2769253,1.339858,0.1470606,0.4562865,1.65032,-0.06894069,-0.2289998,1.338089,0.3307425,-0.2581208,1.297096,0.1461902,-0.005962886,1.647672,0.1442207,-0.3308917,1.615366,-0.03378162,0.1851562,1.677483,0.05955498,-0.3245177,1.585197,-0.07843088,-0.05523439,1.646613,0.3737704,-0.06384583,1.60819,NA,NA,Lasso,Lasso,
-0.6782227,-0.6220703,-0.1835938,-0.6181641,0.6318359,0.2358398,1,-2,2,0,0,0,2,-10,4,18,4,-4,-37,-18,-8,-17,-2.8125,-2.8125,-2.8125,4.9375,4.9375,4.9375,1.971927,6.140898,1.073762,6.94634,6.020883,6.508393,-0.08554406,-0.2536897,1.374255,0.321486,-0.2858966,1.34324,0.1471826,0.4572151,1.650623,-0.05727064,-0.2463434,1.321655,0.3250643,-0.2687844,1.298309,0.1469331,-0.005856526,1.64753,0.1450481,-0.3311267,1.615703,-0.03363216,0.1850148,1.676791,0.06042237,-0.3247817,1.585596,-0.07730939,-0.05511064,1.646438,0.3731169,-0.0650906,1.608065,NA,NA,Lasso,Lasso,
-0.7060547,-0.6098633,-0.2192383,-0.6655273,0.6469727,0.2382813,-5,-3,0,1,0,2,3,-4,-11,-5,-6,-3,13,5,0,-13,-19.625,-19.625,-19.625,35.0625,35.0625,35.0625,1.962835,6.214641,1.091408,6.980828,6.150634,6.495613,-0.07776748,-0.2706488,1.389454,0.3183226,-0.3023311,1.35325,0.1476107,0.4588281,1.651221,-0.04792034,-0.2651761,1.324474,0.2773588,-0.2815742,1.3242,0.1473949,-0.005649679,1.647273,0.145539,-0.331291,1.61587,-0.03320384,0.1849842,1.675045,0.06085814,-0.324899,1.585729,-0.075724,-0.05643962,1.6458,0.3726301,-0.06683393,1.607833,NA,NA,Lasso,Lasso,
-0.7138672,-0.5649414,-0.1962891,-0.7412109,0.5688477,0.1801758,0,-4,-3,-2,0,-2,4,-1,-8,-5,-3,-2,4,4,-6,-5,-28,-28,-28,90.125,90.125,90.125,1.937748,6.316163,1.107433,7.055554,6.305521,6.449497,-0.06647052,-0.2856247,1.441558,0.3244658,-0.3107974,1.393908,0.1482078,0.4613243,1.652599,-0.08781496,-0.2342685,1.443839,0.2810386,-0.2990447,1.369889,0.1478967,-0.005386541,1.64682,0.1458973,-0.3315457,1.615748,-0.03325076,0.1845267,1.673352,0.06117366,-0.3250724,1.585624,-0.07369626,-0.06047159,1.644477,0.3717166,-0.06885235,1.607792,NA,NA,Lasso,Unknown,
-0.8579102,-0.5356445,-0.2197266,-0.8891602,0.6611328,0.1118164,-1,-5,-2,1,-3,-2,0,-1,-1,0,5,13,5,2,2,-2,-60.0625,-60.0625,-60.0625,81.9375,81.9375,81.9375,1.86262,6.458921,1.118434,7.193289,6.456115,6.434941,-0.05884249,-0.317618,1.462892,0.3161539,-0.3382203,1.422238,0.1492117,0.4639103,1.654462,-0.0345877,-0.3111247,1.413833,0.2790128,-0.3271385,1.42896,0.1486344,-0.005024768,1.645592,0.1464604,-0.3320187,1.615032,-0.03305234,0.184787,1.670027,0.06169809,-0.3255046,1.58472,-0.07157049,-0.06682985,1.643143,0.370341,-0.07224802,1.607758,NA,NA,Unknown,Unknown,
-0.9321289,-0.4672852,-0.2861328,-0.9355469,0.503418,0.05224609,-2,11,-19,-2,0,0,0,-4,-2,0,-2,-8,-3,-4,0,-1,-110,-110,-110,58.0625,58.0625,58.0625,1.699661,6.644161,1.168936,7.272268,6.64849,6.389565,-0.02777797,-0.3610405,1.489902,0.3020008,-0.3692092,1.456782,0.1498471,0.4661538,1.655661,0.007807185,-0.3618338,1.442334,0.2550332,-0.356826,1.435222,0.148363,-0.004436273,1.642609,0.1473531,-0.3322139,1.612839,-0.03276042,0.1843233,1.666524,0.06237076,-0.3255771,1.582413,-0.06972566,-0.0688673,1.642904,0.3699398,-0.070916,1.607998,NA,NA,Unknown,Unknown,
