ALX,ALY,ALZ,ARX,ARY,ARZ,EMG0L,EMG1L,EMG2L,EMG3L,EMG4L,EMG5L,EMG6L,EMG7L,EMG0R,EMG1R,EMG2R,EMG3R,EMG4R,EMG5R,EMG6R,EMG7R,GLX,GLY,GLZ,GRX,GRY,GRZ,ORL,OPL,OYL,ORR,OPR,OYR,LHNX,LHNY,LHNZ,RHNX,RHNY,RHNZ,HX,HY,HZ,LTX,LTY,LTZ,RTX,RTY,RTZ,SpineMidX,SpineMidY,SpineMidZ,SpineBaseX,SpineBaseY,SpineBaseZ,ShoulderLeftX,ShoulderLeftY,ShoulderLeftZ,ShoulderRightX,ShoulderRightY,ShoulderRightZ,ElbowLeftX,ElbowLeftY,ElbowLeftZ,ElbowRightX,ElbowRightY,ElbowRightZ,Myo_Pose_left,Myo_Pose_Right,Kinect_pose_left,Kinect_pose_right
0.5664063,-0.4658203,-0.09082031,-0.9501953,0.3227539,-0.07177734,38,11,7,3,6,7,12,43,-2,-1,0,-2,-2,-2,-1,-3,4.6875,4.6875,4.6875,-4.75,-4.75,-4.75,2.160856,3.744501,2.811032,7.873668,6.944936,8.787716,-0.0876391,-0.417947,1.653784,0.1806634,0.1515696,1.588275,0.1151318,0.4641761,1.755808,-0.0457616,-0.3862115,1.604284,0.1273468,0.1119981,1.618605,0.1094291,-0.00450546,1.737289,0.1043544,-0.3277009,1.712227,-0.07462241,0.1746299,1.751891,0.01999736,-0.3212023,1.682871,-0.1018439,-0.08419033,1.746508,0.3915226,-0.01564158,1.637848,NA,NA,NotTracked,Unknown,
0.5795898,-0.6508789,-0.1274414,-0.9545898,0.3032227,-0.05859375,-2,17,18,6,-3,4,9,10,-1,-1,-1,-2,-1,0,-2,-1,-8.5,-8.5,-8.5,-15.6875,-15.6875,-15.6875,2.134562,3.745236,2.840609,7.876289,6.946513,8.806865,-0.08804932,-0.4188171,1.655482,0.1812283,0.1524852,1.589452,0.1153111,0.464057,1.756438,-0.04552034,-0.3871097,1.604618,0.141293,0.1110558,1.623677,0.109317,-0.004598372,1.737602,0.104291,-0.3277993,1.712225,-0.07489378,0.1745289,1.752064,0.01981956,-0.3214315,1.683113,-0.1017077,-0.08428331,1.74639,0.3943859,-0.01283269,1.633947,NA,NA,NotTracked,Unknown,
0.6118164,-0.6357422,-0.1064453,-0.9628906,0.2890625,-0.05566406,-11,-19,-14,-3,0,-2,-2,9,-2,-2,-1,-1,-2,-2,-1,-1,2.9375,2.9375,2.9375,-14.75,-14.75,-14.75,2.142916,3.76098,2.841278,7.873203,6.951106,8.822275,-0.08887555,-0.4161016,1.655958,0.1813359,0.1545117,1.584538,0.1153043,0.4639485,1.756628,-0.0458579,-0.391365,1.603913,0.1259393,0.1552465,1.6315,0.1093047,-0.004753838,1.737733,0.104199,-0.3279771,1.71217,-0.07518873,0.1743841,1.752229,0.01965121,-0.3217262,1.68326,-0.1017435,-0.08424678,1.746317,0.3957608,-0.01083642,1.631003,NA,NA,NotTracked,Unknown,
0.6367188,-0.684082,-0.1152344,-0.9609375,0.3076172,-0.05664063,17,10,10,3,1,-5,-10,-23,-1,-1,-1,0,0,-2,-1,-2,2.625,2.625,2.625,-8,-8,-8,2.160117,3.771206,2.826002,7.867903,6.955588,8.828492,-0.08899078,-0.4159684,1.656479,0.1782802,0.1560959,1.580538,0.1152749,0.4637965,1.757002,-0.04631118,-0.3882842,1.605194,0.1624389,0.2201978,1.6522,0.1092922,-0.004888515,1.737811,0.104129,-0.3281322,1.712119,-0.07528855,0.1743374,1.752325,0.01950826,-0.3219728,1.683419,-0.1017756,-0.08417605,1.746239,0.3962694,-0.009486504,1.628071,NA,NA,NotTracked,Unknown,
0.6352539,-0.7324219,-0.09082031,-0.9467773,0.3417969,-0.05859375,4,0,-1,-1,2,1,1,6,-1,0,-1,-1,-1,0,-1,-3,11.0625,11.0625,11.0625,-6.8125,-6.8125,-6.8125,2.190552,3.781382,2.7988,7.858649,6.958806,8.827085,-0.08863685,-0.4168057,1.657911,0.1758267,0.1556983,1.577564,0.1152704,0.4637452,1.757461,-0.04707182,-0.3974202,1.602873,0.1593401,0.2187453,1.649886,0.1092076,-0.00499562,1.73798,0.1040594,-0.3282858,1.7121,-0.07541504,0.1742389,1.752466,0.01936131,-0.3222517,1.68362,-0.1017826,-0.08420496,1.746248,0.3963588,-0.009111456,1.627172,NA,NA,NotTracked,Unknown,
0.6201172,-0.7412109,-0.09082031,-0.9433594,0.3447266,-0.06005859,30,4,3,-5,-2,-3,3,4,0,0,-1,-1,-1,-2,-2,-2,15.25,15.25,15.25,-9.6875,-9.6875,-9.6875,2.209394,3.787221,2.78507,7.852612,6.95981,8.826636,-0.08845062,-0.4165292,1.659579,0.1758091,0.1565601,1.572689,0.1152178,0.4638211,1.757766,-0.04640584,-0.3965256,1.603598,0.1476459,0.2154947,1.64525,0.1092279,-0.00505698,1.738069,0.104039,-0.3283244,1.712092,-0.07556948,0.1741249,1.752605,0.01930223,-0.3223476,1.683712,-0.1016416,-0.0841141,1.746403,0.394938,-0.008562335,1.623482,NA,NA,NotTracked,Unknown,
0.6630859,-0.7333984,-0.1196289,-0.9257813,0.3442383,-0.06738281,15,-1,-9,-6,-4,-5,-10,-57,-3,-1,-3,-1,-1,1,-1,-1,15.625,15.625,15.625,-12.875,-12.875,-12.875,2.241611,3.79768,2.767125,7.841754,6.963446,8.838731,-0.08764788,-0.416411,1.658702,0.1746401,0.1559128,1.570319,0.1152302,0.4638097,1.758015,-0.04654547,-0.3942129,1.603982,0.1553002,0.2159907,1.647492,0.1092439,-0.005092856,1.738118,0.1039783,-0.3283709,1.712042,-0.07568572,0.1740253,1.752722,0.01922529,-0.3223971,1.683765,-0.1015148,-0.08423484,1.746475,0.3943583,-0.008446476,1.62227,NA,NA,NotTracked,Unknown,
0.6455078,-0.7543945,-0.1391602,-0.9272461,0.3452148,-0.07861328,-5,-5,-1,-2,-3,0,-6,-12,-1,-2,-2,-2,-1,-4,-1,-3,8.875,8.875,8.875,-12.1875,-12.1875,-12.1875,2.259666,3.807981,2.751996,7.842106,6.964295,8.846259,-0.0864659,-0.4174286,1.660768,0.1738951,0.150819,1.570728,0.115246,0.4638883,1.758444,-0.04590299,-0.393191,1.604398,0.126994,0.1441667,1.626278,0.1092409,-0.005220423,1.738381,0.1039362,-0.3285265,1.712093,-0.07590964,0.1738657,1.752961,0.0191031,-0.322757,1.684289,-0.1014524,-0.08423657,1.74684,0.3937941,-0.008987414,1.622964,NA,NA,NotTracked,Unknown,
0.6489258,-0.7412109,-0.1069336,-0.9360352,0.3388672,-0.07910156,10,-10,-3,0,2,-1,-3,-35,1,0,-1,-1,1,1,0,0,15.625,15.625,15.625,-9.25,-9.25,-9.25,2.284952,3.820467,2.73807,7.8456,6.965788,8.861737,-0.08692445,-0.4170978,1.660599,0.1699165,0.1494213,1.567649,0.1152514,0.4638847,1.758461,-0.04640173,-0.3918285,1.604207,0.1571228,0.2090651,1.63875,0.1093433,-0.005286103,1.738394,0.1039288,-0.32857,1.712067,-0.07593571,0.1738499,1.752992,0.01908099,-0.322816,1.684325,-0.1014033,-0.08414962,1.746928,0.3923814,-0.009416427,1.621928,NA,NA,NotTracked,Unknown,
0.6806641,-0.7446289,-0.1420898,-0.9492188,0.3378906,-0.06738281,-24,3,1,0,0,2,3,16,-1,-2,-3,-1,-1,-1,-1,1,11.3125,11.3125,11.3125,-4.4375,-4.4375,-4.4375,2.293092,3.824042,2.733754,7.848997,6.965858,8.872222,-0.08764364,-0.4109517,1.663292,0.173484,0.1489158,1.567307,0.1152887,0.4638867,1.758508,-0.04689945,-0.3916603,1.604953,0.1739186,0.2113862,1.63975,0.1093929,-0.005304758,1.738446,0.10392,-0.3285787,1.712057,-0.0759564,0.1738266,1.753006,0.01906562,-0.3228218,1.684341,-0.1013466,-0.08409573,1.74708,0.3913743,-0.01005028,1.622666,NA,NA,NotTracked,Unknown,
0.6826172,-0.7680664,-0.1401367,-0.9423828,0.3271484,-0.06982422,-6,4,0,-1,0,-1,-2,-12,0,-1,-2,-4,-1,-2,-1,-1,8,8,8,1.0625,1.0625,1.0625,2.304814,3.831177,2.723766,7.849822,6.964599,8.87372,-0.08740391,-0.4150949,1.663001,0.1717499,0.1468307,1.568741,0.1153068,0.4638287,1.758538,-0.04741374,-0.388492,1.60609,0.1642845,0.2085725,1.640444,0.1094364,-0.005344696,1.738521,0.1039192,-0.3286157,1.712099,-0.07597675,0.1737742,1.753043,0.01905958,-0.3228816,1.684479,-0.1009913,-0.08438741,1.747595,0.3903728,-0.01103366,1.623594,NA,NA,NotTracked,Unknown,
0.6606445,-0.746582,-0.1074219,-0.9467773,0.3325195,-0.05566406,0,-4,0,-1,-2,2,4,-4,0,-2,-2,0,-2,0,0,-3,10.875,10.875,10.875,4.25,4.25,4.25,2.319759,3.840349,2.717719,7.848175,6.962211,8.867777,-0.08655623,-0.4177696,1.660733,0.1712023,0.1461273,1.566494,0.1153606,0.4637008,1.758643,-0.04656281,-0.3904377,1.60497,0.1718374,0.1232492,1.631619,0.1094607,-0.005388926,1.738576,0.1039077,-0.3286543,1.712093,-0.07602398,0.1737406,1.753102,0.01904597,-0.3229186,1.684492,-0.1009501,-0.08436751,1.747627,0.3895777,-0.0113752,1.623194,NA,NA,NotTracked,Unknown,
0.6757813,-0.7504883,-0.1040039,-0.9399414,0.3334961,-0.05615234,-23,0,1,-1,-1,0,-2,5,-1,-2,-1,-1,-2,-1,-1,0,8.25,8.25,8.25,4.375,4.375,4.375,2.32424,3.842756,2.716413,7.847114,6.960919,8.864284,-0.08747417,-0.4168042,1.66244,0.17266,0.1475449,1.56407,0.1154363,0.4636348,1.758806,-0.04700585,-0.3903368,1.605406,0.1715949,0.123154,1.63125,0.1094836,-0.005403022,1.73864,0.1039093,-0.328649,1.7121,-0.07605089,0.1736817,1.75316,0.01905351,-0.3229019,1.684552,-0.100943,-0.08425297,1.747673,0.3888365,-0.01199759,1.624142,NA,NA,NotTracked,Unknown,
0.6445313,-0.7636719,-0.08984375,-0.9438477,0.3237305,-0.06054688,-5,5,0,2,3,4,7,14,0,0,0,-1,-2,-2,0,-1,-7.5625,-7.5625,-7.5625,2.8125,2.8125,2.8125,2.318935,3.843807,2.71793,7.84576,6.958228,8.859298,-0.08713969,-0.417372,1.661734,0.1720815,0.1472788,1.563477,0.1155518,0.4635492,1.758893,-0.04642145,-0.3907799,1.604883,0.1706525,0.1256241,1.63157,0.1095387,-0.00547635,1.738789,0.1039154,-0.3286995,1.712147,-0.07609259,0.1736194,1.753248,0.01905626,-0.3229827,1.684682,-0.1008352,-0.08430105,1.747984,0.3889227,-0.0121959,1.624695,NA,NA,NotTracked,Unknown,
0.6557617,-0.7617188,-0.07910156,-0.9458008,0.3110352,-0.06054688,23,12,7,4,6,15,10,14,0,-1,-1,-1,-1,1,-1,-1,-29.75,-29.75,-29.75,2.625,2.625,2.625,2.281702,3.832846,2.734903,7.84478,6.957972,8.855522,-0.0872114,-0.4175673,1.661644,0.1718734,0.1474113,1.562727,0.1157652,0.4635314,1.758987,-0.04687957,-0.3921334,1.605793,0.1594592,0.205159,1.6396,0.1096659,-0.005472582,1.738903,0.1039931,-0.3287151,1.712163,-0.07609867,0.1735955,1.753286,0.01914987,-0.3230027,1.684748,-0.1007939,-0.08428692,1.748118,0.3883998,-0.01268632,1.625012,NA,NA,NotTracked,Unknown,
0.6416016,-0.7641602,-0.09765625,-0.940918,0.3139648,-0.06201172,-6,-7,-5,1,-1,-6,-6,-5,-2,-1,-1,1,-1,-1,0,-2,-30.75,-30.75,-30.75,3.625,3.625,3.625,2.224474,3.818265,2.76851,7.84602,6.95838,8.852942,-0.08708991,-0.4177644,1.661962,0.1729297,0.1464583,1.565426,0.1158597,0.4635458,1.759117,-0.04716109,-0.3885468,1.606659,0.1749726,0.2068344,1.639,0.1097006,-0.005416826,1.739029,0.104051,-0.3286798,1.712222,-0.07594435,0.1735366,1.753742,0.01923063,-0.3229543,1.684845,-0.1007153,-0.08422589,1.748187,0.3884701,-0.0127881,1.62547,NA,NA,NotTracked,Unknown,
0.671875,-0.7241211,-0.1347656,-0.9433594,0.3120117,-0.06347656,22,14,10,6,3,15,50,21,-1,-1,0,-1,0,-2,-1,-3,-30.5625,-30.5625,-30.5625,3.6875,3.6875,3.6875,2.191315,3.808306,2.792742,7.847422,6.958818,8.852308,-0.08719569,-0.4174754,1.660796,0.1730386,0.1452851,1.567615,0.1159075,0.463517,1.759109,-0.04647676,-0.3908538,1.605181,0.1277445,0.1236146,1.620303,0.1098195,-0.005450392,1.739082,0.1040868,-0.3287122,1.712252,-0.07595243,0.1735297,1.753746,0.01927771,-0.3230004,1.684902,-0.1006575,-0.08418019,1.748245,0.3886641,-0.01289392,1.626029,NA,NA,NotTracked,Unknown,
0.6020508,-0.5654297,-0.05029297,-0.9379883,0.3178711,-0.06542969,-26,0,-1,-3,-3,25,-5,-2,-1,-1,-2,1,0,0,-2,0,-75.875,-75.875,-75.875,2.5625,2.5625,2.5625,2.041745,3.778695,2.885953,7.851318,6.959547,8.852972,-0.08713198,-0.4174281,1.66129,0.1674053,0.1417612,1.575072,0.1160026,0.4635318,1.759229,-0.04689069,-0.3897859,1.606083,0.1213233,0.1257612,1.625025,0.10995,-0.005439641,1.73918,0.1041593,-0.3287038,1.712312,-0.07581938,0.1734727,1.753887,0.01937464,-0.3229829,1.684996,-0.1004967,-0.08441292,1.748344,0.3881428,-0.01352347,1.62693,NA,NA,NotTracked,Unknown,
0.5917969,-0.3461914,-0.3666992,-0.9379883,0.3193359,-0.06982422,27,-4,-1,-1,6,-15,-7,27,-3,-2,-2,-2,-1,-1,0,-1,-97.9375,-97.9375,-97.9375,-2.4375,-2.4375,-2.4375,1.856123,3.783691,2.989107,7.851072,6.95961,8.854138,-0.08623197,-0.4163735,1.660893,0.1657255,0.1550667,1.593826,0.1160982,0.463519,1.759454,-0.04668496,-0.3846363,1.607227,0.1332237,0.144873,1.634249,0.109717,-0.005604157,1.739202,0.1043092,-0.3288932,1.712401,-0.07556755,0.1734768,1.754295,0.01952728,-0.3231685,1.685203,-0.1004414,-0.084432,1.748379,0.3888364,-0.01401013,1.629294,NA,NA,NotTracked,Closed,
0.6928711,-0.3735352,-0.4697266,-0.9443359,0.3144531,-0.06689453,-31,-18,-5,5,1,-5,-14,36,-3,-1,-1,-1,-2,-1,-2,-1,-98.0625,-98.0625,-98.0625,-6.9375,-6.9375,-6.9375,1.771161,3.791275,3.022805,7.845191,6.959146,8.855128,-0.08623772,-0.4175688,1.662012,0.1674954,0.1671827,1.595291,0.1160788,0.4634829,1.759825,-0.04633753,-0.3875278,1.607279,0.1266441,0.1575609,1.638673,0.1095625,-0.005939174,1.739262,0.1043824,-0.3294162,1.712639,-0.07533292,0.1736109,1.754779,0.01955763,-0.3238396,1.685876,-0.1004251,-0.08435728,1.748428,0.3888273,-0.0144457,1.629903,NA,NA,NotTracked,Closed,
0.6972656,-0.6425781,-0.4448242,-0.9570313,0.3051758,-0.06005859,6,5,2,-2,-15,-24,-15,-4,1,0,0,-2,-1,0,0,-2,-98.375,-98.375,-98.375,-9.4375,-9.4375,-9.4375,1.66261,3.810012,3.016321,7.835943,6.959433,8.855824,-0.08597335,-0.4167689,1.661124,0.1711583,0.1743531,1.594548,0.1156051,0.4638706,1.76023,-0.04630868,-0.3875448,1.606717,0.1236773,0.1607614,1.64092,0.1091815,-0.006316638,1.73881,0.1045109,-0.3302886,1.712735,-0.07533555,0.1735837,1.754784,0.01955509,-0.3248601,1.686866,-0.1003361,-0.08419044,1.748571,0.3889904,-0.01552696,1.630177,NA,NA,NotTracked,Open,
0.7182617,-0.800293,-0.4506836,-0.9682617,0.3115234,-0.05566406,17,-4,0,2,0,-10,0,-9,-1,-2,-1,-2,-1,0,0,-2,-107.5,-107.5,-107.5,-5.0625,-5.0625,-5.0625,1.612054,3.811503,3.003808,7.828852,6.961641,8.856158,-0.08612213,-0.4166692,1.661272,0.172705,0.2187329,1.569356,0.114766,0.4643728,1.760657,-0.04673937,-0.3788784,1.609308,0.1221788,0.2114999,1.618333,0.108868,-0.006248369,1.738268,0.1045533,-0.3305344,1.712719,-0.07491859,0.1735184,1.75524,0.0195,-0.3252433,1.687393,-0.1001611,-0.08411244,1.748702,0.3889699,-0.01657259,1.631353,NA,NA,NotTracked,Open,
0.6054688,-0.7675781,-0.3520508,-0.9331055,0.3369141,-0.05664063,-56,1,-1,1,-10,-11,10,38,-1,0,0,0,0,-1,-1,0,-23.1875,-23.1875,-23.1875,0.3125,0.3125,0.3125,1.550254,3.793285,2.957833,7.827573,6.963398,8.855295,-0.08511629,-0.4169394,1.660752,0.1738915,0.2215255,1.578111,0.1140448,0.4650769,1.761261,-0.04570999,-0.391736,1.607461,0.1342039,0.1741899,1.64066,0.10843,-0.006062707,1.737902,0.1046175,-0.3305824,1.712707,-0.07493865,0.1734947,1.755247,0.01961683,-0.3254113,1.687838,-0.09999745,-0.08412463,1.748902,0.3867379,-0.01529887,1.632791,NA,NA,NotTracked,Open,
0.5859375,-0.3896484,-0.3930664,-0.934082,0.3422852,-0.06640625,47,4,-1,-7,-4,-1,3,9,-2,0,-1,0,-1,-2,-1,-1,22.4375,22.4375,22.4375,-1.875,-1.875,-1.875,1.582082,3.801842,2.9448,7.829129,6.964142,8.858114,-0.08546828,-0.417622,1.662646,0.1796618,0.1825255,1.60307,0.1135984,0.4654562,1.761473,-0.0460132,-0.3928753,1.606943,0.1263372,0.1316957,1.633646,0.1080696,-0.006074188,1.73771,0.1045968,-0.3309721,1.712741,-0.07498556,0.173415,1.755257,0.01942666,-0.3262096,1.688843,-0.09968118,-0.08427643,1.749256,0.385588,-0.01640948,1.634706,NA,NA,NotTracked,Open,
0.6098633,-0.527832,-0.4765625,-0.9389648,0.3364258,-0.06152344,5,5,2,2,0,-6,2,-12,-1,0,-2,-1,-1,0,-1,-1,-7.0625,-7.0625,-7.0625,-3.875,-3.875,-3.875,1.574241,3.812939,2.946302,7.829144,6.965198,8.862609,-0.08520796,-0.4175069,1.661602,0.1758034,0.1746476,1.604639,0.1130623,0.4655767,1.761503,-0.0461205,-0.3915529,1.606078,0.1204032,0.1270627,1.632119,0.1080905,-0.006017481,1.737541,0.1046345,-0.331098,1.712725,-0.07498884,0.1734158,1.755255,0.0194599,-0.3263635,1.689122,-0.09961866,-0.08433932,1.749313,0.38439,-0.01731732,1.635873,NA,NA,NotTracked,Open,
0.6743164,-0.7231445,-0.4482422,-0.9433594,0.331543,-0.06640625,20,0,-1,-1,-3,-3,3,26,-2,-2,-1,0,-2,-3,-1,-1,-11.6875,-11.6875,-11.6875,-1,-1,-1,1.553935,3.836238,2.935532,7.829041,6.96472,8.864399,-0.08503711,-0.4175807,1.662135,0.1729365,0.1713779,1.603809,0.1129341,0.4656844,1.761576,-0.04618351,-0.3875186,1.6069,0.1208519,0.1236089,1.631686,0.108128,-0.005962448,1.73737,0.104718,-0.3311423,1.712739,-0.07505146,0.1733894,1.755245,0.01963725,-0.3264438,1.689252,-0.0994495,-0.0845365,1.749401,0.382439,-0.01531734,1.637915,NA,NA,NotTracked,Open,
0.6416016,-0.6713867,-0.4501953,-0.9492188,0.3369141,-0.06738281,7,1,3,1,-3,5,7,23,-1,1,-1,-1,0,-2,0,-2,20.0625,20.0625,20.0625,-3.125,-3.125,-3.125,1.570821,3.853175,2.92731,7.824295,6.961394,8.861946,-0.08502115,-0.4179842,1.66382,0.1713445,0.1660545,1.604522,0.1126608,0.4660113,1.762026,-0.04630216,-0.3840773,1.608466,0.1226023,0.1199913,1.632975,0.1081334,-0.005958675,1.737327,0.1047386,-0.3314179,1.712792,-0.0751099,0.1733695,1.75532,0.01964037,-0.3268622,1.689577,-0.09926906,-0.08474188,1.749667,0.3817499,-0.01558681,1.639372,NA,NA,NotTracked,Open,
0.6499023,-0.6665039,-0.4624023,-0.9580078,0.3276367,-0.05957031,-4,-6,1,3,4,-2,-7,-12,-2,-1,-1,-2,-3,0,-1,0,-15.625,-15.625,-15.625,-4.125,-4.125,-4.125,1.575461,3.897502,2.915825,7.82022,6.959834,8.860092,-0.08504127,-0.4174679,1.662464,0.1705054,0.1628581,1.601413,0.1126081,0.4660575,1.762034,-0.04637881,-0.3859179,1.608112,0.1223475,0.1160023,1.630855,0.1081053,-0.005998012,1.737231,0.1047928,-0.3316752,1.712816,-0.07510252,0.1733231,1.755738,0.01969475,-0.3271286,1.689771,-0.09887629,-0.08493793,1.749843,0.3815253,-0.0165287,1.640355,NA,NA,NotTracked,Open,
0.6743164,-0.6665039,-0.472168,-0.9482422,0.3139648,-0.06152344,-12,3,-1,3,1,2,2,24,-1,-2,-3,-3,-1,-1,-1,-2,6.875,6.875,6.875,-2.3125,-2.3125,-2.3125,1.582286,3.918947,2.904311,7.814297,6.957775,8.857438,-0.08492901,-0.4179352,1.662949,0.1711452,0.159907,1.600488,0.1125316,0.466071,1.762112,-0.0461976,-0.3879452,1.60692,0.1231942,0.1153085,1.632215,0.1080608,-0.006102673,1.737181,0.1048034,-0.3318567,1.712894,-0.07519794,0.1733002,1.755825,0.0197046,-0.3273079,1.689966,-0.09876575,-0.08506768,1.750028,0.381555,-0.01714413,1.640947,NA,NA,NotTracked,Open,
0.6464844,-0.6186523,-0.4584961,-0.9443359,0.3208008,-0.05712891,-10,-4,-2,-3,-2,-3,-17,-50,-3,-1,-2,-1,-2,-1,-1,-3,11.625,11.625,11.625,2.1875,2.1875,2.1875,1.592289,3.926104,2.895862,7.813639,6.957797,8.855479,-0.08458502,-0.4174423,1.662795,0.1701463,0.157037,1.599018,0.1125124,0.4661211,1.762254,-0.04615965,-0.3873321,1.607378,0.1243667,0.1126113,1.632022,0.1077982,-0.006163362,1.737203,0.1048506,-0.3319801,1.712963,-0.07523885,0.1733232,1.755889,0.01974832,-0.3274063,1.690121,-0.09874228,-0.08501239,1.750268,0.3817748,-0.01818199,1.641345,NA,NA,NotTracked,Open,
0.6235352,-0.6889648,-0.4282227,-0.9404297,0.3271484,-0.05029297,5,-2,0,-2,-1,5,1,21,1,0,-2,0,0,-2,-1,0,-8.0625,-8.0625,-8.0625,2.75,2.75,2.75,1.595263,3.934723,2.882994,7.816597,6.95939,8.855794,-0.08478996,-0.4176452,1.662754,0.1699187,0.1550437,1.597209,0.1125098,0.4662193,1.762446,-0.04614864,-0.3880568,1.607215,0.1234172,0.113226,1.631226,0.1077306,-0.006227634,1.737217,0.1048831,-0.332162,1.713012,-0.07508186,0.1735448,1.756881,0.01980159,-0.3276147,1.690263,-0.09844064,-0.08518453,1.750705,0.3818764,-0.01870967,1.642005,NA,NA,NotTracked,Open,
0.6235352,-0.6889648,-0.4282227,-0.9404297,0.3271484,-0.05029297,14,0,-1,-4,0,0,0,-31,1,0,-2,0,0,-2,-1,0,-8.0625,-8.0625,-8.0625,2.75,2.75,2.75,1.595263,3.934723,2.882994,7.816597,6.95939,8.855794,-0.08484381,-0.4171533,1.662962,0.1696436,0.1534366,1.59647,0.1124677,0.4662084,1.762518,-0.04615389,-0.386686,1.607839,0.1240618,0.11274,1.631283,0.1076277,-0.006518851,1.737157,0.1048824,-0.332343,1.713044,-0.07510222,0.1735465,1.756882,0.019782,-0.327765,1.690398,-0.09849301,-0.08525454,1.750993,0.3817915,-0.01956664,1.642368,NA,NA,NotTracked,Open,
0.6235352,-0.6889648,-0.4282227,-0.9316406,0.3286133,-0.05273438,0,1,0,1,-3,-1,5,11,-1,-1,-1,-1,-2,-2,0,0,-8.0625,-8.0625,-8.0625,2.375,2.375,2.375,1.595263,3.934723,2.882994,7.821516,6.960812,8.858399,-0.08485736,-0.41809,1.664613,0.1697849,0.153033,1.596334,0.1124477,0.4662197,1.762616,-0.04605423,-0.3911465,1.608871,0.1242396,0.1144179,1.632386,0.1074492,-0.006587913,1.737163,0.1049008,-0.3324077,1.713151,-0.07511855,0.1735664,1.756895,0.01980116,-0.3277897,1.690595,-0.09832787,-0.08530141,1.751268,0.3819917,-0.02031732,1.642341,NA,NA,NotTracked,Open,
0.612793,-0.6132813,-0.4536133,-0.9394531,0.3325195,-0.05664063,15,1,-2,-2,-3,-3,11,32,0,0,-1,0,-2,-1,-1,0,2.75,2.75,2.75,1.8125,1.8125,1.8125,1.609532,3.941808,2.868444,7.823219,6.961042,8.85935,-0.08415633,-0.4174103,1.663146,0.1697065,0.1532065,1.59555,0.112539,0.466238,1.762693,-0.04583918,-0.3882982,1.607349,0.1242626,0.1163169,1.632206,0.1074112,-0.00674051,1.73712,0.1049335,-0.332666,1.713244,-0.07514118,0.1735664,1.756896,0.01979229,-0.3280455,1.690813,-0.09811606,-0.08541486,1.751534,0.382154,-0.02096043,1.642269,NA,NA,NotTracked,Open,
0.6147461,-0.7177734,-0.3925781,-0.9438477,0.3334961,-0.05322266,-7,0,-2,1,4,6,8,9,-2,-3,-1,-1,-2,-2,0,0,-10.5,-10.5,-10.5,0.625,0.625,0.625,1.604254,3.939873,2.863037,7.823403,6.961323,8.859235,-0.08470777,-0.4177994,1.664274,0.1698788,0.1535354,1.594244,0.1126116,0.4662754,1.762794,-0.04599169,-0.3906712,1.608138,0.1241991,0.1140192,1.631216,0.1072908,-0.006793513,1.737137,0.1049628,-0.3328234,1.713324,-0.07514887,0.1735969,1.756885,0.01980387,-0.3281913,1.690992,-0.09798967,-0.08547945,1.751736,0.3822477,-0.02117467,1.642633,NA,NA,NotTracked,Open,
0.6254883,-0.7075195,-0.4189453,-0.9389648,0.331543,-0.06152344,2,-5,-3,-9,-5,0,-3,-20,1,-1,-2,-1,-1,-1,-1,0,-2.125,-2.125,-2.125,0.125,0.125,0.125,1.604641,3.939118,2.861766,7.823111,6.961203,8.858903,-0.08441056,-0.4174742,1.664018,0.1701446,0.1533167,1.594301,0.1127885,0.4664143,1.76297,-0.04609416,-0.3876866,1.608328,0.1243175,0.1157413,1.631686,0.1071133,-0.006861876,1.737113,0.1049681,-0.3328805,1.713374,-0.07516091,0.1736105,1.756886,0.01980885,-0.3282167,1.691021,-0.09805179,-0.08501656,1.751905,0.3821708,-0.02144069,1.642838,NA,NA,NotTracked,Open,
0.6030273,-0.6035156,-0.4614258,-0.9418945,0.3305664,-0.05761719,12,3,0,2,1,0,3,16,-1,-2,0,-2,-1,-1,-1,-3,14.8125,14.8125,14.8125,2.8125,2.8125,2.8125,1.616742,3.938437,2.861923,7.822302,6.960985,8.855836,-0.08575788,-0.4114868,1.666869,0.1703361,0.152483,1.594687,0.1129025,0.4664547,1.7631,-0.04660303,-0.3845565,1.610989,0.1244558,0.1142963,1.631738,0.107032,-0.006905489,1.737123,0.1050158,-0.3330087,1.713495,-0.07517113,0.1736088,1.75688,0.01984199,-0.3283528,1.691212,-0.09789607,-0.08500047,1.752075,0.3823092,-0.0216496,1.643103,NA,NA,NotTracked,Open,
0.6069336,-0.6469727,-0.4301758,-0.9448242,0.3271484,-0.05957031,-2,0,-1,0,2,3,5,21,-1,-1,0,-1,-3,-2,-1,-3,-1.5,-1.5,-1.5,1.625,1.625,1.625,1.615391,3.936321,2.861247,7.822161,6.959929,8.853797,-0.08592065,-0.4080641,1.66662,0.170528,0.1536764,1.5942,0.1129217,0.466467,1.763114,-0.04698876,-0.3789362,1.612581,0.124566,0.11648,1.631964,0.1070949,-0.006975541,1.737101,0.1050699,-0.3331677,1.713575,-0.07477613,0.1737453,1.757474,0.01987439,-0.3284659,1.691328,-0.09738422,-0.08580152,1.752404,0.3823065,-0.02185075,1.643115,NA,NA,NotTracked,Open,
0.5952148,-0.6083984,-0.4189453,-0.9375,0.3237305,-0.06689453,14,2,0,0,3,7,6,27,1,-3,-2,-1,-1,-1,-1,-1,1.4375,1.4375,1.4375,3.5,3.5,3.5,1.607699,3.928252,2.860289,7.824317,6.960289,8.852654,-0.08515503,-0.4106036,1.665766,0.1710786,0.1533248,1.593848,0.1129988,0.4664882,1.763099,-0.04662114,-0.3817028,1.610776,0.1246508,0.1165543,1.631715,0.1071742,-0.007074086,1.737102,0.105127,-0.3333516,1.713662,-0.07479851,0.1737456,1.757448,0.01990959,-0.3286143,1.691457,-0.09711466,-0.08593889,1.752409,0.3823948,-0.02227832,1.643036,NA,NA,NotTracked,Open,
0.6069336,-0.6757813,-0.418457,-0.9443359,0.3227539,-0.06933594,11,1,-2,-1,1,-2,6,-28,-2,0,0,-2,-2,-1,1,-2,-4.625,-4.625,-4.625,0.5625,0.5625,0.5625,1.604761,3.927501,2.860651,7.824994,6.959579,8.852026,-0.08563211,-0.4076645,1.666486,0.1717782,0.1530798,1.593974,0.1130774,0.4665332,1.763062,-0.0463571,-0.3885021,1.609213,0.1244502,0.1166444,1.631643,0.107235,-0.007109879,1.737079,0.1051807,-0.3334331,1.713705,-0.07480007,0.1737421,1.757428,0.01992744,-0.3286666,1.691524,-0.09690237,-0.08631023,1.752324,0.3824441,-0.02256069,1.643028,NA,NA,NotTracked,Open,
0.6313477,-0.6650391,-0.4267578,-0.9428711,0.3134766,-0.0625,-3,0,-3,-3,-3,3,9,5,-2,-1,0,0,-1,-1,-1,-1,-4.75,-4.75,-4.75,0.375,0.375,0.375,1.601568,3.925264,2.861544,7.825093,6.959931,8.851897,-0.0846104,-0.4143781,1.664412,0.1718099,0.1531638,1.593903,0.1131693,0.4665533,1.763047,-0.0462263,-0.3869966,1.609427,0.1244049,0.1162793,1.631905,0.1072954,-0.007200233,1.73706,0.1052774,-0.3334814,1.713769,-0.07442141,0.1738314,1.757775,0.0200149,-0.3286691,1.691616,-0.09685124,-0.08638507,1.75233,0.3827884,-0.02364827,1.642565,NA,NA,NotTracked,Open,
0.6020508,-0.6240234,-0.4165039,-0.9423828,0.324707,-0.06152344,-7,4,-3,-2,-1,1,1,1,-2,-1,-2,-1,0,-1,-1,-1,4.125,4.125,4.125,3.1875,3.1875,3.1875,1.604123,3.925302,2.86055,7.829409,6.96031,8.853352,-0.0847227,-0.411524,1.665488,0.1719471,0.1538981,1.593398,0.1133574,0.4666862,1.763089,-0.04683276,-0.3783189,1.612916,0.124584,0.116845,1.631749,0.1073998,-0.007279288,1.737036,0.1053915,-0.3335871,1.713828,-0.07444225,0.1738214,1.757707,0.02008915,-0.328719,1.691694,-0.09653407,-0.08672393,1.752438,0.383018,-0.02413537,1.642437,NA,NA,NotTracked,Open,
0.6201172,-0.6469727,-0.4086914,-0.9492188,0.324707,-0.05175781,1,-1,0,-1,-1,0,1,5,0,-1,-2,-1,0,-1,-2,0,1.1875,1.1875,1.1875,-0.75,-0.75,-0.75,1.605251,3.925972,2.859783,7.828686,6.959908,8.851959,-0.08465281,-0.4108874,1.664696,0.1727097,0.1539843,1.591736,0.1136293,0.4666843,1.76304,-0.04637487,-0.3844646,1.610124,0.1250765,0.1169481,1.631392,0.1076106,-0.007444666,1.736915,0.1055034,-0.3336406,1.713844,-0.07414871,0.1739376,1.758041,0.02015148,-0.3287253,1.691719,-0.09640426,-0.08684506,1.752409,0.3833727,-0.02483013,1.642111,NA,NA,NotTracked,Open,
0.6098633,-0.6416016,-0.4135742,-0.9545898,0.3164063,-0.05859375,2,0,-2,-3,-4,-5,-8,-38,-2,-1,-3,0,-1,1,-1,0,0.8125,0.8125,0.8125,-0.1875,-0.1875,-0.1875,1.606084,3.927243,2.858811,7.828743,6.960217,8.853046,-0.08372527,-0.414686,1.664037,0.173018,0.1536957,1.592481,0.1137999,0.4666968,1.762963,-0.04592596,-0.3810079,1.611277,0.1259051,0.1167569,1.631431,0.1075453,-0.007471694,1.736884,0.105626,-0.3336758,1.713845,-0.07417028,0.1739407,1.757953,0.02024295,-0.3287441,1.691703,-0.09628481,-0.08692004,1.752412,0.3833893,-0.02486194,1.6421,NA,NA,NotTracked,Open,
0.6191406,-0.6484375,-0.4052734,-0.9453125,0.315918,-0.06054688,-6,11,0,2,1,3,5,24,0,1,0,0,-3,-2,-2,0,-2.5,-2.5,-2.5,1.25,1.25,1.25,1.604368,3.92763,2.859426,7.828138,6.960667,8.851754,-0.08361776,-0.4139339,1.662742,0.1729432,0.1541725,1.591183,0.1139847,0.4666848,1.76277,-0.04621868,-0.3849943,1.61081,0.1253855,0.1147891,1.630038,0.1076784,-0.007560555,1.736765,0.1056893,-0.3337094,1.713833,-0.07419868,0.1739703,1.757826,0.02029583,-0.3287685,1.691693,-0.09610999,-0.0868675,1.752197,0.3836452,-0.02500498,1.641869,NA,NA,NotTracked,Open,
0.625,-0.6816406,-0.409668,-0.9414063,0.3203125,-0.06396484,7,1,1,4,2,2,18,15,-2,-2,-1,-1,-1,0,-1,-2,1.6875,1.6875,1.6875,1.25,1.25,1.25,1.606129,3.928883,2.859236,7.827129,6.961679,8.849113,-0.08302902,-0.4146402,1.66346,0.1731545,0.1538986,1.591372,0.114215,0.4667343,1.762699,-0.0454807,-0.3866635,1.609771,0.126243,0.1166277,1.631202,0.107852,-0.007637693,1.736642,0.1058034,-0.3337471,1.713814,-0.07418988,0.1739765,1.757756,0.02038681,-0.3288018,1.691699,-0.09612554,-0.08635547,1.751911,0.3837499,-0.02503429,1.641819,NA,NA,NotTracked,Open,
0.6196289,-0.6186523,-0.4257813,-0.9443359,0.3173828,-0.06835938,-13,-2,0,-2,-5,-4,-22,-37,0,-1,0,-2,-1,0,-2,-1,2,2,2,0.4375,0.4375,0.4375,1.609708,3.927301,2.862304,7.827129,6.961679,8.849113,-0.08302076,-0.4116618,1.664542,0.1727993,0.15371,1.592241,0.1143227,0.4667592,1.762677,-0.04443589,-0.39782,1.609857,0.1264629,0.1160947,1.631016,0.1079978,-0.007652076,1.736592,0.1059456,-0.3337531,1.713829,-0.07420714,0.1739847,1.75769,0.02054335,-0.3287845,1.691742,-0.09592622,-0.08629865,1.751885,0.3837992,-0.02498339,1.64172,NA,NA,NotTracked,Open,
0.6069336,-0.6513672,-0.4130859,-0.9458008,0.3212891,-0.06591797,1,2,1,3,3,-1,-1,3,0,-2,-3,-1,0,0,-1,-1,-0.8125,-0.8125,-0.8125,0.5625,0.5625,0.5625,1.609757,3.926974,2.862305,7.826561,6.961939,8.848679,-0.08232531,-0.4149069,1.663758,0.1730419,0.1547694,1.591685,0.1145925,0.4667313,1.762572,-0.04534263,-0.3880298,1.609944,0.1258305,0.1155618,1.630803,0.1081458,-0.007744205,1.736508,0.1061296,-0.3338198,1.713841,-0.07421045,0.1739869,1.75766,0.02070435,-0.328815,1.691751,-0.09579316,-0.08609396,1.751858,0.384084,-0.02516313,1.641588,NA,NA,NotTracked,Open,
0.6245117,-0.6503906,-0.4169922,-0.9477539,0.3198242,-0.06298828,10,-1,-1,-3,0,-2,-7,-9,-1,0,-2,-1,-1,-1,-2,-2,-0.5,-0.5,-0.5,0.125,0.125,0.125,1.609658,3.926878,2.862334,7.826647,6.96187,8.848692,-0.08326737,-0.4087676,1.66575,0.1740434,0.1540429,1.591991,0.1146896,0.4667328,1.762535,-0.04544647,-0.3883207,1.610044,0.1267138,0.115257,1.6306,0.1082705,-0.007809687,1.736436,0.1062886,-0.3338508,1.713852,-0.07421491,0.1739941,1.757603,0.02085724,-0.3288307,1.69176,-0.09569445,-0.08601891,1.751888,0.3842427,-0.02528785,1.641426,NA,NA,NotTracked,Open,
0.6103516,-0.6577148,-0.4194336,-0.9516602,0.3178711,-0.05859375,-12,-5,-3,-5,-5,-12,-6,3,-2,-1,0,-3,-2,-2,-1,-1,-0.125,-0.125,-0.125,0.375,0.375,0.375,1.610001,3.925223,2.862719,7.826661,6.962293,8.84855,-0.08278127,-0.4115729,1.664357,0.173816,0.1546036,1.590827,0.1147717,0.466764,1.762412,-0.04423849,-0.3915547,1.609078,0.1268881,0.1147325,1.630017,0.1083442,-0.007902192,1.736339,0.1064016,-0.3339562,1.713854,-0.07422034,0.1740028,1.757512,0.02092743,-0.3288749,1.691763,-0.09566299,-0.08593955,1.751826,0.3843737,-0.02526697,1.641223,NA,NA,NotTracked,Open,
0.6147461,-0.6425781,-0.4169922,-0.9472656,0.3188477,-0.05615234,-9,-2,-2,-5,6,1,-3,7,-1,-1,0,1,-1,-1,0,-2,1.9375,1.9375,1.9375,1.25,1.25,1.25,1.610242,3.923961,2.86377,7.825953,6.96239,8.847381,-0.08324078,-0.4079625,1.665701,0.1765501,0.1587121,1.588901,0.1149187,0.4668483,1.762342,-0.04464784,-0.3896032,1.609113,0.1364916,0.1209411,1.630048,0.1085193,-0.007932794,1.736235,0.1065679,-0.3339918,1.71386,-0.07423052,0.1739928,1.757429,0.02108979,-0.3288944,1.691743,-0.09564645,-0.08603653,1.751763,0.3844016,-0.02525941,1.64109,NA,NA,NotTracked,Open,
0.6044922,-0.6552734,-0.4145508,-0.9453125,0.3242188,-0.05908203,-6,0,0,4,0,1,4,3,-1,-2,-1,-1,0,-2,-1,-2,-2.4375,-2.4375,-2.4375,1.5,1.5,1.5,1.60931,3.924722,2.865087,7.826139,6.963439,8.844619,-0.08273362,-0.4089816,1.665608,0.1766354,0.1585701,1.589584,0.1150266,0.4669145,1.762256,-0.04283125,-0.4027723,1.60845,0.1353515,0.1183416,1.629864,0.1084778,-0.007939232,1.736238,0.1068038,-0.3340541,1.713923,-0.07422752,0.1739936,1.757354,0.02127308,-0.3289469,1.691802,-0.09557587,-0.0860339,1.751753,0.3844833,-0.02533276,1.640997,NA,NA,NotTracked,Open,
0.6044922,-0.6552734,-0.4145508,-0.9487305,0.3178711,-0.06005859,-6,-2,-1,3,2,0,2,-4,-2,-1,-1,-2,-1,-2,-1,0,-2.4375,-2.4375,-2.4375,0.6875,0.6875,0.6875,1.60931,3.924722,2.865087,7.825568,6.963697,8.844181,-0.08250755,-0.4082283,1.666404,0.1647251,0.2023198,1.563604,0.1151585,0.4669622,1.762202,-0.04282409,-0.3785676,1.612625,0.1279245,0.1620356,1.630136,0.1085495,-0.007951431,1.736215,0.106978,-0.3340538,1.713981,-0.07421015,0.1739967,1.757282,0.02144874,-0.3289165,1.691897,-0.09540631,-0.08585596,1.751735,0.3844992,-0.02539332,1.640824,NA,NA,NotTracked,Open,
0.6064453,-0.6396484,-0.4111328,-0.9501953,0.3178711,-0.05957031,10,2,-3,-2,0,0,0,0,-1,-1,-1,-2,-3,-2,-3,0,6.5,6.5,6.5,2.4375,2.4375,2.4375,1.611943,3.925187,2.867074,7.8263,6.964345,8.843501,-0.0826192,-0.4050689,1.666977,0.1651805,0.2048433,1.561424,0.11533,0.4669299,1.761932,-0.04311035,-0.3775533,1.612357,0.131092,0.1606607,1.626531,0.1086044,-0.007992554,1.736212,0.1071075,-0.3340743,1.714089,-0.07419155,0.1740083,1.757243,0.02156874,-0.3289056,1.692,-0.09535733,-0.08588474,1.751727,0.3848026,-0.02550541,1.6406,NA,NA,NotTracked,Open,
0.6064453,-0.6396484,-0.4111328,-0.9501953,0.3178711,-0.05957031,10,2,-3,-2,0,0,0,0,-1,-1,-1,-2,-3,-2,-3,0,6.5,6.5,6.5,2.4375,2.4375,2.4375,1.611943,3.925187,2.867074,7.8263,6.964345,8.843501,-0.08140758,-0.4109391,1.664426,0.1652265,0.2047823,1.559305,0.1155052,0.4668619,1.761559,-0.04340267,-0.384945,1.610859,0.1322145,0.1599545,1.624028,0.1087325,-0.008023881,1.736154,0.1072285,-0.334093,1.714124,-0.07372138,0.1740573,1.757407,0.02167645,-0.3289162,1.692014,-0.09519748,-0.08582971,1.751654,0.3849354,-0.02549282,1.640354,NA,NA,NotTracked,Open,
0.6005859,-0.6376953,-0.4033203,-0.949707,0.3193359,-0.06933594,4,-1,-2,-1,0,3,-2,-8,-1,1,-1,-2,-2,0,-1,-1,1.4375,1.4375,1.4375,-0.1875,-0.1875,-0.1875,1.613315,3.927201,2.866038,7.82739,6.9636,8.843657,-0.08106179,-0.4139253,1.664326,0.1650641,0.2033018,1.560294,0.115623,0.4669169,1.761518,-0.04297242,-0.3818178,1.611031,0.1309585,0.1604145,1.625001,0.1088359,-0.008088225,1.736074,0.1073209,-0.334176,1.714159,-0.07375249,0.1740423,1.757327,0.02177416,-0.3290033,1.692148,-0.09511585,-0.08574893,1.751597,0.3852127,-0.02538369,1.640023,NA,NA,NotTracked,Open,
0.6049805,-0.6621094,-0.3969727,-0.9511719,0.3139648,-0.06738281,11,4,3,-1,-3,-3,-5,-13,0,-1,-1,-2,-1,-1,0,-1,3.125,3.125,3.125,1,1,1,1.616148,3.928856,2.864998,7.829525,6.964224,8.845258,-0.08070555,-0.4173687,1.663383,0.165657,0.2009052,1.560469,0.1156604,0.46692,1.761511,-0.04337075,-0.3852365,1.610653,0.1296494,0.1590012,1.629521,0.1088062,-0.008093135,1.736076,0.1074964,-0.33427,1.714207,-0.07336181,0.174185,1.757576,0.02192748,-0.32907,1.692161,-0.09501259,-0.08571281,1.751592,0.3853807,-0.02526118,1.639702,NA,NA,NotTracked,Open,
0.6147461,-0.6376953,-0.4003906,-0.9438477,0.3208008,-0.07080078,-30,-6,-3,-3,-5,-9,1,21,2,-2,0,0,-1,-1,-2,-1,8,8,8,1,1,1,1.628471,3.935794,2.863931,7.835516,6.964695,8.849778,-0.08227048,-0.4084084,1.667121,0.1640431,0.2026678,1.559442,0.1157622,0.4669432,1.761476,-0.04340596,-0.3846236,1.611102,0.1288335,0.1690423,1.628167,0.1089475,-0.008111767,1.736076,0.1075764,-0.3342771,1.71428,-0.0728068,0.1744357,1.757838,0.02201008,-0.3290374,1.692266,-0.09486207,-0.08562152,1.751587,0.3854729,-0.02534584,1.639627,NA,NA,NotTracked,Open,
0.5927734,-0.625,-0.4003906,-0.9472656,0.3154297,-0.07421875,12,2,0,1,1,7,6,21,-3,0,-1,-1,-2,-1,0,-3,4.75,4.75,4.75,-1,-1,-1,1.632089,3.937799,2.864326,7.841052,6.965601,8.856195,-0.08121065,-0.4151925,1.665014,0.1650269,0.2008669,1.557705,0.1159438,0.466971,1.761283,-0.04277658,-0.3809264,1.611497,0.1334544,0.156792,1.626557,0.1090367,-0.008113985,1.736089,0.1076597,-0.3342927,1.714329,-0.07286705,0.1744413,1.757783,0.0220862,-0.3290406,1.69231,-0.09485175,-0.08555892,1.751583,0.3854984,-0.0254155,1.639604,NA,NA,NotTracked,Open,
0.6049805,-0.6567383,-0.40625,-0.9487305,0.3139648,-0.06445313,-10,-14,0,0,0,-1,-1,3,-1,-1,-2,-1,0,0,1,0,2.8125,2.8125,2.8125,-0.25,-0.25,-0.25,1.63594,3.943827,2.862245,7.843062,6.966338,8.858589,-0.08103652,-0.4142228,1.66491,0.1648006,0.2004558,1.556989,0.1160072,0.4669541,1.761245,-0.04331299,-0.3851824,1.61072,0.1326545,0.1622286,1.627064,0.1089751,-0.008159436,1.73611,0.1077977,-0.3344426,1.714396,-0.07295083,0.1743762,1.75765,0.02223574,-0.3292287,1.692459,-0.09469982,-0.08577789,1.751727,0.3858783,-0.02524626,1.639469,NA,NA,NotTracked,Open,
0.6040039,-0.6601563,-0.3764648,-0.9477539,0.3251953,-0.06738281,5,0,-2,-2,-1,-2,-4,-10,0,0,-2,-3,-3,-1,0,-2,7.0625,7.0625,7.0625,2.0625,2.0625,2.0625,1.645684,3.949373,2.855772,7.848902,6.967215,8.862642,-0.08152209,-0.4118569,1.66613,0.1637124,0.1989034,1.557116,0.1161131,0.4669276,1.761267,-0.0433678,-0.3847519,1.611225,0.1286542,0.1604638,1.623213,0.1088433,-0.008176712,1.736185,0.1078444,-0.3344701,1.714509,-0.07296552,0.1743609,1.757591,0.02225964,-0.3292384,1.692521,-0.09463334,-0.08574912,1.751806,0.3860408,-0.02525459,1.639549,NA,NA,NotTracked,Open,
0.5610352,-0.6113281,-0.3544922,-0.9428711,0.3261719,-0.06494141,-6,-6,-2,-2,-3,0,-3,-6,-2,-3,-2,0,-1,-1,-1,-1,14.125,14.125,14.125,1.0625,1.0625,1.0625,1.667442,3.959076,2.842246,7.851932,6.967798,8.864629,-0.08256296,-0.4089209,1.667736,0.163181,0.1964382,1.557156,0.1163464,0.4669181,1.761199,-0.04316214,-0.3827483,1.611039,0.1394395,0.1613303,1.63085,0.1088666,-0.008191516,1.736189,0.1078408,-0.3344865,1.714579,-0.07302073,0.1743619,1.757549,0.02225943,-0.3292448,1.692555,-0.09455416,-0.08576562,1.751834,0.3860603,-0.02526779,1.639514,NA,NA,NotTracked,Open,
0.5219727,-0.5478516,-0.3208008,-0.9243164,0.3203125,-0.05419922,-8,-4,-1,-1,0,1,3,2,-1,0,-1,-2,0,-3,-2,-1,18,18,18,2.25,2.25,2.25,1.684959,3.969275,2.829409,7.852362,6.968009,8.863351,-0.08282062,-0.405312,1.667938,0.162246,0.1955868,1.55294,0.1166722,0.4668551,1.761083,-0.04327127,-0.386522,1.610855,0.1261037,0.1698636,1.624889,0.1088084,-0.008167735,1.736234,0.1078927,-0.3344911,1.714626,-0.07308362,0.174363,1.757482,0.02229543,-0.3292404,1.692576,-0.09456592,-0.08566882,1.751862,0.3860612,-0.02532802,1.639463,NA,NA,NotTracked,Open,
0.4155273,-0.3793945,-0.2504883,-0.9145508,0.3295898,-0.04492188,7,-3,-2,-2,-1,0,1,-2,0,0,0,0,-1,0,-1,1,30.125,30.125,30.125,3.3125,3.3125,3.3125,1.741207,4.025012,2.778933,7.85294,6.967049,8.860806,-0.08205605,-0.4119285,1.666715,0.1734434,0.1391936,1.58086,0.1169751,0.466737,1.761019,-0.04330114,-0.3836621,1.611036,0.1339521,0.102776,1.624426,0.1086453,-0.00799802,1.736432,0.1079208,-0.3344714,1.714691,-0.07311577,0.1743561,1.757397,0.02231706,-0.3292175,1.692597,-0.09451665,-0.08590085,1.751976,0.3859714,-0.02538179,1.639549,NA,NA,NotTracked,Open,
0.2651367,-0.4609375,-0.1586914,-0.9179688,0.3266602,-0.04833984,6,1,0,0,0,-2,-2,1,-1,0,-1,-1,-1,-1,-3,-2,44.8125,44.8125,44.8125,0.6875,0.6875,0.6875,1.837485,4.157813,2.684766,7.851377,6.965699,8.858954,-0.08296846,-0.4090034,1.667985,0.1705811,0.1358149,1.565747,0.1174299,0.466525,1.760899,-0.043688,-0.3852916,1.611161,0.1363069,0.1012803,1.6226,0.1084557,-0.007829173,1.736695,0.1079053,-0.3344243,1.71484,-0.07315373,0.1743451,1.757276,0.02233144,-0.3291696,1.69262,-0.09436803,-0.0859943,1.752068,0.383822,-0.02769137,1.643989,NA,NA,NotTracked,Open,
0.2197266,-0.5058594,-0.1489258,-0.9541016,0.3125,-0.04589844,-7,-1,-2,0,1,-2,-1,0,-1,-1,-1,1,-1,-2,0,0,79.1875,79.1875,79.1875,-4.75,-4.75,-4.75,1.967063,4.360766,2.572398,7.842617,6.964322,8.854885,-0.08375364,-0.4091788,1.668928,0.1627156,0.1197793,1.549527,0.1180581,0.4663215,1.760774,-0.04368959,-0.3851168,1.611106,0.1331871,0.1004691,1.617282,0.1093752,-0.00750085,1.737542,0.1079157,-0.3342007,1.714998,-0.07314758,0.1743281,1.75721,0.02240502,-0.3289487,1.692611,-0.09426994,-0.08575433,1.752255,0.3825138,-0.02859476,1.645474,NA,NA,NotTracked,Open,
0.1977539,-0.5361328,-0.168457,-0.9765625,0.3139648,-0.06445313,-32,-5,-1,-1,-2,-1,-2,0,-2,-2,-2,-1,-2,-1,-1,1,89.375,89.375,89.375,-3.8125,-3.8125,-3.8125,2.038397,4.486676,2.510747,7.834639,6.964059,8.851646,-0.0836348,-0.4085745,1.668823,0.1660005,0.09082206,1.517859,0.1186267,0.4661774,1.760824,-0.04349115,-0.3865963,1.6115,0.1283954,0.1077868,1.588539,0.109367,-0.007347933,1.737843,0.1079844,-0.3338421,1.71538,-0.07169794,0.1740818,1.757334,0.02265606,-0.3285495,1.692531,-0.09435547,-0.08553956,1.752338,0.3807104,-0.02969088,1.648245,NA,NA,NotTracked,Open,
0.046875,-0.6904297,-0.2470703,-0.9707031,0.328125,-0.06640625,11,2,-1,3,0,1,0,1,-1,-2,-1,-2,-1,-1,-1,-1,89.25,89.25,89.25,-1.75,-1.75,-1.75,2.168036,4.782202,2.383321,7.825788,6.964387,8.84472,-0.08293638,-0.415105,1.666154,0.1675833,0.03964725,1.49619,0.118848,0.4661386,1.760885,-0.0438576,-0.3855932,1.61168,0.1333601,0.04553882,1.562474,0.1103266,-0.006776562,1.738735,0.108052,-0.332823,1.715824,-0.07164329,0.1739965,1.757153,0.02330801,-0.3271179,1.691953,-0.09436948,-0.08554839,1.75234,0.3787633,-0.03258087,1.657908,NA,NA,NotTracked,Open,
-0.1435547,-0.9946289,-0.2817383,-0.9614258,0.3251953,-0.08789063,-7,-1,1,1,5,4,1,-5,-1,-2,0,0,-1,-1,0,-2,3.875,3.875,3.875,-8.1875,-8.1875,-8.1875,2.205177,5.095792,2.26537,7.816028,6.964857,8.841824,-0.08151047,-0.4184829,1.665271,0.1741877,-0.08308656,1.42914,0.1189361,0.4660735,1.761437,-0.04322558,-0.3858824,1.610905,0.1188481,-0.08950814,1.466,0.1108137,-0.006123315,1.739436,0.1083222,-0.3315478,1.716297,-0.07113934,0.173738,1.757244,0.02392464,-0.3255455,1.691324,-0.09437183,-0.08551208,1.752474,0.4012119,-0.06787958,1.673818,NA,NA,NotTracked,Unknown,
-0.3378906,-0.9448242,-0.1674805,-0.953125,0.3061523,-0.09033203,-10,1,1,-4,7,10,-2,4,0,1,-3,-1,0,-1,-3,-2,20.6875,20.6875,20.6875,-7.125,-7.125,-7.125,2.186913,5.423417,2.154756,7.811678,6.966306,8.840919,-0.08098587,-0.4183225,1.664993,0.1888194,-0.1563169,1.431796,0.1188418,0.4660489,1.761804,-0.04230622,-0.3914767,1.609628,0.1417767,-0.1822117,1.522,0.1110191,-0.005884941,1.739628,0.108257,-0.331124,1.716221,-0.07078838,0.1736169,1.757392,0.02401444,-0.3249624,1.690595,-0.0943791,-0.0855407,1.752502,0.3937698,-0.05682363,1.677754,NA,NA,NotTracked,Unknown,
-0.5405273,-1.015625,-0.2553711,-0.9370117,0.3232422,-0.08642578,0,-2,1,4,4,4,5,-1,-2,-1,0,0,-2,0,-1,0,93.1875,93.1875,93.1875,-1.0625,-1.0625,-1.0625,2.223427,5.593829,2.108309,7.806803,6.965804,8.837932,-0.08078711,-0.4177708,1.664423,0.2046081,-0.2211102,1.456441,0.1186833,0.4660723,1.762208,-0.04295003,-0.3875498,1.610517,0.1583001,-0.2942895,1.517333,0.1110653,-0.00571982,1.739715,0.1077385,-0.3306532,1.71598,-0.07067759,0.173594,1.757545,0.02327479,-0.3238505,1.689398,-0.09441461,-0.08538203,1.752624,0.3822849,-0.04638879,1.688117,NA,NA,NotTracked,Unknown,
-0.7338867,-1.07666,-0.1918945,-0.940918,0.3295898,-0.06787109,2,-2,1,1,-2,-2,2,2,0,-2,0,0,-2,-2,0,0,125.25,125.25,125.25,1.25,1.25,1.25,2.27551,5.763247,2.066922,7.804628,6.964865,8.835263,-0.08013959,-0.4181298,1.664794,0.2177556,-0.2717108,1.484522,0.1182896,0.4661139,1.762878,-0.04258366,-0.3892211,1.610099,0.1695201,-0.3190132,1.532267,0.1108106,-0.005518985,1.739795,0.1053322,-0.3298385,1.715428,-0.07061089,0.1735753,1.75767,0.01995379,-0.3218302,1.687638,-0.09442013,-0.08547751,1.752798,0.3477671,-0.04841899,1.708387,NA,NA,NotTracked,Unknown,
-0.9267578,-1.014648,-0.265625,-0.9287109,0.3505859,-0.05810547,1,4,-2,-5,5,8,1,-1,-1,-3,-1,-2,-1,-2,-1,-1,65.9375,65.9375,65.9375,3.375,3.375,3.375,2.330707,6.091583,2.007114,7.81305,6.962853,8.839624,-0.08126762,-0.4180682,1.665807,0.2292085,-0.3005601,1.518307,0.1180909,0.4661704,1.763363,-0.04129316,-0.3993855,1.60826,0.1936138,-0.3526224,1.553182,0.1105381,-0.005389149,1.739872,0.1036642,-0.3295997,1.715279,-0.07051694,0.1735952,1.757728,0.01813351,-0.3211457,1.686977,-0.09442949,-0.08549649,1.752855,0.3452454,-0.04934819,1.706679,NA,NA,NotTracked,Unknown,
-1.097656,-0.7929688,-0.1259766,-0.9370117,0.3032227,-0.05175781,-2,-4,-2,0,-3,-2,-3,-2,-1,-2,-2,-1,-1,-1,0,-1,-61.25,-61.25,-61.25,-2.875,-2.875,-2.875,2.155165,6.466058,1.838055,7.825508,6.9625,8.854995,-0.08151001,-0.4176966,1.665151,0.252702,-0.35562,1.503307,0.1178131,0.4662227,1.763871,-0.04262691,-0.3887822,1.610219,0.2079309,-0.3524435,1.491686,0.1105208,-0.005317113,1.739922,0.1036138,-0.3295754,1.715239,-0.07049736,0.173596,1.75776,0.01805996,-0.3210503,1.686749,-0.09474789,-0.0850504,1.753021,0.33269,-0.05814855,1.702202,NA,NA,NotTracked,Unknown,
-1.152344,-0.8442383,-0.15625,-0.9414063,0.2915039,-0.04833984,-3,0,1,1,-3,-4,0,1,-1,-1,1,-2,0,1,-2,-2,-69.6875,-69.6875,-69.6875,-0.125,-0.125,-0.125,2.059628,6.561938,1.767619,7.833181,6.963941,8.863419,-0.08277249,-0.4180441,1.665503,0.2679406,-0.380263,1.527566,0.1175825,0.4662901,1.764282,-0.04254344,-0.3952147,1.609073,0.2263376,-0.3761477,1.513674,0.1106085,-0.005298191,1.739972,0.1037919,-0.3295911,1.71523,-0.07041997,0.1735319,1.757815,0.01851073,-0.3210917,1.686372,-0.09501291,-0.08525789,1.753231,0.3311865,-0.06261467,1.701864,NA,NA,NotTracked,Unknown,
-1.111816,-0.7885742,-0.1669922,-0.9433594,0.3212891,-0.04541016,0,1,-1,-2,2,-2,-2,-1,-2,-1,-1,-2,-1,0,-1,-2,-73.1875,-73.1875,-73.1875,6.5625,6.5625,6.5625,1.966074,6.647526,1.704512,7.850543,6.965477,8.875799,-0.08334225,-0.4182406,1.665938,0.2797761,-0.3907689,1.552524,0.1174673,0.4662979,1.764385,-0.0431147,-0.3989688,1.608816,0.2340973,-0.4070097,1.5441,0.1106445,-0.005295957,1.739978,0.1041285,-0.3296654,1.715155,-0.07044534,0.1734854,1.757855,0.01915949,-0.3212866,1.685942,-0.09527284,-0.08525931,1.753318,0.329112,-0.06897552,1.70051,NA,NA,NotTracked,Unknown,
-1.010742,-0.6845703,-0.203125,-0.9536133,0.3203125,-0.03613281,-1,-1,-1,0,-3,0,-2,0,0,0,-1,-1,-3,-1,-1,0,-57.6875,-57.6875,-57.6875,3.6875,3.6875,3.6875,1.878711,6.72014,1.640558,7.865393,6.968062,8.887067,-0.08453249,-0.4180489,1.665394,0.2905012,-0.4025996,1.573166,0.1173806,0.4663909,1.764619,-0.04351489,-0.3946595,1.60981,0.2437136,-0.4111341,1.572622,0.1108789,-0.005260515,1.739971,0.1049705,-0.3297206,1.715217,-0.07048133,0.1735164,1.757857,0.02037648,-0.3215069,1.685592,-0.09564456,-0.08528253,1.753414,0.3282354,-0.07369535,1.700387,NA,NA,NotTracked,Unknown,
-0.9697266,-0.4042969,-0.2548828,-0.956543,0.3046875,-0.05761719,-1,0,1,0,1,-3,-2,-2,-1,-1,1,-2,-1,0,-1,1,-9.25,-9.25,-9.25,4,4,4,1.539162,6.891007,1.32401,7.881204,6.97329,8.90022,-0.08484722,-0.417764,1.667337,0.2981461,-0.4055315,1.589571,0.1173507,0.4664773,1.764816,-0.04349126,-0.3904481,1.610654,0.2460026,-0.424264,1.577762,0.1114079,-0.005220982,1.740091,0.1066828,-0.3300158,1.7154,-0.07048315,0.1735081,1.757858,0.02236897,-0.3221322,1.68524,-0.09586412,-0.08545613,1.753489,0.3281288,-0.07585384,1.701156,NA,NA,NotTracked,Unknown,
-0.9335938,-0.5634766,-0.2363281,-0.953125,0.3115234,-0.05566406,0,0,0,1,-1,-1,-1,-1,0,-1,0,1,0,-1,-1,-3,58.6875,58.6875,58.6875,5.1875,5.1875,5.1875,1.486857,6.922156,1.214543,7.888165,6.978493,8.902238,-0.0863967,-0.4187439,1.668272,0.3052733,-0.4124346,1.603002,0.1173277,0.4665192,1.764816,-0.04383315,-0.3936967,1.610102,0.2522992,-0.4176632,1.58234,0.1122046,-0.00512078,1.740025,0.1086715,-0.3302339,1.715537,-0.07051529,0.1735626,1.757808,0.02458264,-0.3226022,1.68476,-0.09632615,-0.08604378,1.753567,0.3287112,-0.07981654,1.704083,NA,NA,NotTracked,NotTracked,
-0.953125,-0.3701172,-0.25,-0.9506836,0.3154297,-0.05712891,0,1,0,-1,0,0,0,-1,1,-1,-1,-2,0,0,-1,-1,63.0625,63.0625,63.0625,4.875,4.875,4.875,1.502676,6.936113,1.155292,7.888329,6.980913,8.89966,-0.08680872,-0.419051,1.669105,0.3083557,-0.4146125,1.60555,0.1173482,0.4665981,1.76481,-0.04387445,-0.3939443,1.609864,0.2542624,-0.4295819,1.581107,0.1124987,-0.005083092,1.740106,0.1092634,-0.3303662,1.715952,-0.07048555,0.1737584,1.757595,0.02513707,-0.3227499,1.68495,-0.0967885,-0.08596367,1.753649,0.329519,-0.08197017,1.706265,NA,NA,NotTracked,NotTracked,
-0.940918,-0.3671875,-0.2211914,-0.9404297,0.3144531,-0.05615234,-2,-1,0,-1,-1,-1,-1,-2,0,-2,-1,-1,0,-1,-2,-2,38.4375,38.4375,38.4375,6.5,6.5,6.5,1.536863,6.934602,1.134253,7.882972,6.983745,8.887687,-0.08671466,-0.4184994,1.669211,0.3099962,-0.4161349,1.607148,0.117371,0.4666298,1.764819,-0.0439572,-0.3930467,1.610349,0.254766,-0.4165246,1.584595,0.1126893,-0.005087748,1.740171,0.1097522,-0.3304463,1.716297,-0.0704797,0.1737784,1.75746,0.02563252,-0.3228619,1.685076,-0.09708532,-0.0861037,1.753632,0.3302152,-0.08358179,1.709269,NA,NA,NotTracked,NotTracked,
-0.9306641,-0.3891602,-0.2080078,-0.9296875,0.3266602,-0.05957031,-3,1,-1,-1,0,0,-1,-1,-3,-3,0,-1,0,-1,-1,-4,18.4375,18.4375,18.4375,7.75,7.75,7.75,1.548309,6.929789,1.134777,7.878747,6.983569,8.874781,-0.08678734,-0.4183244,1.668479,0.3119768,-0.4185331,1.605594,0.1173929,0.4666753,1.764755,-0.04528334,-0.3881427,1.610663,0.2577676,-0.4046789,1.587982,0.1129359,-0.005068745,1.740172,0.1101647,-0.330492,1.716475,-0.07046361,0.1738214,1.75722,0.02609134,-0.3229606,1.685094,-0.09727238,-0.08654231,1.753517,0.3310652,-0.08440567,1.711657,NA,NA,NotTracked,NotTracked,
-0.9057617,-0.4550781,-0.1884766,-0.9321289,0.328125,-0.07470703,-2,-2,-1,0,-1,0,0,0,-2,0,-1,0,-2,-1,-1,0,7.9375,7.9375,7.9375,10.125,10.125,10.125,1.570017,6.915183,1.145848,7.880194,6.982718,8.865829,-0.08667164,-0.4180138,1.667607,0.3132904,-0.4193131,1.605875,0.1174811,0.4666924,1.764649,-0.0462961,-0.3852304,1.610203,0.2588946,-0.4340672,1.5808,0.1131702,-0.005043128,1.740123,0.1105339,-0.3305324,1.716579,-0.07048726,0.1737901,1.756689,0.02650554,-0.3230671,1.685107,-0.09745694,-0.0867179,1.753361,0.3318645,-0.08525662,1.713874,NA,NA,NotTracked,NotTracked,
-0.9052734,-0.4458008,-0.1875,-0.9526367,0.3198242,-0.06591797,1,0,-1,-1,-1,-1,1,0,-1,-2,-1,-2,-2,-3,-1,-1,13.3125,13.3125,13.3125,8.4375,8.4375,8.4375,1.581539,6.909198,1.148785,7.88413,6.980306,8.859301,-0.08716638,-0.4180134,1.667474,0.3140628,-0.4200686,1.607066,0.1175103,0.4667071,1.7646,-0.04452989,-0.3909366,1.609977,0.2572147,-0.421494,1.583396,0.1133203,-0.005085015,1.740158,0.1109935,-0.3306941,1.716755,-0.07052415,0.1737294,1.756257,0.02699719,-0.3233015,1.685185,-0.09785052,-0.08712751,1.753037,0.332442,-0.08577362,1.715533,NA,NA,NotTracked,NotTracked,
-0.8959961,-0.4125977,-0.1791992,-0.9624023,0.3110352,-0.07861328,0,1,-2,-1,-2,0,-1,-1,-2,-2,-3,0,-3,-1,0,0,21.1875,21.1875,21.1875,7.875,7.875,7.875,1.601081,6.902444,1.144045,7.886665,6.979771,8.857427,-0.08722014,-0.4187562,1.667468,0.3143167,-0.4200793,1.607465,0.1176002,0.4667025,1.76442,-0.04646431,-0.3843372,1.609938,0.2593772,-0.4180489,1.58619,0.1135043,-0.005087326,1.740173,0.1112351,-0.3307199,1.716895,-0.07044684,0.1737545,1.755899,0.02723706,-0.3233233,1.68522,-0.09825806,-0.08688561,1.752776,0.3326105,-0.08647594,1.716962,NA,NA,NotTracked,NotTracked,
