ALX,ALY,ALZ,ARX,ARY,ARZ,EMG0L,EMG1L,EMG2L,EMG3L,EMG4L,EMG5L,EMG6L,EMG7L,EMG0R,EMG1R,EMG2R,EMG3R,EMG4R,EMG5R,EMG6R,EMG7R,GLX,GLY,GLZ,GRX,GRY,GRZ,ORL,OPL,OYL,ORR,OPR,OYR,LHNX,LHNY,LHNZ,RHNX,RHNY,RHNZ,HX,HY,HZ,LTX,LTY,LTZ,RTX,RTY,RTZ,SpineMidX,SpineMidY,SpineMidZ,SpineBaseX,SpineBaseY,SpineBaseZ,ShoulderLeftX,ShoulderLeftY,ShoulderLeftZ,ShoulderRightX,ShoulderRightY,ShoulderRightZ,ElbowLeftX,ElbowLeftY,ElbowLeftZ,ElbowRightX,ElbowRightY,ElbowRightZ,Myo_Pose_left,Myo_Pose_Right,Kinect_pose_left,Kinect_pose_right
-0.9389648,-0.3388672,-0.1826172,-0.9492188,0.3286133,-0.04345703,-4,0,0,-2,-1,1,-1,2,0,-1,-2,-1,-1,-2,0,1,2.8125,2.8125,2.8125,-0.4375,-0.4375,-0.4375,1.699241,6.875572,2.521097,7.734959,6.962496,9.967219,-0.09868041,-0.4211578,1.532393,0.2809313,-0.4160108,1.477171,0.0967257,0.4673344,1.644525,-0.0565379,-0.3914353,1.485033,0.3326126,-0.4379616,1.477934,0.09777058,-0.006136938,1.625554,0.0967013,-0.3362694,1.598128,-0.08875912,0.1733,1.637801,0.01080393,-0.3291152,1.564637,-0.1178556,-0.08461897,1.634248,0.3033372,-0.08926188,1.592977,NA,NA,NotTracked,NotTracked,
-0.9379883,-0.3388672,-0.1845703,-0.9418945,0.3203125,-0.046875,6,1,0,-1,-2,-1,-1,-1,-1,-1,0,-1,0,-2,-2,-2,3.125,3.125,3.125,0.0625,0.0625,0.0625,1.703312,6.875291,2.521696,7.734959,6.962496,9.967219,-0.09846461,-0.4216312,1.532725,0.2808422,-0.4166104,1.477852,0.09671395,0.4673454,1.644539,-0.05737979,-0.388736,1.485781,0.3285007,-0.4475304,1.4708,0.09773399,-0.006121302,1.625549,0.09663859,-0.3362494,1.598101,-0.08878588,0.1732718,1.637802,0.01075123,-0.3290994,1.564617,-0.1178967,-0.08467978,1.634251,0.3032507,-0.0891869,1.592966,NA,NA,NotTracked,NotTracked,
-0.9360352,-0.3374023,-0.1884766,-0.9418945,0.3276367,-0.04394531,-1,1,0,1,-2,-2,-2,1,-2,-1,0,0,-2,-2,-2,-2,2.9375,2.9375,2.9375,0.9375,0.9375,0.9375,1.707151,6.875312,2.522212,7.734283,6.962236,9.966987,-0.0985829,-0.4215486,1.533103,0.2808853,-0.416535,1.478035,0.09669396,0.4673387,1.644633,-0.05713141,-0.3861336,1.485845,0.3298535,-0.4515735,1.4745,0.09772652,-0.006125539,1.625535,0.09664657,-0.336272,1.598024,-0.0887942,0.1732664,1.637824,0.01074562,-0.3291162,1.564548,-0.1179525,-0.08464307,1.634253,0.3032342,-0.0891784,1.592983,NA,NA,NotTracked,NotTracked,
-0.9384766,-0.3408203,-0.1821289,-0.9433594,0.3339844,-0.04833984,0,-1,-3,-2,-2,-2,-2,-1,-3,0,0,-2,-1,0,-3,-2,2.0625,2.0625,2.0625,0.5,0.5,0.5,1.709231,6.875211,2.523133,7.734283,6.962236,9.966987,-0.09802665,-0.4213209,1.532647,0.2809197,-0.41636,1.478276,0.09669896,0.4673554,1.644956,-0.05710617,-0.3895482,1.485465,0.3315698,-0.4516882,1.4792,0.09770743,-0.006157112,1.625542,0.09661032,-0.3362997,1.597999,-0.08889794,0.1730929,1.63796,0.01069852,-0.3291394,1.564506,-0.1179865,-0.08455154,1.634302,0.303219,-0.08918365,1.592998,NA,NA,NotTracked,NotTracked,
-0.9370117,-0.3452148,-0.1855469,-0.9433594,0.3291016,-0.04589844,-4,-2,-2,-2,0,-1,-2,-1,0,-1,-1,-2,1,-1,-1,-1,1.8125,1.8125,1.8125,-0.125,-0.125,-0.125,1.711018,6.875289,2.52401,7.734283,6.962236,9.966987,-0.0988128,-0.4207333,1.532088,0.2806778,-0.4165712,1.477133,0.09668405,0.4673358,1.645057,-0.05788816,-0.3865848,1.485618,0.3310282,-0.4293418,1.47447,0.09767092,-0.006198179,1.625529,0.09653519,-0.3363731,1.597885,-0.08890135,0.1730793,1.637958,0.01062138,-0.3291978,1.56436,-0.1180218,-0.08453782,1.634219,0.3032204,-0.08915212,1.59296,NA,NA,NotTracked,NotTracked,
-0.9399414,-0.3500977,-0.1875,-0.9418945,0.3203125,-0.0390625,0,-1,0,-1,-2,-1,0,1,-2,-2,0,-1,-2,-3,-1,-2,1.3125,1.3125,1.3125,0,0,0,1.71384,6.874511,2.524445,7.734262,6.962819,9.966431,-0.09853819,-0.4212849,1.533576,0.2810155,-0.4168821,1.478641,0.09671835,0.4672745,1.645324,-0.05751406,-0.3820902,1.486577,0.3328989,-0.4295273,1.480134,0.09767019,-0.00622534,1.625538,0.09649929,-0.3363995,1.597871,-0.08888201,0.1730719,1.637978,0.01058972,-0.3292065,1.564336,-0.1180864,-0.08449674,1.634223,0.3032266,-0.0891674,1.592976,NA,NA,NotTracked,NotTracked,
-0.9414063,-0.3466797,-0.1899414,-0.9501953,0.3369141,-0.04345703,5,-2,0,0,-1,-2,5,19,-1,-1,-2,0,-2,-3,0,-1,4.875,4.875,4.875,-0.3125,-0.3125,-0.3125,1.715886,6.873432,2.521655,7.733118,6.962249,9.965834,-0.09830397,-0.4214814,1.532767,0.2808133,-0.416707,1.477726,0.09674799,0.4671931,1.645416,-0.05575584,-0.4021838,1.482913,0.330744,-0.4316068,1.474453,0.09766478,-0.006279928,1.625551,0.09649743,-0.336418,1.597832,-0.08885682,0.1730445,1.638003,0.01059362,-0.3292147,1.564279,-0.1181161,-0.08449472,1.634225,0.303199,-0.08919813,1.592969,NA,NA,NotTracked,NotTracked,
-1.03418,-0.378418,-0.2358398,-0.9516602,0.3486328,-0.0390625,-1,-2,-1,-1,5,25,12,-17,2,-1,-2,0,-2,1,1,2,-5,-5,-5,-0.8125,-0.8125,-0.8125,1.704258,6.867713,2.510731,7.733065,6.962466,9.965588,-0.09856573,-0.4212761,1.53301,0.2805596,-0.4161336,1.477407,0.09676547,0.4671583,1.64546,-0.05765587,-0.3830729,1.485955,0.3323981,-0.4367985,1.47878,0.09766958,-0.00629379,1.625547,0.09646755,-0.3364201,1.597781,-0.08885114,0.1730419,1.638017,0.01055598,-0.3292058,1.564205,-0.1181277,-0.08451686,1.634203,0.3031921,-0.08919305,1.59303,NA,NA,NotTracked,NotTracked,
-1.134766,-0.5795898,-0.2509766,-0.9389648,0.3164063,-0.05859375,-5,-2,-4,10,5,6,-25,19,-1,-3,-3,-3,0,-3,-2,-1,-13.25,-13.25,-13.25,-8.125,-8.125,-8.125,1.723608,6.850455,2.538822,7.726577,6.963405,9.967329,-0.09803564,-0.4213616,1.533295,0.279827,-0.4123417,1.476002,0.09678141,0.4671734,1.645522,-0.05501843,-0.403932,1.482667,0.3311286,-0.436235,1.476801,0.09767006,-0.006271598,1.625563,0.09645145,-0.336405,1.597766,-0.08885329,0.1730274,1.638081,0.01054632,-0.3291875,1.564181,-0.1181253,-0.08451847,1.634204,0.3032682,-0.08909584,1.593468,NA,NA,NotTracked,NotTracked,
-1.066895,-0.6679688,-0.3803711,-0.9418945,0.3046875,-0.04980469,-15,-7,3,-6,-2,-12,1,-3,-2,-2,0,-1,-1,-2,-1,-2,14.375,14.375,14.375,-5.25,-5.25,-5.25,1.780775,6.811357,2.593528,7.722324,6.964623,9.966068,-0.0984288,-0.4219168,1.534365,0.277934,-0.4082176,1.469726,0.09678539,0.4671867,1.645662,-0.0563282,-0.3921666,1.485465,0.3271701,-0.4327341,1.465,0.0976405,-0.006271542,1.625594,0.09636281,-0.3363519,1.597823,-0.08888142,0.1730366,1.638145,0.01046634,-0.3291205,1.564225,-0.1181499,-0.08451196,1.634234,0.3042063,-0.08850209,1.596087,NA,NA,NotTracked,NotTracked,
-1.085449,-0.5844727,-0.3393555,-0.9541016,0.3291016,-0.03613281,7,10,0,1,3,-4,7,0,0,0,-2,2,-1,-3,0,-1,90.25,90.25,90.25,5.875,5.875,5.875,2.090589,6.621338,2.781332,7.719257,6.967773,9.958615,-0.09827774,-0.4210889,1.534377,0.2740137,-0.3969505,1.456008,0.09676396,0.4672044,1.645714,-0.05601013,-0.3950946,1.484745,0.3249061,-0.438357,1.451334,0.09756549,-0.006222147,1.62565,0.09613024,-0.3362259,1.597934,-0.08890342,0.1730593,1.638205,0.01024469,-0.3289934,1.564284,-0.1181539,-0.08449913,1.63426,0.3063677,-0.08734649,1.600663,NA,NA,NotTracked,NotTracked,
-1.085449,-0.5844727,-0.3393555,-0.9394531,0.3457031,-0.04101563,-6,1,7,6,0,-2,6,29,-2,-3,-1,-1,0,-1,-1,-1,90.25,90.25,90.25,9.9375,9.9375,9.9375,2.090589,6.621338,2.781332,7.72476,6.970822,9.953011,-0.0976293,-0.4211975,1.534377,0.2768669,-0.3299542,1.395317,0.09671985,0.4671984,1.64575,-0.057283,-0.3825198,1.488471,0.2475766,-0.343541,1.439111,0.09739116,-0.006123001,1.625608,0.09548702,-0.3358181,1.597976,-0.08895966,0.173008,1.638256,0.009395133,-0.3284647,1.564336,-0.1181097,-0.08442833,1.634361,0.3135288,-0.08139123,1.611698,NA,NA,NotTracked,Closed,
-0.9526367,-1.246094,-0.2202148,-0.9492188,0.3242188,-0.04980469,-1,-1,5,6,0,-5,-4,-10,0,0,0,-1,-1,2,-1,0,59.4375,59.4375,59.4375,2.8125,2.8125,2.8125,2.272889,6.117604,2.919099,7.731719,6.973424,9.955132,-0.09708834,-0.4201871,1.53614,0.2723236,-0.2925799,1.374769,0.09667373,0.4671425,1.645711,-0.05634449,-0.3752976,1.489021,0.245927,-0.3362503,1.4174,0.09717663,-0.006058774,1.625681,0.09488683,-0.3354923,1.598222,-0.0889729,0.1729871,1.638307,0.008831165,-0.3281782,1.564561,-0.1181361,-0.08438478,1.634394,0.3166129,-0.07676738,1.615882,NA,NA,NotTracked,Closed,
-0.9526367,-1.246094,-0.2202148,-0.9384766,0.3193359,-0.05078125,-10,-8,-17,-4,9,8,5,-1,-3,-1,-1,-1,0,0,0,0,59.4375,59.4375,59.4375,5.8125,5.8125,5.8125,2.272889,6.117604,2.919099,7.735674,6.975807,9.954694,-0.09736484,-0.4215699,1.535142,0.2802316,-0.2296436,1.33433,0.09658432,0.4669425,1.645358,-0.05629312,-0.3932818,1.486693,0.3023877,-0.2640119,1.320846,0.09689415,-0.006024833,1.625724,0.09422184,-0.3351749,1.598456,-0.08898078,0.173,1.638263,0.008231603,-0.3279258,1.564765,-0.1181332,-0.08430779,1.63435,0.319925,-0.05913004,1.626014,NA,NA,NotTracked,Unknown,
-0.5908203,-1.194824,-0.1650391,-0.9526367,0.3286133,-0.05371094,-12,-2,26,44,10,0,0,7,1,-1,-2,-2,-3,-2,-1,-1,61.5625,61.5625,61.5625,7.1875,7.1875,7.1875,2.419503,5.635539,2.96053,7.73834,6.976473,9.952577,-0.09675973,-0.4215678,1.537654,0.2792612,-0.1744191,1.303867,0.09653258,0.4668428,1.645242,-0.05601509,-0.3811745,1.489331,0.2888728,-0.2141383,1.266,0.09646561,-0.005925836,1.626032,0.09341194,-0.3346023,1.599186,-0.08929184,0.1734053,1.638316,0.007498857,-0.3275119,1.565517,-0.1181132,-0.08423618,1.634531,0.3251491,-0.05002729,1.635166,NA,NA,NotTracked,Unknown,
-0.3920898,-1.234863,-0.06152344,-0.9584961,0.3339844,-0.04248047,57,6,-9,-32,1,0,2,1,-2,-1,0,-1,-2,0,0,0,40.25,40.25,40.25,3.1875,3.1875,3.1875,2.469431,5.290219,2.973281,7.735866,6.975791,9.944531,-0.09704556,-0.4213473,1.537517,0.2735543,-0.09942784,1.281626,0.09644023,0.466785,1.645047,-0.05455776,-0.3959363,1.487198,0.2813795,-0.1357074,1.250154,0.096337,-0.0058399,1.626175,0.09310513,-0.3342256,1.599511,-0.08959337,0.1738031,1.638362,0.00723718,-0.3272288,1.565796,-0.1181139,-0.0840914,1.634634,0.3648651,-0.038103,1.61961,NA,NA,NotTracked,Unknown,
-0.3769531,-1.312988,0.04931641,-0.9624023,0.309082,-0.05761719,-3,6,17,16,12,9,9,2,-2,-1,-2,-1,-2,-2,-1,-1,45.0625,45.0625,45.0625,-1.125,-1.125,-1.125,2.49649,5.107985,2.984987,7.73538,6.9761,9.944536,-0.09663065,-0.4206793,1.536876,0.2807633,-0.01662331,1.292353,0.09622508,0.4665606,1.644447,-0.0547323,-0.39449,1.486874,0.3071959,-0.01426599,1.275067,0.09621628,-0.005813693,1.626259,0.09292337,-0.3340001,1.599736,-0.08976058,0.1741784,1.638357,0.007058699,-0.3270829,1.566002,-0.118099,-0.08405765,1.634626,0.3793311,-0.02933602,1.610109,NA,NA,NotTracked,Unknown,
-0.02636719,-1.078613,0.05615234,-0.9140625,0.3066406,-0.06103516,-7,-8,-5,-51,-3,-2,-2,-1,1,0,-1,-1,-1,-1,-1,-3,38.6875,38.6875,38.6875,6.125,6.125,6.125,2.543523,4.514406,3.04145,7.737521,6.976441,9.941416,-0.09705014,-0.4210473,1.536937,0.2908468,0.06289699,1.309636,0.09604064,0.466254,1.643855,-0.05585691,-0.3927501,1.487869,0.3069556,0.08124711,1.290167,0.09604181,-0.005682874,1.626403,0.09265588,-0.3335158,1.600142,-0.08988754,0.174486,1.638352,0.006790526,-0.3267502,1.566528,-0.1181021,-0.0840569,1.634623,0.3457743,-0.03826291,1.612182,NA,NA,NotTracked,Unknown,
0.2856445,-0.7397461,0.09033203,-0.9375,0.3251953,-0.04931641,5,-2,-7,16,3,-3,-4,2,-2,0,-1,0,-1,-2,0,0,40.0625,40.0625,40.0625,7.8125,7.8125,7.8125,2.556047,4.122759,3.136663,7.738376,6.975563,9.937815,-0.09707391,-0.4210545,1.536673,0.2946721,0.134992,1.338259,0.09600778,0.4660671,1.643233,-0.05595862,-0.3907473,1.48836,0.2707509,0.177519,1.3408,0.09587672,-0.005596385,1.626531,0.09237844,-0.333285,1.600452,-0.08999836,0.174711,1.638314,0.00651479,-0.3266071,1.566954,-0.1181363,-0.08384486,1.634604,0.3630812,-0.02945476,1.581332,NA,NA,NotTracked,Unknown,
0.3730469,-0.690918,0.1123047,-0.9291992,0.3198242,-0.04052734,-13,-7,7,26,3,-2,4,33,-2,-2,-2,-1,-1,0,-1,-1,6.875,6.875,6.875,3.875,3.875,3.875,2.521719,3.931413,3.204583,7.740262,6.975927,9.933252,-0.09634202,-0.4208999,1.536694,0.295889,0.1954519,1.369265,0.0958351,0.4658103,1.642267,-0.05517212,-0.3939328,1.489191,0.2728364,0.1867688,1.3794,0.09575549,-0.005391524,1.626623,0.09231299,-0.3325927,1.600688,-0.08976572,0.1747278,1.638128,0.006365402,-0.3260123,1.567184,-0.1182207,-0.08320781,1.634461,0.3780831,-0.01797794,1.562595,NA,NA,NotTracked,Unknown,
0.5371094,-0.6381836,0.1650391,-0.9243164,0.2939453,-0.04150391,6,20,1,51,31,9,8,-7,-3,0,-2,0,-1,-1,-3,-2,-10.9375,-10.9375,-10.9375,5.3125,5.3125,5.3125,2.357664,3.575871,3.40264,7.744369,6.977372,9.93312,-0.09871472,-0.4116383,1.541449,0.293648,0.2440669,1.40492,0.09580988,0.465606,1.641763,-0.05769519,-0.3737751,1.494,0.232045,0.2796341,1.4425,0.09577604,-0.005087211,1.626902,0.09231912,-0.3315276,1.601236,-0.08950164,0.1747611,1.638034,0.006162349,-0.3248518,1.567865,-0.1181686,-0.08261324,1.634663,0.3932512,-0.004669289,1.549971,NA,NA,NotTracked,Unknown,
0.5756836,-0.6357422,-0.06445313,-0.9545898,0.3208008,-0.0390625,11,-1,-10,-4,-5,-4,-53,-33,-3,-2,-2,0,0,0,-1,-2,-16.375,-16.375,-16.375,8.625,8.625,8.625,2.225922,3.417847,3.554449,7.74729,6.976681,9.92684,-0.09916828,-0.4118721,1.542289,0.2935016,0.2800166,1.441638,0.09588424,0.4652596,1.641218,-0.05688722,-0.3872222,1.49193,0.2298904,0.2994813,1.409559,0.095704,-0.004815112,1.627296,0.09201788,-0.3306519,1.601737,-0.08916894,0.1747131,1.638018,0.005649592,-0.3238659,1.568573,-0.1178847,-0.08212351,1.634953,0.4065126,0.01036791,1.534493,NA,NA,NotTracked,Unknown,
0.4306641,-0.109375,0.109375,-0.9643555,0.3383789,-0.0390625,-8,6,-17,-34,-32,-10,23,-14,0,0,-2,-1,0,-1,-2,-2,9.625,9.625,9.625,-0.8125,-0.8125,-0.8125,1.880692,3.164161,3.942113,7.741039,6.974597,9.917274,-0.1001716,-0.407835,1.54364,0.2894009,0.3145338,1.473923,0.09586359,0.4648163,1.640354,-0.05786469,-0.3823715,1.493245,0.2314888,0.3184485,1.456146,0.09562089,-0.004437304,1.627665,0.09171499,-0.3294844,1.602209,-0.08916713,0.1748514,1.638007,0.005122815,-0.3225777,1.569503,-0.117707,-0.0820232,1.635041,0.4154144,0.02575323,1.51956,NA,NA,NotTracked,Unknown,
0.6396484,-0.1069336,0.06054688,-0.9746094,0.3286133,-0.04101563,-17,4,6,-21,6,10,22,4,-3,-1,-3,-2,-1,-1,-2,-2,-47.75,-47.75,-47.75,-6.875,-6.875,-6.875,1.592161,3.068074,4.225159,7.734097,6.973915,9.914069,-0.09947724,-0.4101107,1.541682,0.2915409,0.3265277,1.497055,0.09604988,0.4642822,1.639427,-0.05765434,-0.3841382,1.492225,0.2274542,0.3406749,1.484898,0.09563872,-0.004258926,1.627892,0.09151238,-0.3288126,1.602455,-0.0891536,0.174965,1.638021,0.004777124,-0.3218957,1.570172,-0.1176287,-0.0818869,1.635001,0.4220706,0.04074366,1.506439,NA,NA,NotTracked,Unknown,
0.6298828,-0.1450195,-0.06298828,-0.9790039,0.3007813,-0.04492188,-8,15,16,11,11,9,13,8,-3,-1,-3,-1,-1,-1,-1,-1,-50.5,-50.5,-50.5,-6.4375,-6.4375,-6.4375,0.6502959,2.97717,5.124469,7.717387,6.974155,9.905781,-0.09933444,-0.4060934,1.543773,0.2862605,0.3421206,1.528888,0.09704758,0.4628791,1.637452,-0.05623853,-0.4052016,1.492905,0.211002,0.3616872,1.539897,0.0957789,-0.003665841,1.628818,0.09137706,-0.3273531,1.60307,-0.08783213,0.1743209,1.637853,0.004511773,-0.3206035,1.571221,-0.1172125,-0.08149403,1.635347,0.4385617,0.09642472,1.473861,NA,NA,NotTracked,NotTracked,
0.6875,0.453125,-0.3344727,-0.9379883,0.3325195,-0.0390625,-4,28,8,27,-30,-2,-13,-15,0,-2,1,0,-1,-1,-1,-3,-18.5,-18.5,-18.5,2.1875,2.1875,2.1875,0.2006903,2.988683,5.573615,7.702467,6.974453,9.890308,-0.09904253,-0.4066124,1.543965,0.2826251,0.3476913,1.530377,0.09716988,0.4626346,1.637205,-0.05841272,-0.3799712,1.496834,0.2890927,0.2978919,1.544176,0.09616004,-0.003017014,1.628602,0.09140547,-0.3266991,1.603245,-0.08780749,0.1744522,1.637903,0.00449631,-0.3201485,1.571426,-0.1166312,-0.08106569,1.635581,0.4401864,0.1044059,1.470657,NA,NA,NotTracked,NotTracked,
0.6640625,0.1738281,-0.2626953,-0.9248047,0.3417969,-0.04443359,2,-11,-5,36,4,-11,-9,-2,-1,-2,-2,-1,-2,0,1,0,-47.125,-47.125,-47.125,-5.9375,-5.9375,-5.9375,0.08799325,3.001651,5.662139,7.690564,6.974005,9.88078,-0.09784592,-0.406268,1.544195,0.2751969,0.358373,1.527805,0.09732042,0.4625069,1.637129,-0.0575408,-0.3844121,1.495567,0.2019965,0.3738039,1.527706,0.09640207,-0.002670618,1.628451,0.09144879,-0.3264293,1.603333,-0.08776826,0.174702,1.638003,0.004493691,-0.3198878,1.571554,-0.1165892,-0.08109115,1.635849,0.440976,0.1104863,1.46779,NA,NA,NotTracked,NotTracked,
0.6079102,-0.3183594,-0.1152344,-0.9399414,0.3256836,-0.05029297,0,33,2,-18,-2,1,-11,-1,1,0,-1,-1,-2,0,1,-1,27.375,27.375,27.375,-10.75,-10.75,-10.75,0.1774578,3.017385,5.561263,7.68377,6.973448,9.880062,-0.09774358,-0.4066295,1.543875,0.2761301,0.3597257,1.519559,0.09761896,0.4622955,1.636944,-0.05530144,-0.4143831,1.493833,0.2021885,0.3757041,1.518758,0.09664626,-0.002315178,1.628232,0.09158712,-0.32619,1.603334,-0.0863384,0.1747174,1.63814,0.004582339,-0.3196595,1.57153,-0.1165022,-0.08109683,1.635867,0.4412674,0.1136662,1.466125,NA,NA,NotTracked,NotTracked,
0.734375,-0.125,-0.2363281,-0.9580078,0.3149414,-0.05908203,0,7,1,-5,-3,-6,3,13,-2,-1,-1,-1,-1,-2,-1,2,61.9375,61.9375,61.9375,-5.25,-5.25,-5.25,0.2805732,3.029657,5.489697,7.678468,6.973072,9.882473,-0.09723096,-0.404582,1.545446,0.2750216,0.3603525,1.516913,0.0980028,0.4620794,1.636811,-0.05522617,-0.4176683,1.4955,0.2009111,0.3791685,1.511929,0.09693168,-0.001976829,1.628096,0.09177966,-0.3259554,1.603355,-0.08522758,0.1747088,1.638538,0.004697483,-0.3194598,1.571524,-0.116168,-0.0809336,1.636338,0.4414937,0.1155919,1.465088,NA,NA,NotTracked,Unknown,
0.8798828,-0.2324219,-0.3027344,-0.9614258,0.3510742,-0.04931641,-3,27,13,23,23,17,15,11,-1,-1,-1,-1,-1,-1,-1,-3,0.375,0.375,0.375,-1.125,-1.125,-1.125,0.3854441,3.054271,5.401887,7.679614,6.971168,9.884706,-0.09657841,-0.4028898,1.544135,0.2749066,0.3597974,1.516923,0.09809014,0.4619797,1.63682,-0.05647274,-0.3793675,1.495892,0.2013003,0.3764045,1.517313,0.09703333,-0.001908627,1.628459,0.09195844,-0.3257194,1.603295,-0.08457116,0.1747476,1.6388,0.004783308,-0.3193387,1.571517,-0.1160657,-0.08105814,1.636546,0.441445,0.1163787,1.464437,NA,NA,NotTracked,Unknown,
0.9335938,-0.1513672,-0.3344727,-0.9438477,0.3085938,-0.046875,0,34,2,11,8,4,8,-2,-2,0,-2,-2,-1,0,0,-3,8.9375,8.9375,8.9375,-6.5,-6.5,-6.5,0.3787356,3.059921,5.419353,7.686872,6.97038,9.902895,-0.09719875,-0.4030264,1.546552,0.2747991,0.3592811,1.518644,0.09829175,0.4619507,1.636829,-0.05674142,-0.3772474,1.496837,0.2338999,0.3221936,1.4725,0.09732027,-0.001656096,1.628318,0.09209404,-0.3255655,1.603293,-0.08366456,0.1749297,1.639214,0.004873525,-0.3192262,1.571543,-0.1157084,-0.08048477,1.637009,0.4416263,0.1176935,1.463797,NA,NA,NotTracked,Unknown,
0.9311523,-0.09814453,-0.3359375,-0.9389648,0.2929688,-0.04248047,-4,4,-10,-21,-27,1,5,5,0,-1,-2,0,0,0,-1,0,4,4,4,0.3125,0.3125,0.3125,0.3519398,3.059672,5.450728,7.692737,6.971844,9.908661,-0.09696402,-0.4035642,1.54658,0.2752614,0.3595329,1.522205,0.09854151,0.4618536,1.636992,-0.05630045,-0.3720471,1.49912,0.2012764,0.3769461,1.519441,0.09735125,-0.001660165,1.628829,0.09220866,-0.3253995,1.603391,-0.08282983,0.1749772,1.63955,0.004977562,-0.3190205,1.571653,-0.1152285,-0.08027472,1.637506,0.44168,0.1192691,1.462907,NA,NA,NotTracked,Unknown,
0.9057617,-0.07958984,-0.3334961,-0.9296875,0.3393555,-0.03466797,4,17,3,-4,-7,-6,-11,-5,1,1,-1,-2,0,0,0,0,4.875,4.875,4.875,12.1875,12.1875,12.1875,0.2633125,3.056329,5.541759,7.709668,6.97087,9.913973,-0.09701304,-0.4040156,1.546165,0.2762626,0.3588945,1.523271,0.09904503,0.4617106,1.637138,-0.05602834,-0.3807036,1.497004,0.2011468,0.37818,1.522197,0.09757129,-0.001733137,1.629166,0.09239503,-0.3252997,1.603381,-0.08233266,0.1749077,1.639672,0.005058473,-0.318988,1.571672,-0.115033,-0.07986727,1.637906,0.4417678,0.1199801,1.462494,NA,NA,NotTracked,NotTracked,
0.8764648,-0.02880859,-0.3349609,-0.9345703,0.3378906,-0.03857422,-5,6,5,15,3,4,4,11,-1,0,-1,0,-1,0,-1,-2,0.25,0.25,0.25,1.4375,1.4375,1.4375,0.2300439,3.055203,5.581472,7.72251,6.968621,9.922735,-0.09691976,-0.4035569,1.5469,0.2781816,0.3588203,1.524728,0.0995554,0.4616033,1.637376,-0.05625437,-0.3825888,1.496704,0.2022109,0.3773017,1.520207,0.09787312,-0.001389925,1.629018,0.09261306,-0.3249979,1.603503,-0.08265215,0.1752697,1.63973,0.00524637,-0.3186491,1.571746,-0.1148386,-0.07972212,1.638082,0.4400731,0.1128017,1.463991,NA,NA,NotTracked,NotTracked,
0.8764648,-0.02880859,-0.3349609,-0.9345703,0.3378906,-0.03857422,-5,6,5,15,3,4,4,11,-1,0,-1,0,-1,0,-1,-2,0.25,0.25,0.25,1.4375,1.4375,1.4375,0.2300439,3.055203,5.581472,7.72251,6.968621,9.922735,-0.0963684,-0.4068124,1.546099,0.2783379,0.3601029,1.525637,0.1000432,0.4615497,1.63758,-0.0555003,-0.3888188,1.495459,0.2050476,0.3775583,1.532933,0.09812886,-0.00117575,1.628871,0.09277872,-0.3248511,1.603571,-0.0817415,0.1751692,1.640006,0.005375429,-0.3185076,1.571819,-0.1147271,-0.07980924,1.638436,0.4402323,0.1144833,1.463179,NA,NA,NotTracked,NotTracked,
0.8520508,-0.05615234,-0.2744141,-0.9506836,0.3129883,-0.03271484,-5,-2,4,4,7,4,4,-2,-2,-2,-1,-2,-1,-3,0,-1,0.25,0.25,0.25,0.4375,0.4375,0.4375,0.2236499,3.050432,5.588604,7.732738,6.968669,9.934115,-0.0968552,-0.4109654,1.546158,0.2796799,0.3585852,1.525754,0.1003518,0.4615127,1.637685,-0.05606035,-0.3818948,1.496806,0.2081173,0.3731043,1.52879,0.09836658,-0.0009858106,1.628708,0.09296435,-0.3246738,1.603585,-0.08092577,0.1751847,1.640103,0.005541914,-0.3183431,1.571837,-0.1144377,-0.07974795,1.638672,0.4403856,0.1156053,1.462564,NA,NA,NotTracked,NotTracked,
0.7651367,-0.1040039,-0.1762695,-0.9580078,0.3139648,-0.03027344,1,16,2,-2,5,3,2,1,-4,-1,-2,-2,-1,-3,-1,-4,34,34,34,3.4375,3.4375,3.4375,0.3020177,3.030855,5.533906,7.738505,6.968892,9.938384,-0.09760199,-0.4153898,1.545703,0.2825861,0.3562045,1.524353,0.1007313,0.4614328,1.637707,-0.05624959,-0.3834412,1.496736,0.2094327,0.3714257,1.533357,0.09856093,-0.0007934899,1.628596,0.09312821,-0.3244857,1.603648,-0.08050025,0.1750621,1.640261,0.005750058,-0.318093,1.572005,-0.1140432,-0.07958768,1.639038,0.4403585,0.1155293,1.462423,NA,NA,NotTracked,NotTracked,
0.7226563,-0.02441406,-0.1210938,-0.9575195,0.331543,-0.03027344,-6,-3,0,-65,-54,-21,-12,-9,-5,-2,-1,-2,-2,-2,-1,-6,47.75,47.75,47.75,4.875,4.875,4.875,0.3837372,3.016105,5.475517,7.748549,6.969651,9.943393,-0.09739255,-0.4140046,1.5469,0.2841713,0.3504554,1.518857,0.1014214,0.4613465,1.637847,-0.05609789,-0.383475,1.496854,0.3244598,0.3970279,1.516824,0.09888396,-0.0005758263,1.628505,0.09335655,-0.3242261,1.603732,-0.08020019,0.1750059,1.640471,0.005932021,-0.3179228,1.572114,-0.1135691,-0.07944739,1.639258,0.4397478,0.1135306,1.46257,NA,NA,NotTracked,NotTracked,
0.6293945,-0.2036133,-0.02978516,-0.9414063,0.3369141,-0.02050781,4,-17,1,33,18,0,-2,-1,-1,-2,-1,-1,-1,-1,-2,-3,109.1875,109.1875,109.1875,3.375,3.375,3.375,0.9188114,3.029099,5.061011,7.750472,6.970222,9.941793,-0.09734034,-0.4137936,1.546697,0.2834131,0.3396143,1.506522,0.1019337,0.4612632,1.638058,-0.05621067,-0.382576,1.497038,0.3212908,0.3955275,1.501185,0.09923915,-0.0002816964,1.629214,0.09374316,-0.3236587,1.603895,-0.08077651,0.1753559,1.640448,0.006322172,-0.3174357,1.572364,-0.1130036,-0.07941759,1.639255,0.4375355,0.1066853,1.463757,NA,NA,NotTracked,Unknown,
0.6547852,-0.02978516,-0.3481445,-0.9394531,0.324707,-0.03417969,9,101,-15,-22,20,-1,-11,12,-2,-1,0,1,-1,-1,-2,0,133.9375,133.9375,133.9375,2.0625,2.0625,2.0625,1.419979,3.124388,4.688511,7.752612,6.971411,9.942325,-0.09792145,-0.4106445,1.547652,0.2752517,0.3248316,1.492857,0.1023036,0.4612223,1.63822,-0.05623648,-0.3815784,1.498297,0.3097746,0.3864608,1.486381,0.1002831,0.0006168148,1.629987,0.09434737,-0.3225542,1.604147,-0.08106091,0.1757286,1.64043,0.006893625,-0.316398,1.572502,-0.1124569,-0.07839945,1.639398,0.4270845,0.07334772,1.476842,NA,NA,NotTracked,Unknown,
0.6831055,0.1342773,-0.543457,-0.9482422,0.3325195,-0.03955078,0,25,-3,0,17,-1,-5,26,-2,0,-3,-1,0,0,-1,-2,49.8125,49.8125,49.8125,0.9375,0.9375,0.9375,1.571499,3.168013,4.551779,7.753573,6.971421,9.942687,-0.0964458,-0.4118906,1.547194,0.2676208,0.2946308,1.471718,0.1027182,0.4611569,1.638424,-0.05170152,-0.4155441,1.495929,0.2667594,0.3042069,1.428167,0.1013479,0.001469391,1.630782,0.09488874,-0.3216814,1.60432,-0.08135005,0.1761632,1.640512,0.007404304,-0.3154207,1.572588,-0.1117502,-0.07681064,1.639548,0.4200337,0.05392296,1.488865,NA,NA,NotTracked,Unknown,
0.8408203,-0.6142578,0.440918,-0.9750977,0.3369141,-0.06640625,34,17,-76,-101,-41,2,-3,6,-3,-1,-1,-1,-1,-2,-2,-1,-434.75,-434.75,-434.75,-12.1875,-12.1875,-12.1875,1.491877,3.198407,4.156172,7.749376,6.969223,9.947762,-0.09536194,-0.4138835,1.545545,0.2624876,0.2674881,1.446573,0.103182,0.4612098,1.638614,-0.05331877,-0.4030083,1.495967,0.2278518,0.2713211,1.529385,0.1020127,0.001662834,1.631052,0.09519503,-0.321409,1.604318,-0.08020021,0.1763973,1.640853,0.007748263,-0.3151348,1.572547,-0.111185,-0.07529808,1.639493,0.4135803,0.04084832,1.498036,NA,NA,NotTracked,Unknown,
0.8408203,-0.6142578,0.440918,-0.9189453,0.2963867,-0.08105469,-93,-19,5,-23,-9,15,21,11,-1,-1,-1,-3,-3,-1,0,-2,-434.75,-434.75,-434.75,-19.9375,-19.9375,-19.9375,1.491877,3.198407,4.156172,7.726954,6.967752,9.945402,-0.09380743,-0.4143459,1.545085,0.2568984,0.2483357,1.428733,0.1035791,0.4614282,1.638888,-0.05330057,-0.3887631,1.497073,0.2488792,0.243033,1.508833,0.102275,0.001623858,1.631176,0.09564194,-0.3216153,1.604336,-0.07951057,0.1763702,1.641075,0.008138916,-0.3152527,1.572591,-0.1106871,-0.07479879,1.639462,0.4078382,0.02916366,1.507151,NA,NA,NotTracked,Closed,
0.5776367,-2.462402,0.1157227,-1.007813,0.3120117,-0.03662109,27,-54,-31,3,-8,-1,3,8,0,-1,0,-2,-1,-1,0,0,484.3125,484.3125,484.3125,-12.0625,-12.0625,-12.0625,1.889481,3.524564,3.760398,7.690106,6.965642,9.923564,-0.09242523,-0.4164175,1.542631,0.2560933,0.234497,1.426935,0.1038969,0.4615774,1.63922,-0.05226718,-0.3944824,1.495538,0.2677682,0.2728322,1.476231,0.1024807,0.001324333,1.631279,0.09614997,-0.3222692,1.604269,-0.07906243,0.1764261,1.641341,0.008560285,-0.3158263,1.572593,-0.1103524,-0.07468314,1.639525,0.4052783,0.02129399,1.512105,NA,NA,NotTracked,Closed,
1.374023,-0.2099609,-1.040039,-0.9594727,0.315918,-0.01660156,-28,10,-13,11,-2,-8,-16,-13,-1,0,-1,-1,-2,0,-2,-2,621.1875,621.1875,621.1875,-2.9375,-2.9375,-2.9375,2.637376,3.740075,3.723274,7.674238,6.965598,9.908702,-0.09104534,-0.4144609,1.541356,0.2614878,0.2214272,1.423616,0.104265,0.4618119,1.639534,-0.0510407,-0.379096,1.497463,0.296364,0.2421559,1.408406,0.1026336,0.001088865,1.630796,0.09652312,-0.3230916,1.604209,-0.07991826,0.1767448,1.641392,0.008907737,-0.3167695,1.572767,-0.1096587,-0.07518127,1.639743,0.4028261,0.01343992,1.515731,NA,NA,NotTracked,Unknown,
1.413086,1.056152,-0.4824219,-0.9438477,0.3417969,-0.04052734,17,-6,30,9,-4,18,9,3,0,-3,-1,0,-1,-3,-2,-1,104.125,104.125,104.125,6.3125,6.3125,6.3125,2.7283,3.764512,3.676103,7.667078,6.963687,9.895199,-0.08865249,-0.4163221,1.540925,0.2611225,0.20581,1.420047,0.1046696,0.4620831,1.639709,-0.0477779,-0.3988552,1.494863,0.1852543,0.1940807,1.399933,0.1030127,0.0004197832,1.630977,0.09704781,-0.3244534,1.604255,-0.07964975,0.1766009,1.641587,0.009326357,-0.3180425,1.572833,-0.1093146,-0.07528793,1.639963,0.3983475,0.004225645,1.524257,NA,NA,NotTracked,Unknown,
0.4707031,-1.257813,-0.05419922,-0.9013672,0.3544922,-0.05126953,28,-39,11,2,7,2,-8,-16,-3,0,-1,-1,0,0,-1,-3,-400.25,-400.25,-400.25,3.6875,3.6875,3.6875,2.429864,3.82527,3.576931,7.679744,6.966595,9.902369,-0.08798385,-0.4124995,1.540638,0.2608609,0.1889745,1.420763,0.1051961,0.462344,1.639721,-0.04899538,-0.3785167,1.497587,0.1836424,0.1763797,1.4175,0.1032029,-0.0002161827,1.630927,0.0976309,-0.3259715,1.604017,-0.07952552,0.1765466,1.641595,0.009911077,-0.3196148,1.572401,-0.1084615,-0.07627357,1.64032,0.3964424,-0.001577742,1.528839,NA,NA,NotTracked,Unknown,
0.6049805,-2.499512,-0.07177734,-0.9331055,0.3178711,-0.05859375,-5,-21,8,-5,-5,12,23,1,-1,-1,-2,-2,-1,-1,-1,-1,-170.625,-170.625,-170.625,3.75,3.75,3.75,2.343055,3.871523,3.564955,7.704109,6.972926,9.925329,-0.08750754,-0.413134,1.540792,0.2582538,0.1726831,1.422884,0.105964,0.4625995,1.639421,-0.05009079,-0.3880578,1.496626,0.236127,0.1428354,1.5235,0.1035137,-0.0008163525,1.630794,0.09817198,-0.3270255,1.603913,-0.07928868,0.1766643,1.641606,0.01041016,-0.3206612,1.572089,-0.1080539,-0.07652976,1.640309,0.3931769,-0.00751737,1.537404,NA,NA,NotTracked,Unknown,
0.934082,-0.5908203,-0.1625977,-0.9589844,0.3276367,-0.04785156,2,1,-28,-38,-20,-8,9,-28,0,-1,0,-1,-1,-1,-1,1,190.4375,190.4375,190.4375,22.625,22.625,22.625,2.632938,4.004522,3.576439,7.741427,6.98028,9.943436,-0.08778961,-0.4137302,1.543316,0.2548381,0.1557241,1.422424,0.1078,0.4629724,1.638711,-0.0495753,-0.3880035,1.496815,0.18063,0.1428418,1.403524,0.1043812,-0.001882381,1.63049,0.09926267,-0.3284267,1.603827,-0.078525,0.1765375,1.641376,0.01149967,-0.3221307,1.571577,-0.1075599,-0.07680471,1.640208,0.3899118,-0.0130013,1.549586,NA,NA,NotTracked,Unknown,
0.7700195,-0.543457,-0.09521484,-0.940918,0.355957,-0.06640625,-1,8,14,48,17,5,7,0,-4,-4,-2,-1,-1,1,0,0,-97.625,-97.625,-97.625,20.3125,20.3125,20.3125,2.594026,4.002432,3.56981,7.762855,6.981555,9.953795,-0.08759161,-0.4135482,1.544287,0.2556471,0.1515457,1.421813,0.1090986,0.4628851,1.638087,-0.04889797,-0.3850594,1.497042,0.1818349,0.1372934,1.4,0.1051458,-0.002546493,1.630288,0.09984452,-0.3290369,1.603829,-0.07748795,0.1764036,1.640668,0.01207895,-0.3226936,1.571523,-0.1071856,-0.07737128,1.639847,0.3895574,-0.01372092,1.552268,NA,NA,NotTracked,Unknown,
0.6518555,-1.010742,0.02294922,-0.9628906,0.3295898,-0.07275391,-1,17,16,35,19,12,37,14,-2,-2,-1,0,0,1,0,-1,-125.0625,-125.0625,-125.0625,3.6875,3.6875,3.6875,2.534108,4.008452,3.553664,7.79212,6.982753,9.975133,-0.08757503,-0.4136125,1.544402,0.2586685,0.1493935,1.419304,0.1104357,0.4629404,1.637564,-0.04948145,-0.3875687,1.496573,0.2196123,0.1393628,1.514667,0.1058207,-0.003009293,1.630114,0.1004363,-0.329468,1.6038,-0.07626504,0.1765612,1.639857,0.01274639,-0.3231178,1.571316,-0.1066677,-0.07752125,1.639437,0.3893348,-0.01403674,1.553414,NA,NA,NotTracked,Unknown,
0.6650391,-0.7055664,-0.02685547,-0.9462891,0.2963867,-0.06445313,0,16,7,40,22,3,5,2,0,0,0,-2,-1,-1,-2,-1,36.1875,36.1875,36.1875,7.75,7.75,7.75,2.547281,4.017286,3.537812,7.805057,6.983404,9.982739,-0.08788151,-0.4141055,1.544133,0.2615977,0.1491659,1.417548,0.111828,0.4631099,1.636753,-0.04926989,-0.3870268,1.496573,0.2185835,0.1383719,1.51373,0.1064158,-0.003302647,1.629884,0.1008678,-0.3297603,1.603721,-0.07502669,0.1766326,1.638799,0.01320713,-0.3233821,1.571105,-0.1063057,-0.07745734,1.639,0.3893958,-0.01401277,1.554285,NA,NA,NotTracked,Unknown,
0.5849609,-0.7749023,0.02978516,-0.9428711,0.3300781,-0.04736328,0,4,0,-13,0,-4,-10,4,-1,-3,0,-1,-1,-2,0,-1,-27.0625,-27.0625,-27.0625,13.5625,13.5625,13.5625,2.539954,4.007374,3.525619,7.814595,6.981888,9.977881,-0.08826621,-0.4137367,1.544428,0.2644768,0.1508224,1.41735,0.1133879,0.4630922,1.635868,-0.0492862,-0.3871549,1.496316,0.2218555,0.1389442,1.515085,0.1069711,-0.003513798,1.629736,0.1013462,-0.3300519,1.603726,-0.07410049,0.1766248,1.637859,0.01366041,-0.32363,1.570952,-0.1058679,-0.07766918,1.638249,0.3895021,-0.01413432,1.555313,NA,NA,NotTracked,Unknown,
0.5380859,-0.8330078,0.04785156,-0.9448242,0.3291016,-0.05419922,-1,10,-10,-19,11,7,0,10,-1,-2,-3,-1,0,0,-1,0,-30.5625,-30.5625,-30.5625,5.9375,5.9375,5.9375,2.529246,4.004907,3.516764,7.821161,6.978743,9.975021,-0.08785403,-0.4139948,1.543511,0.2664645,0.1521644,1.41548,0.1149139,0.463244,1.635068,-0.04788488,-0.3814108,1.496253,0.2345902,0.1356481,1.5194,0.107391,-0.003591149,1.629615,0.1016045,-0.3301417,1.603789,-0.07519403,0.1771212,1.637628,0.01395106,-0.3237304,1.570934,-0.1053206,-0.07799527,1.637171,0.3896043,-0.01408842,1.555345,NA,NA,NotTracked,Unknown,
0.574707,-0.7426758,0.04541016,-0.9511719,0.3081055,-0.0625,-4,4,-3,20,5,8,4,-3,-1,0,-3,-1,-1,0,-1,-4,-32.25,-32.25,-32.25,0.5,0.5,0.5,2.508532,3.992573,3.494908,7.823633,6.976386,9.976577,-0.08806702,-0.4148039,1.542636,0.2691137,0.1509929,1.409979,0.1162576,0.4634383,1.63417,-0.04885983,-0.385771,1.496484,0.2386035,0.1326528,1.51875,0.1079178,-0.003782586,1.629391,0.1021645,-0.3304349,1.603784,-0.07341583,0.1773025,1.636233,0.01446152,-0.3239831,1.570783,-0.1048959,-0.07850259,1.636334,0.3896823,-0.01405455,1.555446,NA,NA,NotTracked,Unknown,
0.4702148,-0.8046875,0.06738281,-0.9526367,0.3081055,-0.06640625,-1,-2,0,-10,-3,-1,-1,-3,-2,-1,-1,0,0,0,-1,-2,-2.6875,-2.6875,-2.6875,-1,-1,-1,2.518808,4.009036,3.464639,7.820168,6.972254,9.9735,-0.08748332,-0.4168238,1.540953,0.2717206,0.1496684,1.407265,0.1175829,0.4635739,1.633361,-0.04722719,-0.3806177,1.496287,0.2261669,0.1470787,1.510714,0.108409,-0.00383511,1.629153,0.1027445,-0.3306259,1.603788,-0.07242108,0.1774314,1.635397,0.01503638,-0.3241768,1.570596,-0.1043943,-0.07891125,1.635472,0.3898132,-0.0140135,1.55546,NA,NA,NotTracked,Unknown,
0.480957,-0.6499023,0.01757813,-0.9467773,0.3007813,-0.06054688,-2,3,0,21,9,0,-4,-2,0,0,0,-1,-1,-1,0,-1,24.1875,24.1875,24.1875,-2.6875,-2.6875,-2.6875,2.564176,4.044867,3.430611,7.814165,6.970315,9.968964,-0.08720665,-0.4163146,1.539763,0.2733154,0.1468249,1.402835,0.1187115,0.4638899,1.632649,-0.04328397,-0.4067539,1.492238,0.2147575,0.1487869,1.5035,0.1091768,-0.003927054,1.628745,0.1033558,-0.3307687,1.603772,-0.07115583,0.1776041,1.634228,0.01570992,-0.3243501,1.57046,-0.1039032,-0.07944728,1.634324,0.3897786,-0.01400262,1.555517,NA,NA,NotTracked,Unknown,
0.480957,-0.6499023,0.01757813,-0.9467773,0.3007813,-0.06054688,-2,3,0,21,9,0,-4,-2,0,0,0,-1,-1,-1,0,-1,24.1875,24.1875,24.1875,-2.6875,-2.6875,-2.6875,2.564176,4.044867,3.430611,7.814165,6.970315,9.968964,-0.08634287,-0.4163721,1.537168,0.2734353,0.1398991,1.39195,0.1197012,0.4641083,1.632183,-0.04592757,-0.39288,1.494839,0.2329481,0.1580902,1.42525,0.1096676,-0.004042422,1.628318,0.1038641,-0.3309986,1.603745,-0.07019435,0.1776057,1.633206,0.01635066,-0.3246019,1.570328,-0.1036568,-0.08004602,1.633247,0.3890923,-0.01453251,1.556099,NA,NA,NotTracked,Unknown,
0.4750977,-0.5527344,0.01367188,-0.9311523,0.2875977,-0.05371094,-70,-4,0,-2,-3,-1,1,3,0,-1,-3,-2,-1,-2,-3,-1,-0.0625,-0.0625,-0.0625,-3.125,-3.125,-3.125,2.57836,4.068079,3.404432,7.797944,6.966649,9.955776,-0.08596671,-0.415134,1.537962,0.274226,0.1240986,1.379144,0.1204142,0.4643669,1.632086,-0.04193945,-0.4044868,1.494036,0.223422,0.09889387,1.345111,0.1100753,-0.004019814,1.628243,0.10455,-0.3310176,1.603966,-0.06926881,0.1777677,1.632754,0.01701036,-0.3246654,1.570526,-0.1034411,-0.07994541,1.633113,0.3876188,-0.01481218,1.556789,NA,NA,NotTracked,Unknown,
0.3173828,-0.4453125,0.07128906,-0.9394531,0.3037109,-0.04443359,6,2,-7,1,1,1,-3,1,-2,-1,-1,-1,-3,-1,-2,-2,-52.5,-52.5,-52.5,-1,-1,-1,2.569976,4.1498,3.331797,7.782372,6.96397,9.940692,-0.08462617,-0.4173629,1.533905,0.2769504,0.09781582,1.364421,0.1212392,0.4647226,1.631861,-0.04240673,-0.3861123,1.494619,0.25815,0.06857912,1.3284,0.1106155,-0.003927973,1.627943,0.1050322,-0.3310158,1.604028,-0.06846008,0.1777819,1.632084,0.01775129,-0.3246597,1.570646,-0.1030763,-0.08004216,1.632589,0.3854195,-0.01519731,1.556211,NA,NA,NotTracked,Lasso,
0.2670898,-0.5263672,0.08789063,-0.9477539,0.3100586,-0.04492188,19,5,2,-2,-2,1,11,28,-1,2,1,-1,0,-1,-1,-3,-48.9375,-48.9375,-48.9375,-4.5,-4.5,-4.5,2.562338,4.221113,3.293107,7.766762,6.962655,9.928465,-0.08325005,-0.4170934,1.533004,0.277495,0.06519275,1.345815,0.1216803,0.4651368,1.631909,-0.04249472,-0.3978603,1.493547,0.2627987,0.03190469,1.31225,0.1111322,-0.003655802,1.627847,0.1059271,-0.330557,1.604417,-0.06796377,0.1778548,1.631873,0.01897446,-0.3242199,1.571268,-0.1027781,-0.08015148,1.632171,0.3797853,-0.01501097,1.555073,NA,NA,NotTracked,Lasso,
0.06103516,-0.6503906,0.1655273,-0.9506836,0.3022461,-0.05175781,4,4,-9,0,5,0,-14,-33,0,-2,-1,-1,-1,0,0,-1,-18.0625,-18.0625,-18.0625,-6.25,-6.25,-6.25,2.567411,4.555841,3.186428,7.753847,6.965239,9.921908,-0.08275922,-0.4179535,1.532279,0.2829244,0.02150406,1.327223,0.1219924,0.4654381,1.631901,-0.04062749,-0.3989703,1.492834,0.2718127,-0.01504339,1.288818,0.1115599,-0.003324609,1.62757,0.1064451,-0.3301376,1.604397,-0.07045279,0.1783044,1.632441,0.01960902,-0.3237972,1.571367,-0.1024609,-0.08010502,1.631811,0.3745291,-0.04928508,1.519118,NA,NA,NotTracked,Unknown,
-0.07373047,-0.7070313,0.04052734,-0.9614258,0.2993164,-0.06298828,11,4,-7,-8,-24,-20,-12,-6,-1,-1,-1,-3,-1,-2,-1,0,-37.75,-37.75,-37.75,-6.5625,-6.5625,-6.5625,2.53783,4.834814,3.125791,7.743766,6.970154,9.918763,-0.08155407,-0.4181188,1.531641,0.2781126,-0.03473194,1.311504,0.1222733,0.4658831,1.63194,-0.04094779,-0.3926128,1.493337,0.2944254,-0.02765957,1.271467,0.112288,-0.002938729,1.62721,0.1070938,-0.3298232,1.604385,-0.06873833,0.1784883,1.631599,0.02027461,-0.3234656,1.571355,-0.1019308,-0.07993683,1.631282,0.3796934,-0.06931713,1.479452,NA,NA,NotTracked,Unknown,
-0.1733398,-0.7387695,0.02441406,-0.9604492,0.3022461,-0.06396484,13,9,0,1,-6,-7,-1,-3,-1,-2,-1,-2,-2,0,-1,-2,-16.25,-16.25,-16.25,-5.8125,-5.8125,-5.8125,2.530497,4.977385,3.098421,7.73981,6.973376,9.917443,-0.07977556,-0.4168426,1.531784,0.2774293,-0.09712905,1.294223,0.1224116,0.4665026,1.632336,-0.0380075,-0.3865161,1.493674,0.2948104,-0.1455252,1.27625,0.1126634,-0.002729649,1.627083,0.1076249,-0.3296636,1.604483,-0.06803432,0.1784736,1.631414,0.02072859,-0.3233045,1.571396,-0.1013166,-0.07980757,1.631076,0.4108069,-0.01016955,1.561023,NA,NA,NotTracked,Unknown,
-0.4467773,-1.028809,0.1542969,-0.9614258,0.3125,-0.06542969,6,5,-2,0,15,11,0,-12,-1,0,-1,-1,-1,-1,-1,-2,-58.625,-58.625,-58.625,-5.9375,-5.9375,-5.9375,2.484983,5.278185,3.064855,7.731534,6.979499,9.914506,-0.0784966,-0.4184374,1.530759,0.2887095,-0.1584688,1.296111,0.1224713,0.467248,1.632565,-0.03796154,-0.3900603,1.491857,0.303794,-0.2185814,1.2855,0.1130832,-0.002393495,1.62671,0.1079014,-0.3294902,1.604455,-0.06743356,0.1785214,1.631018,0.02102019,-0.3231116,1.571368,-0.1005615,-0.07871953,1.630476,0.378877,-0.03210008,1.607739,NA,NA,NotTracked,Unknown,
-0.4321289,-1.021973,0.1450195,-0.9389648,0.3188477,-0.07568359,-5,-1,-2,-2,2,0,-2,1,0,-2,-1,1,-1,-1,-1,-1,-60.6875,-60.6875,-60.6875,-2.4375,-2.4375,-2.4375,2.451827,5.421878,3.059775,7.726305,6.984663,9.912735,-0.07706877,-0.4174184,1.531009,0.2954159,-0.2092754,1.315494,0.1224349,0.4679135,1.632946,-0.03814099,-0.3939252,1.491739,0.3077776,-0.2621391,1.282833,0.1135771,-0.002197264,1.626247,0.1084217,-0.3293515,1.604312,-0.06689358,0.1784442,1.630555,0.02152836,-0.3229885,1.571176,-0.09977902,-0.07909039,1.630071,0.3779407,-0.03794011,1.607414,NA,NA,NotTracked,Unknown,
-0.8579102,-1.075195,-0.2329102,-0.9433594,0.3476563,-0.06298828,-3,-3,-1,2,-4,-3,-1,-2,-1,0,-1,-2,-4,-2,-1,-1,-38.1875,-38.1875,-38.1875,-1.75,-1.75,-1.75,2.254012,6.133713,3.015773,7.73113,6.987247,9.918069,-0.074885,-0.41851,1.533101,0.298157,-0.3141041,1.361784,0.122247,0.4691975,1.634167,-0.0350529,-0.3876916,1.4913,0.3228229,-0.3472347,1.329615,0.1146416,-0.001990986,1.625666,0.1103264,-0.3295905,1.604068,-0.06622217,0.1780949,1.630216,0.02344698,-0.3230992,1.570687,-0.09824026,-0.0795063,1.629779,0.352937,-0.04817104,1.605254,NA,NA,NotTracked,Unknown,
-0.984375,-1.038574,-0.1987305,-0.9433594,0.3457031,-0.07177734,-9,-6,-1,-2,4,-1,-2,-3,0,-2,-2,-1,-2,0,0,-1,-26.375,-26.375,-26.375,-3,-3,-3,2.221643,6.266593,2.990104,7.741411,6.986195,9.931771,-0.07386004,-0.4190219,1.534543,0.2962465,-0.3596733,1.38815,0.1222421,0.4699073,1.635055,-0.03385013,-0.393882,1.490056,0.3254493,-0.3660539,1.36875,0.1154046,-0.002045528,1.625483,0.1122365,-0.3301343,1.603845,-0.06598824,0.1779675,1.630274,0.0253794,-0.3234458,1.570214,-0.09779217,-0.0799296,1.629745,0.3451529,-0.06787492,1.602121,NA,NA,NotTracked,Unknown,
-1.099121,-0.8881836,-0.2050781,-0.9643555,0.3208008,-0.05371094,0,-2,-1,0,3,5,6,0,0,-1,-2,-2,-2,-1,-2,-2,-21.4375,-21.4375,-21.4375,-1.75,-1.75,-1.75,2.146824,6.498354,2.923815,7.749989,6.984483,9.943831,-0.07360238,-0.4196931,1.534801,0.2956119,-0.3903486,1.419897,0.1222612,0.4700983,1.635429,-0.03469424,-0.388803,1.491019,0.3253432,-0.377214,1.403052,0.1161038,-0.002244908,1.625294,0.1137099,-0.330753,1.603587,-0.06581929,0.1778488,1.63026,0.02685957,-0.3238715,1.569598,-0.09728103,-0.0801229,1.629717,0.3421372,-0.07173957,1.602204,NA,NA,NotTracked,Unknown,
-1.11377,-0.4833984,-0.2348633,-0.9462891,0.3237305,-0.05078125,4,1,-2,1,-2,-2,-3,-4,-1,-1,-2,-1,-2,-1,-1,-1,-63.875,-63.875,-63.875,1.625,1.625,1.625,1.981011,6.74914,2.816824,7.759685,6.982054,9.952945,-0.07438878,-0.4197486,1.534819,0.2903259,-0.4059393,1.474836,0.122356,0.4702428,1.635706,-0.03365798,-0.3867092,1.490104,0.3352247,-0.4159578,1.470667,0.1172666,-0.002552042,1.624607,0.1152755,-0.3314197,1.602905,-0.06529509,0.1774227,1.630072,0.02835469,-0.3244396,1.568831,-0.09647769,-0.08060401,1.629586,0.3366767,-0.07548592,1.601427,NA,NA,NotTracked,Unknown,
-0.9716797,-0.8076172,-1.227051,-0.9404297,0.3149414,-0.04833984,-27,-8,0,5,1,2,6,2,0,-2,0,-1,-2,-2,0,1,-56.9375,-56.9375,-56.9375,0.9375,0.9375,0.9375,1.831205,6.768598,2.700756,7.766768,6.97983,9.958712,-0.07462518,-0.4197914,1.534619,0.290477,-0.4026483,1.487963,0.1224553,0.4702868,1.635781,-0.03417537,-0.3966146,1.488754,0.3349464,-0.4213537,1.485,0.117832,-0.002630446,1.624305,0.1160604,-0.3315965,1.602573,-0.06501708,0.1771405,1.63007,0.02914253,-0.3246586,1.568488,-0.09621691,-0.08068682,1.629578,0.3357997,-0.07464834,1.60096,NA,NA,NotTracked,Unknown,
-1.223145,-0.4628906,-0.456543,-0.9580078,0.3144531,-0.04492188,-23,-27,-2,3,0,-3,-4,-1,-1,1,0,-1,-2,-1,-1,-2,67.9375,67.9375,67.9375,-0.5,-0.5,-0.5,1.782781,6.822135,2.593457,7.769051,6.978563,9.961411,-0.07443235,-0.4200522,1.534928,0.2904378,-0.4031611,1.493236,0.1225627,0.4703821,1.635892,-0.0319423,-0.409902,1.486355,0.3326522,-0.4198866,1.490437,0.1183454,-0.002711383,1.624138,0.1165858,-0.3318077,1.602497,-0.06472047,0.1769616,1.630069,0.02965777,-0.3248191,1.568355,-0.09597165,-0.08091597,1.62965,0.3342355,-0.07603675,1.60146,NA,NA,NotTracked,NotTracked,
-0.7915039,-0.6938477,-0.04199219,-0.9575195,0.3061523,-0.04345703,5,-3,-1,-3,-1,0,0,0,0,0,-1,-1,0,-1,-1,-3,22.4375,22.4375,22.4375,2.125,2.125,2.125,1.81768,6.835706,2.61357,7.770552,6.978399,9.962036,-0.07482882,-0.4199834,1.533719,0.2909409,-0.4038012,1.491925,0.1226813,0.470454,1.635882,-0.03358635,-0.4016562,1.488115,0.3387392,-0.4082314,1.500286,0.1188606,-0.00269849,1.623846,0.1169473,-0.3318874,1.602395,-0.06438547,0.1768759,1.629898,0.03000984,-0.3248808,1.568212,-0.09593364,-0.08082553,1.629595,0.3341435,-0.07585051,1.601595,NA,NA,NotTracked,NotTracked,
-0.9272461,-0.3891602,-0.4082031,-0.9589844,0.3066406,-0.04443359,-9,-2,0,1,-1,1,-2,1,1,-1,-2,-2,-1,0,-1,-2,-1.0625,-1.0625,-1.0625,4.1875,4.1875,4.1875,1.763839,6.804404,2.575232,7.772161,6.979108,9.961354,-0.07449099,-0.4174162,1.53498,0.2925838,-0.4047311,1.49107,0.1228032,0.4705149,1.635898,-0.03360771,-0.3869106,1.49,0.3371316,-0.4125513,1.48463,0.1192042,-0.002730632,1.623724,0.1173327,-0.3319103,1.602384,-0.0641797,0.1768257,1.629907,0.03040091,-0.3249308,1.568244,-0.09569474,-0.08095392,1.629514,0.334315,-0.07551632,1.602132,NA,NA,NotTracked,NotTracked,
-0.8745117,-0.3857422,-0.1621094,-0.9428711,0.3134766,-0.04150391,15,9,1,-1,-1,-1,0,0,-2,-1,0,0,0,0,-3,-1,-12.5,-12.5,-12.5,6.9375,6.9375,6.9375,1.762993,6.781636,2.574598,7.774508,6.980524,9.956591,-0.07502275,-0.417005,1.534774,0.2949584,-0.4042839,1.490028,0.1229219,0.4705395,1.635865,-0.03286688,-0.399621,1.488282,0.3419843,-0.4112646,1.487433,0.1194752,-0.002778459,1.623663,0.1178075,-0.3320427,1.602378,-0.06399163,0.1766687,1.629849,0.03087901,-0.3250564,1.568191,-0.09557819,-0.08105975,1.629455,0.3339067,-0.07793689,1.603861,NA,NA,NotTracked,NotTracked,
-0.9038086,-0.390625,-0.09912109,-0.9345703,0.3120117,-0.04882813,5,2,3,1,0,-1,-1,-2,-1,-3,-2,-1,0,-2,-2,-1,-32.25,-32.25,-32.25,6.8125,6.8125,6.8125,1.745147,6.778364,2.572815,7.777532,6.982236,9.951437,-0.07429748,-0.4168198,1.535178,0.2976135,-0.4043114,1.488952,0.1230824,0.4705228,1.635829,-0.03368345,-0.3975531,1.489109,0.3470098,-0.4167693,1.48325,0.1197595,-0.002847061,1.623661,0.1181422,-0.3321788,1.602499,-0.06336526,0.1766043,1.629651,0.03118984,-0.3251407,1.56827,-0.09512635,-0.08158559,1.629572,0.3337152,-0.07939536,1.604869,NA,NA,NotTracked,NotTracked,
-0.9238281,-0.434082,-0.09326172,-0.9501953,0.3217773,-0.05810547,-9,-5,0,5,0,1,-1,0,-1,1,-2,-2,-1,-2,0,-1,-38.9375,-38.9375,-38.9375,3.375,3.375,3.375,1.707641,6.772709,2.577382,7.780598,6.981823,9.949711,-0.07445396,-0.4171374,1.535441,0.3000679,-0.4040073,1.488893,0.1232549,0.4704671,1.635852,-0.03322134,-0.393817,1.489499,0.3514798,-0.4208929,1.485412,0.1200514,-0.002892308,1.623651,0.1188275,-0.3323207,1.602509,-0.06298672,0.1765384,1.629601,0.0318167,-0.3253074,1.568235,-0.09434523,-0.08378347,1.62934,0.3337868,-0.07989966,1.605124,NA,NA,NotTracked,NotTracked,
-0.9052734,-0.4287109,-0.105957,-0.9453125,0.324707,-0.06884766,-10,-7,-9,-16,-3,-2,0,0,-1,0,-1,-1,-2,0,1,-2,-22.8125,-22.8125,-22.8125,0,0,0,1.696616,6.773248,2.576946,7.781295,6.9821,9.949956,-0.07436309,-0.4166647,1.535618,0.3021536,-0.4065153,1.488172,0.1235677,0.4704393,1.635803,-0.03300592,-0.3977137,1.488829,0.3541839,-0.4182467,1.487534,0.1204264,-0.002991436,1.623646,0.1194283,-0.3324265,1.602641,-0.06266035,0.1765542,1.629477,0.03239655,-0.3254125,1.568376,-0.09414684,-0.08387735,1.629211,0.3337014,-0.08079463,1.605281,NA,NA,NotTracked,NotTracked,
-0.9199219,-0.3442383,-0.137207,-0.9511719,0.3017578,-0.07226563,0,0,-2,-2,-1,-2,-3,-2,-3,0,-2,-1,-1,-2,-1,-3,3.5,3.5,3.5,-5.6875,-5.6875,-5.6875,1.699716,6.787815,2.578832,7.781713,6.981319,9.955235,-0.07398845,-0.416888,1.535322,0.3020123,-0.4061883,1.488165,0.1237447,0.4704668,1.635739,-0.03376913,-0.396265,1.489206,0.3514965,-0.4145218,1.483333,0.1206796,-0.003011503,1.623645,0.1197259,-0.3324955,1.60273,-0.0623723,0.1766249,1.629446,0.0326915,-0.3254756,1.568472,-0.09386402,-0.08372644,1.629154,0.3335278,-0.0816913,1.605156,NA,NA,NotTracked,NotTracked,
-0.934082,-0.3300781,-0.1362305,-0.9599609,0.2944336,-0.0625,4,5,2,1,-1,0,1,-1,1,0,-1,-1,-2,-1,-1,-1,2.6875,2.6875,2.6875,-5.75,-5.75,-5.75,1.697814,6.798714,2.572715,7.778347,6.981876,9.958836,-0.07455446,-0.4169948,1.535806,0.3023215,-0.4054683,1.489136,0.1239436,0.4704687,1.635707,-0.03294838,-0.3827289,1.490611,0.3506171,-0.4132416,1.484162,0.12092,-0.003059761,1.623661,0.1200392,-0.3326143,1.602858,-0.06215605,0.1765254,1.629351,0.03301897,-0.3255883,1.568609,-0.09375928,-0.08368818,1.629123,0.3333549,-0.08221712,1.604966,NA,NA,NotTracked,NotTracked,
-0.9453125,-0.3569336,-0.1425781,-0.9487305,0.3037109,-0.06005859,-4,-2,10,16,0,1,-2,2,1,-1,-1,0,-2,1,-3,0,5.875,5.875,5.875,-2.4375,-2.4375,-2.4375,1.698122,6.803406,2.568589,7.778447,6.982425,9.962487,-0.0741886,-0.4176621,1.535154,0.3011226,-0.4054098,1.488261,0.1243571,0.4706489,1.635695,-0.03320767,-0.3879375,1.490188,0.349182,-0.4096061,1.482042,0.1212875,-0.003082489,1.623723,0.1204144,-0.3326737,1.603052,-0.06193722,0.1765252,1.629467,0.03338716,-0.3256214,1.568849,-0.09345815,-0.0834483,1.629244,0.3326543,-0.08343485,1.60438,NA,NA,NotTracked,NotTracked,
-0.9453125,-0.3569336,-0.1425781,-0.9418945,0.3164063,-0.06005859,2,-1,-14,-10,-4,-1,-3,-3,-1,0,0,-1,-1,0,-1,-2,5.875,5.875,5.875,-0.5,-0.5,-0.5,1.698122,6.803406,2.568589,7.782949,6.984411,9.968086,-0.07454569,-0.4175646,1.535635,0.3004578,-0.4052818,1.487007,0.1244733,0.4706739,1.635647,-0.03172356,-0.4032092,1.488119,0.3477385,-0.4442624,1.4866,0.1214273,-0.003070482,1.62369,0.120511,-0.332687,1.603079,-0.06185423,0.1765229,1.629491,0.03347931,-0.3256131,1.568876,-0.09342101,-0.08342963,1.629251,0.3323018,-0.08387009,1.603744,NA,NA,NotTracked,NotTracked,
-0.9560547,-0.3608398,-0.175293,-0.9433594,0.3232422,-0.06152344,1,2,20,17,4,0,0,2,-1,-1,-1,-2,1,0,0,0,16.75,16.75,16.75,-2.0625,-2.0625,-2.0625,1.716716,6.813816,2.561496,7.790236,6.985758,9.977185,-0.07409648,-0.4171691,1.537232,0.299596,-0.4057528,1.487758,0.1246078,0.4706981,1.635624,-0.03230548,-0.3893426,1.490353,0.3453604,-0.4232107,1.475875,0.121552,-0.003117178,1.623746,0.120619,-0.3327566,1.603196,-0.06164847,0.1765617,1.629594,0.03357502,-0.3256644,1.568986,-0.09336768,-0.08282039,1.629626,0.3316895,-0.08474886,1.603401,NA,NA,NotTracked,NotTracked,
-0.9560547,-0.3608398,-0.175293,-0.9443359,0.3188477,-0.06152344,1,1,-4,-7,-3,-2,0,0,0,-3,0,0,-1,0,-1,-1,16.75,16.75,16.75,-2.6875,-2.6875,-2.6875,1.716716,6.813816,2.561496,7.792278,6.98666,9.981021,-0.07484768,-0.4174705,1.537985,0.2990741,-0.4058044,1.487115,0.1247104,0.4706954,1.635583,-0.03312735,-0.3914255,1.490357,0.3476759,-0.4248202,1.485255,0.1216671,-0.003103211,1.62376,0.1207618,-0.3327497,1.603278,-0.06162955,0.1765445,1.629713,0.03371674,-0.325664,1.569069,-0.09332611,-0.08285914,1.629789,0.3314203,-0.08367418,1.60295,NA,NA,NotTracked,NotTracked,
