ALX,ALY,ALZ,ARX,ARY,ARZ,EMG0L,EMG1L,EMG2L,EMG3L,EMG4L,EMG5L,EMG6L,EMG7L,EMG0R,EMG1R,EMG2R,EMG3R,EMG4R,EMG5R,EMG6R,EMG7R,GLX,GLY,GLZ,GRX,GRY,GRZ,ORL,OPL,OYL,ORR,OPR,OYR,LHNX,LHNY,LHNZ,RHNX,RHNY,RHNZ,HX,HY,HZ,LTX,LTY,LTZ,RTX,RTY,RTZ,SpineMidX,SpineMidY,SpineMidZ,SpineBaseX,SpineBaseY,SpineBaseZ,ShoulderLeftX,ShoulderLeftY,ShoulderLeftZ,ShoulderRightX,ShoulderRightY,ShoulderRightZ,ElbowLeftX,ElbowLeftY,ElbowLeftZ,ElbowRightX,ElbowRightY,ElbowRightZ,Myo_Pose_left,Myo_Pose_Right,Kinect_pose_left,Kinect_pose_right
-0.9477539,-0.3452148,-0.1484375,-0.9472656,0.3154297,-0.0546875,1,-1,1,-1,0,-1,-1,-1,0,0,0,-2,-1,-1,-1,-1,5.125,5.125,5.125,-0.1875,-0.1875,-0.1875,1.868608,6.903718,5.571899,7.835448,6.983396,1.249274,-0.100051,-0.4070014,1.521255,0.2625151,-0.4180378,1.470246,0.0995368,0.4680316,1.632797,-0.1410068,-0.386803,1.533834,0.2149357,-0.4097529,1.456594,0.09403174,-0.007324273,1.618686,0.0930776,-0.3382074,1.595427,-0.09142829,0.1695887,1.622496,0.006702433,-0.3301799,1.561675,-0.1257796,-0.0910741,1.611557,0.2965863,-0.09333155,1.589902,NA,NA,NotTracked,NotTracked,
-0.9477539,-0.3481445,-0.1411133,-0.9467773,0.3076172,-0.06591797,1,-1,-2,0,-2,0,-1,-2,-3,-3,0,-2,-1,-2,1,-2,4.25,4.25,4.25,-2.8125,-2.8125,-2.8125,1.870895,6.902494,5.568707,7.830667,6.982131,1.247341,-0.09945658,-0.40693,1.520773,0.2624961,-0.417831,1.470057,0.09963593,0.4679789,1.632486,-0.1367354,-0.4042298,1.530286,0.214975,-0.3997422,1.457483,0.09413502,-0.007361297,1.61854,0.09318821,-0.3382593,1.595256,-0.09135994,0.1695531,1.622376,0.006794225,-0.3302132,1.561581,-0.1256566,-0.09089646,1.611511,0.2967072,-0.09339647,1.589687,NA,NA,NotTracked,NotTracked,
-0.9467773,-0.3432617,-0.1459961,-0.9511719,0.3017578,-0.0703125,-1,-1,-1,0,-1,-2,1,-2,-3,-1,-2,0,0,-2,-3,-1,3,3,3,-1.6875,-1.6875,-1.6875,1.873337,6.901856,5.567772,7.83164,6.981961,1.249286,-0.09954351,-0.4072621,1.520911,0.2628684,-0.4175881,1.469921,0.09970096,0.4679739,1.632482,-0.1384411,-0.3989136,1.532798,0.2146901,-0.4028992,1.457073,0.09427963,-0.007402841,1.618397,0.09327976,-0.3383268,1.595009,-0.09127706,0.1695121,1.62226,0.006906647,-0.3302609,1.561307,-0.1254909,-0.09073315,1.611465,0.2968612,-0.09343115,1.589369,NA,NA,NotTracked,NotTracked,
-0.9482422,-0.3359375,-0.1430664,-0.9526367,0.3105469,-0.08300781,1,0,-1,-2,-1,-3,-2,-2,-1,-1,0,-1,-1,0,-1,0,0.9375,0.9375,0.9375,-0.125,-0.125,-0.125,1.875017,6.901587,5.567856,7.838198,6.981177,1.255711,-0.09938294,-0.4069991,1.520076,0.262381,-0.4177474,1.46903,0.0998072,0.4679842,1.632327,-0.1332703,-0.4232647,1.524778,0.2142277,-0.4155028,1.452013,0.09437162,-0.00742304,1.618148,0.09330048,-0.3383366,1.594847,-0.09116282,0.1694534,1.62205,0.006918651,-0.3302666,1.561228,-0.1253699,-0.09055867,1.611356,0.2968749,-0.0933294,1.589112,NA,NA,NotTracked,NotTracked,
-0.9462891,-0.34375,-0.1518555,-0.953125,0.3056641,-0.07470703,0,-1,-1,-1,0,1,-1,-1,1,1,-1,-1,0,-2,-1,0,-0.375,-0.375,-0.375,-2.25,-2.25,-2.25,1.875562,6.901584,5.568828,7.838708,6.980088,1.259772,-0.09950089,-0.4075025,1.52095,0.2625835,-0.4176176,1.469815,0.09989033,0.4679838,1.63231,-0.1360449,-0.4125351,1.529891,0.2146778,-0.4018048,1.457132,0.09447499,-0.00745546,1.618024,0.09343152,-0.3383715,1.594671,-0.09114803,0.1693882,1.621966,0.007026835,-0.3303011,1.561121,-0.1251573,-0.0909792,1.6114,0.297042,-0.09353461,1.588832,NA,NA,NotTracked,NotTracked,
-0.9433594,-0.3422852,-0.1430664,-0.9453125,0.3012695,-0.06201172,1,-4,1,-2,0,0,0,1,0,-2,-1,-1,-2,0,1,-2,-2.0625,-2.0625,-2.0625,-1.625,-1.625,-1.625,1.876133,6.902046,5.571781,7.837433,6.980072,1.258911,-0.09948684,-0.4068283,1.520514,0.2626134,-0.4178995,1.4689,0.1000069,0.4680294,1.632263,-0.1397176,-0.3905365,1.536889,0.2147156,-0.4022532,1.456478,0.09454614,-0.007444662,1.617954,0.0934668,-0.338342,1.594542,-0.09113061,0.1694083,1.621947,0.007067302,-0.3302341,1.560949,-0.1250474,-0.09081134,1.611427,0.2971681,-0.09376249,1.588585,NA,NA,NotTracked,NotTracked,
-0.9433594,-0.3432617,-0.1508789,-0.9394531,0.3110352,-0.05957031,-1,0,0,-1,-1,-1,0,-1,-3,-2,-3,-1,-2,0,0,0,-2.5,-2.5,-2.5,-1.3125,-1.3125,-1.3125,1.874197,6.902104,5.573115,7.833349,6.978686,1.25654,-0.09942856,-0.4073352,1.520892,0.2627182,-0.4173579,1.469135,0.1000742,0.4680507,1.632267,-0.1385785,-0.4098174,1.539143,0.2147527,-0.3969184,1.457302,0.09456408,-0.007449298,1.61794,0.09348833,-0.3383553,1.594483,-0.09111948,0.1694065,1.621951,0.007091123,-0.3302467,1.560923,-0.1250262,-0.09078723,1.611437,0.2972177,-0.09378286,1.588433,NA,NA,NotTracked,NotTracked,
-0.9482422,-0.3413086,-0.1499023,-0.9492188,0.3129883,-0.05615234,1,-1,-1,-2,0,1,-2,-3,-3,-1,0,-2,0,-1,-2,-2,-1.625,-1.625,-1.625,-1.125,-1.125,-1.125,1.87313,6.902573,5.574202,7.830156,6.977916,1.255288,-0.09952542,-0.4068411,1.520324,0.2629569,-0.4180142,1.468767,0.1001754,0.4680337,1.632318,-0.1326688,-0.4194557,1.524375,0.2150784,-0.4006131,1.456488,0.0945795,-0.007460177,1.61793,0.09353693,-0.33838,1.594374,-0.09104679,0.16946,1.62196,0.007146929,-0.3302574,1.560785,-0.1249546,-0.09053167,1.611465,0.2973877,-0.09383627,1.588145,NA,NA,NotTracked,NotTracked,
-0.9501953,-0.340332,-0.1435547,-0.9506836,0.3154297,-0.0546875,1,0,-1,-3,-1,-3,0,-1,1,0,2,-1,-2,0,-1,-3,0.4375,0.4375,0.4375,-1.375,-1.375,-1.375,1.87284,6.902767,5.573907,7.826888,6.978154,1.253289,-0.09926593,-0.407229,1.520051,0.2628818,-0.4173064,1.467847,0.1002113,0.4680126,1.632334,-0.132966,-0.4256335,1.522929,0.2148206,-0.4044034,1.456204,0.09460807,-0.007465575,1.617865,0.09356013,-0.3383639,1.594227,-0.09095875,0.1694771,1.621875,0.007170717,-0.3302426,1.560608,-0.1247961,-0.09083846,1.611413,0.2974667,-0.0938303,1.587926,NA,NA,NotTracked,NotTracked,
-0.9458008,-0.3408203,-0.140625,-0.9501953,0.3183594,-0.05810547,-2,-1,-1,0,-1,-1,0,0,0,0,-2,0,-1,-1,-2,-2,5.4375,5.4375,5.4375,-1.375,-1.375,-1.375,1.878913,6.902734,5.574778,7.825697,6.978407,1.252159,-0.09870858,-0.4061576,1.519858,0.2630335,-0.4178669,1.467833,0.1004145,0.4679334,1.632355,-0.1305308,-0.4226211,1.516176,0.2144052,-0.3936135,1.456965,0.09470342,-0.007514977,1.617678,0.09361174,-0.3383707,1.593926,-0.09010717,0.169332,1.62369,0.007230573,-0.3302261,1.560354,-0.1246917,-0.0906828,1.611409,0.2978013,-0.09397985,1.587256,NA,NA,NotTracked,NotTracked,
-0.9453125,-0.3413086,-0.144043,-0.9428711,0.3125,-0.05761719,-1,0,-1,0,-1,-2,-1,-1,-1,-1,-1,0,-1,0,-2,-2,4.125,4.125,4.125,-0.0625,-0.0625,-0.0625,1.880536,6.902764,5.574555,7.822282,6.978497,1.249712,-0.09880213,-0.4067678,1.519628,0.2629521,-0.4178288,1.467335,0.1005472,0.4679543,1.632381,-0.1329611,-0.4134539,1.522683,0.2146534,-0.4028801,1.455503,0.0948187,-0.007506532,1.617596,0.09370195,-0.3383338,1.593679,-0.09003745,0.1693479,1.623442,0.007367122,-0.3301818,1.560049,-0.124633,-0.09068279,1.611464,0.2978893,-0.09399445,1.587022,NA,NA,NotTracked,NotTracked,
-0.9404297,-0.3486328,-0.1411133,-0.9443359,0.3178711,-0.06591797,0,-3,1,-1,-1,-1,0,0,-3,-2,-2,-2,-1,0,-1,-1,3.75,3.75,3.75,0.0625,0.0625,0.0625,1.882651,6.902411,5.574156,7.822212,6.978231,1.249988,-0.09842091,-0.4068601,1.520188,0.2636814,-0.4174737,1.468359,0.1006449,0.4679069,1.632403,-0.1326964,-0.4150425,1.521895,0.2143162,-0.4056456,1.454462,0.09487551,-0.007536352,1.617572,0.09377992,-0.3383532,1.593614,-0.09000441,0.169294,1.623329,0.007431556,-0.3302041,1.560023,-0.1245673,-0.09061578,1.611595,0.29795,-0.09357198,1.586919,NA,NA,NotTracked,NotTracked,
-0.9423828,-0.3432617,-0.1430664,-0.9516602,0.3115234,-0.06347656,0,-3,-1,-1,-2,-3,0,2,-1,-2,-2,0,0,-1,-2,-1,1.625,1.625,1.625,0.9375,0.9375,0.9375,1.885947,6.903182,5.572903,7.822282,6.978497,1.249712,-0.09831245,-0.4059756,1.520517,0.2636602,-0.4178359,1.467718,0.100694,0.4679394,1.632461,-0.1308997,-0.4211789,1.519567,0.2146451,-0.4026922,1.455746,0.09493562,-0.00753262,1.617544,0.09382734,-0.3383602,1.593543,-0.08996607,0.1692582,1.623228,0.00748418,-0.3302075,1.559964,-0.1245296,-0.09030702,1.611691,0.2980409,-0.09363443,1.586718,NA,NA,NotTracked,NotTracked,
-0.9487305,-0.34375,-0.1391602,-0.9536133,0.3154297,-0.07714844,0,4,0,-1,0,-1,0,0,-2,-1,-1,-1,-1,-1,-1,0,2.5625,2.5625,2.5625,-0.125,-0.125,-0.125,1.888964,6.904119,5.573456,7.824558,6.978501,1.251177,-0.09865053,-0.4078785,1.520489,0.2637222,-0.4180774,1.467909,0.1007222,0.4679326,1.632485,-0.09825437,-0.4565803,1.526572,0.214497,-0.40344,1.455561,0.09508444,-0.007563024,1.617459,0.09394416,-0.3383524,1.593422,-0.08993413,0.169191,1.623128,0.00762065,-0.3302103,1.559853,-0.1242873,-0.09112578,1.61158,0.2981009,-0.09366359,1.586553,NA,NA,NotTracked,NotTracked,
-0.9443359,-0.3457031,-0.1425781,-0.9501953,0.3046875,-0.06591797,-1,-3,-1,-2,-2,-2,-2,1,0,0,0,-1,-2,0,-1,-2,-0.9375,-0.9375,-0.9375,0.375,0.375,0.375,1.886081,6.904303,5.571007,7.824186,6.978634,1.25103,-0.09821706,-0.4066106,1.520338,0.2639085,-0.4174718,1.467718,0.1008078,0.4679171,1.632411,-0.1355083,-0.4016053,1.531636,0.213905,-0.4080589,1.453149,0.09515976,-0.00758139,1.617393,0.09410895,-0.33842,1.593277,-0.0899201,0.1691847,1.623107,0.007773647,-0.3302569,1.559725,-0.1240345,-0.09079992,1.611602,0.2981882,-0.0936989,1.586395,NA,NA,NotTracked,NotTracked,
-0.9399414,-0.3603516,-0.1396484,-0.9467773,0.3120117,-0.0625,1,-1,-1,-1,-1,-2,-4,0,0,0,-3,-1,-2,-2,-1,-2,4.4375,4.4375,4.4375,-0.5,-0.5,-0.5,1.888276,6.903162,5.567826,7.824506,6.978152,1.250061,-0.09805045,-0.4065541,1.519878,0.263857,-0.4172654,1.467355,0.100917,0.4679059,1.632473,-0.1359697,-0.402561,1.530053,0.214663,-0.4086975,1.451728,0.09540568,-0.007512544,1.617165,0.09435444,-0.3383082,1.593018,-0.0896603,0.169002,1.623716,0.008052711,-0.3301676,1.559445,-0.1238659,-0.0903812,1.611642,0.2983665,-0.09309914,1.586147,NA,NA,NotTracked,NotTracked,
-0.9448242,-0.3520508,-0.1416016,-0.9472656,0.3071289,-0.05761719,1,1,-1,-1,1,0,-1,-2,0,-2,-3,-2,-2,0,-2,-2,4.375,4.375,4.375,-0.6875,-0.6875,-0.6875,1.891055,6.902147,5.565134,7.823586,6.978662,1.249249,-0.09826629,-0.4066628,1.520067,0.2637713,-0.4175073,1.466924,0.1009263,0.4678879,1.632461,-0.1320129,-0.4256948,1.525714,0.214113,-0.4034578,1.452808,0.09546441,-0.007530546,1.617124,0.09440137,-0.3383254,1.592879,-0.08962508,0.1688526,1.623549,0.008113344,-0.3301942,1.559321,-0.1237857,-0.0900455,1.611739,0.2984265,-0.09319897,1.586085,NA,NA,NotTracked,NotTracked,
-0.9453125,-0.3491211,-0.1386719,-0.9448242,0.3173828,-0.05957031,-1,-1,-3,-1,-1,-2,0,1,-3,-1,-1,-1,-1,-1,-2,-1,1.9375,1.9375,1.9375,0.125,0.125,0.125,1.888942,6.900874,5.559633,7.822872,6.978271,1.24906,-0.09816334,-0.4068845,1.520546,0.2640384,-0.4172523,1.467192,0.1009504,0.4678811,1.632459,-0.08922935,-0.4628034,1.524,0.2142131,-0.4083701,1.451414,0.0954988,-0.007534121,1.617085,0.094431,-0.3383092,1.592809,-0.08963165,0.1688557,1.62344,0.008128419,-0.3301867,1.55927,-0.1235014,-0.09107587,1.611463,0.2985025,-0.09326402,1.585966,NA,NA,NotTracked,NotTracked,
-0.9458008,-0.3457031,-0.1523438,-0.9438477,0.315918,-0.05957031,0,0,0,0,0,-2,0,-1,-1,-2,-1,-1,-1,-1,-2,-1,-0.5625,-0.5625,-0.5625,-0.0625,-0.0625,-0.0625,1.879547,6.900874,5.549264,7.822872,6.978271,1.24906,-0.0980627,-0.4069616,1.520238,0.264043,-0.4170957,1.467186,0.1009467,0.4678687,1.632478,-0.1328592,-0.4244521,1.527,0.2146087,-0.4131784,1.450226,0.0955104,-0.007530809,1.617064,0.09442952,-0.3382984,1.592776,-0.0896383,0.1688605,1.623408,0.00813876,-0.3301627,1.559216,-0.1234104,-0.09065109,1.611589,0.2985497,-0.09323385,1.585928,NA,NA,NotTracked,NotTracked,
-0.9550781,-0.347168,-0.1464844,-0.9545898,0.3217773,-0.05810547,1,0,-1,0,-1,0,-2,-8,-2,-1,-2,0,-1,-2,0,-2,-4.5625,-4.5625,-4.5625,-0.1875,-0.1875,-0.1875,1.874675,6.900587,5.546456,7.822748,6.978355,1.24869,-0.09801691,-0.4066829,1.520541,0.2640682,-0.4169043,1.466886,0.1009484,0.4678533,1.632498,-0.1402932,-0.3887232,1.5375,0.2149606,-0.4031194,1.453645,0.09554125,-0.007546647,1.61704,0.09448665,-0.3383104,1.592684,-0.08964691,0.1688192,1.623366,0.008192717,-0.3301726,1.559137,-0.1233846,-0.09056406,1.611645,0.2986152,-0.09303359,1.585862,NA,NA,NotTracked,NotTracked,
-1.03125,-0.3637695,-0.1831055,-0.9555664,0.3364258,-0.05957031,5,-1,-3,-3,-2,-2,3,30,-3,-1,0,-2,-3,1,-3,1,-17.3125,-17.3125,-17.3125,-1.875,-1.875,-1.875,1.857557,6.897409,5.544322,7.820189,6.977595,1.246873,-0.0982402,-0.4068064,1.521069,0.2638452,-0.4167514,1.466232,0.1009222,0.4678198,1.632546,-0.1387556,-0.3883061,1.535702,0.2144481,-0.4032946,1.452496,0.09555256,-0.007555497,1.617038,0.09449574,-0.3383174,1.592637,-0.08964372,0.1687921,1.623362,0.008198067,-0.33017,1.559102,-0.1233588,-0.09076366,1.611656,0.2986986,-0.09311561,1.585814,NA,NA,NotTracked,NotTracked,
-1.150391,-0.6499023,-0.2348633,-0.96875,0.3354492,-0.06835938,3,-1,-1,-1,-3,-9,0,11,0,-1,-1,-1,-1,-1,0,-1,-31.3125,-31.3125,-31.3125,-4.5625,-4.5625,-4.5625,1.894873,6.851515,5.622809,7.817533,6.976233,1.247147,-0.09852051,-0.4068253,1.521378,0.2612405,-0.4145346,1.462543,0.1008809,0.4677728,1.632627,-0.1340671,-0.4086668,1.528333,0.215769,-0.4132091,1.445462,0.09556637,-0.007564051,1.61702,0.09448129,-0.3383262,1.592565,-0.08963595,0.1687267,1.623315,0.008188541,-0.3301668,1.559073,-0.1232933,-0.0906224,1.611722,0.2989438,-0.09265681,1.586028,NA,NA,NotTracked,NotTracked,
-1.187012,-0.9038086,-0.2753906,-0.956543,0.3085938,-0.08300781,-9,2,-6,-3,5,9,-2,-2,3,1,-2,-1,-2,-3,-1,1,8.8125,8.8125,8.8125,-8.6875,-8.6875,-8.6875,2.008562,6.793537,5.741889,7.812603,6.975053,1.251058,-0.0985799,-0.4070384,1.519993,0.2570772,-0.4127775,1.454071,0.1008623,0.4677689,1.632632,-0.1332298,-0.4158415,1.525182,0.2157764,-0.4190988,1.429816,0.09556042,-0.007558757,1.616925,0.09434777,-0.3383085,1.592397,-0.08970033,0.1687623,1.62331,0.008072965,-0.3301181,1.558921,-0.1232811,-0.09058049,1.611694,0.3001237,-0.09189039,1.587096,NA,NA,NotTracked,NotTracked,
-1.485352,-0.9741211,-0.3774414,-0.9267578,0.2739258,-0.07519531,1,2,14,-5,-10,-12,-5,-5,-2,-3,-1,-2,-1,0,-1,-2,64.9375,64.9375,64.9375,-4.375,-4.375,-4.375,2.307253,6.563573,6.014841,7.806802,6.977986,1.251771,-0.0987244,-0.4066718,1.519438,0.2378969,-0.3915076,1.439806,0.1007707,0.4677655,1.632663,-0.1320351,-0.4220989,1.5235,0.1935206,-0.3892804,1.42195,0.09542709,-0.007506684,1.616768,0.09374441,-0.3381468,1.592028,-0.08977297,0.1687529,1.623264,0.007299162,-0.3297826,1.558466,-0.1232756,-0.09053481,1.611698,0.3036762,-0.08967129,1.59053,NA,NA,NotTracked,Unknown,
-1.43457,-1.550293,0.2138672,-0.9467773,0.3012695,-0.03759766,-3,5,14,8,0,-2,-1,0,-1,1,-3,-1,0,0,-2,-3,-63.625,-63.625,-63.625,18.4375,18.4375,18.4375,2.432653,6.221873,6.221844,7.808424,6.982881,1.239374,-0.09876117,-0.4067719,1.518481,0.2138227,-0.3322838,1.420394,0.100699,0.4677747,1.632612,-0.1330537,-0.4066058,1.520413,0.1729572,-0.3172836,1.409017,0.09426466,-0.007155264,1.616337,0.08913862,-0.33696,1.591521,-0.08986679,0.1687483,1.623154,0.002453966,-0.3280793,1.558104,-0.1232606,-0.09057201,1.611671,0.3144936,-0.07501517,1.597288,NA,NA,NotTracked,Unknown,
-1.215332,-1.85498,0.3955078,-0.9238281,0.3691406,-0.01464844,-17,10,26,5,3,-4,-5,-2,0,-1,-1,0,-1,0,0,1,-5.125,-5.125,-5.125,26.5625,26.5625,26.5625,2.49227,5.994793,6.314171,7.827563,6.983459,1.22921,-0.09908576,-0.4058726,1.520318,0.184197,-0.233108,1.429974,0.1005703,0.4677753,1.63225,-0.1419479,-0.3826136,1.545833,0.1290191,-0.1969454,1.452807,0.09380756,-0.007033922,1.616108,0.08829954,-0.3367102,1.591374,-0.08996793,0.1687596,1.622963,0.00171664,-0.3277731,1.558061,-0.1232242,-0.09019238,1.611771,0.327082,-0.05900154,1.597434,NA,NA,NotTracked,Unknown,
-0.7973633,-2.046387,0.2285156,-0.9213867,0.3569336,-0.01806641,-13,3,30,32,-6,-5,-3,-2,-2,-2,-1,-2,-1,-1,-1,-3,72.375,72.375,72.375,22.0625,22.0625,22.0625,2.5744,5.749566,6.392419,7.838247,6.982801,1.22887,-0.09960064,-0.4066188,1.520303,0.1552676,-0.1628599,1.416167,0.1005651,0.4675643,1.63145,-0.1444054,-0.3748935,1.546154,0.1160589,-0.1141806,1.454429,0.09372425,-0.006962312,1.616078,0.0881888,-0.3365264,1.59159,-0.08999719,0.1686918,1.622519,0.001738047,-0.327655,1.558261,-0.1232346,-0.09016133,1.611693,0.3477978,-0.0500607,1.595929,NA,NA,NotTracked,Unknown,
-0.425293,-0.6489258,0.08154297,-0.9311523,0.3378906,-0.04541016,24,1,-7,19,6,-3,0,0,-1,-2,0,-2,-2,-1,-1,1,145.3125,145.3125,145.3125,15.875,15.875,15.875,2.822895,5.015139,6.545559,7.86137,6.981369,1.23392,-0.1023587,-0.397308,1.524633,0.1398088,-0.07893579,1.416035,0.1009216,0.4672556,1.629988,-0.1416422,-0.3786323,1.538462,0.1490125,-0.1527494,1.46232,0.09376051,-0.00679955,1.616062,0.08831301,-0.335874,1.591861,-0.08976172,0.1687355,1.622905,0.001975212,-0.3271706,1.558536,-0.1233314,-0.08964957,1.611503,0.3522893,-0.04751295,1.585655,NA,NA,NotTracked,Unknown,
0.1342773,-0.2797852,-0.03564453,-0.9472656,0.3007813,-0.06787109,12,-3,-3,-9,5,1,1,2,-1,-2,-1,-1,-1,-2,0,1,7.5625,7.5625,7.5625,7.1875,7.1875,7.1875,2.852052,4.51073,6.668828,7.872617,6.97955,1.235093,-0.1038015,-0.3922235,1.526736,0.1139732,0.1123463,1.397322,0.102392,0.4653861,1.625964,-0.1439862,-0.3822751,1.541764,0.1029069,0.08029207,1.374462,0.0938016,-0.006767131,1.616136,0.08825479,-0.3349944,1.592375,-0.0888433,0.1688744,1.622178,0.002270521,-0.3267184,1.559537,-0.1233294,-0.08921369,1.610876,0.3408981,-0.04094578,1.528085,NA,NA,NotTracked,Unknown,
0.2895508,-0.3852539,-0.03417969,-0.9677734,0.2553711,-0.08105469,2,4,5,-5,-1,-8,-13,5,-1,-1,-1,-2,-1,-2,0,-2,-59.375,-59.375,-59.375,9.0625,9.0625,9.0625,2.791698,4.279228,6.740107,7.863828,6.977831,1.216568,-0.1038975,-0.3884976,1.525424,0.1505682,0.1489558,1.439141,0.1030462,0.4640759,1.623752,-0.1388236,-0.3963667,1.523375,0.1317512,0.1036136,1.504018,0.09386779,-0.0075419,1.615998,0.08834298,-0.3353397,1.592363,-0.08953626,0.1688475,1.621507,0.002252851,-0.3275007,1.560204,-0.1231385,-0.08890247,1.610111,0.3396707,-0.03720895,1.516767,NA,NA,NotTracked,Unknown,
0.4560547,-0.6479492,-0.06152344,-0.9677734,0.2553711,-0.08105469,-10,-6,-9,-11,-17,-14,-8,-12,1,-1,-2,-1,-1,-2,-2,-1,-86.125,-86.125,-86.125,9.0625,9.0625,9.0625,2.490129,3.677331,7.01025,7.863828,6.977831,1.216568,-0.100804,-0.4025121,1.519497,0.1585449,0.1873022,1.456189,0.1034488,0.4633197,1.622301,-0.1375093,-0.400225,1.52572,0.1365996,0.1443684,1.514667,0.09334407,-0.008401762,1.61559,0.0884638,-0.3369842,1.592618,-0.08953223,0.1688942,1.621397,0.001998276,-0.3297144,1.561892,-0.1230791,-0.08828088,1.609585,0.3334478,-0.02901598,1.490555,NA,NA,NotTracked,Lasso,
0.3608398,-0.2392578,0.05029297,-1.001465,0.2895508,-0.08496094,-27,-6,-3,18,-2,-14,-9,-10,0,0,-2,-2,-1,-1,-2,-1,-39.375,-39.375,-39.375,12.4375,12.4375,12.4375,2.22876,3.430826,7.256522,7.829188,6.970215,1.157152,-0.1019119,-0.3925723,1.521988,0.1603358,0.2277361,1.456259,0.1040185,0.4623555,1.619726,-0.1391241,-0.3962496,1.53246,0.1641792,0.1745124,1.526086,0.09308775,-0.009060121,1.615046,0.08866562,-0.3382334,1.592495,-0.08922494,0.1688727,1.620985,0.001890061,-0.3310432,1.562507,-0.1228594,-0.08812094,1.609103,0.3248595,-0.01280284,1.456582,NA,NA,NotTracked,Lasso,
0.4956055,-0.2407227,0.1010742,-0.9580078,0.3310547,-0.06884766,13,3,0,3,8,11,3,3,-1,-2,-1,-1,-2,-1,0,-2,-97.625,-97.625,-97.625,10,10,10,1.913583,3.295727,7.520263,7.803596,6.964862,1.116351,-0.09968084,-0.4007532,1.517162,0.1547743,0.2583582,1.449062,0.1044786,0.4616492,1.617843,-0.1356453,-0.403481,1.528375,0.1608087,0.1996044,1.52896,0.09311478,-0.009508605,1.61455,0.08887066,-0.3389566,1.592299,-0.08873856,0.1686932,1.620411,0.001831325,-0.3316284,1.562806,-0.1227363,-0.0875578,1.60874,0.3221286,0.0003147529,1.436949,NA,NA,NotTracked,Unknown,
0.4116211,-0.3193359,0.1162109,-0.9335938,0.328125,-0.05859375,1,-7,-3,1,-15,-32,-34,-6,-1,-3,-2,-1,-1,-2,-3,0,-76.875,-76.875,-76.875,4.25,4.25,4.25,1.796713,3.274265,7.609582,7.795878,6.963793,1.105538,-0.09894519,-0.4009118,1.516832,0.151156,0.2699172,1.447238,0.1048998,0.4611871,1.616873,-0.1259435,-0.4373319,1.514222,0.1847959,0.2124269,1.528571,0.0932035,-0.009766404,1.6144,0.08918557,-0.3392364,1.592294,-0.08834751,0.1686545,1.620105,0.002066703,-0.3319634,1.563219,-0.1225821,-0.08688176,1.608399,0.319994,0.01182647,1.424856,NA,NA,NotTracked,Unknown,
0.3681641,-0.5004883,0.01904297,-0.9257813,0.309082,-0.05419922,16,2,4,-3,1,-3,-4,7,1,0,-1,-3,-2,-1,-3,-1,3.9375,3.9375,3.9375,-9.3125,-9.3125,-9.3125,1.686319,3.30953,7.725838,7.793973,6.964993,1.114244,-0.100236,-0.3907187,1.521158,0.1392917,0.2806919,1.44737,0.105055,0.4615047,1.616456,-0.1410112,-0.3726396,1.536706,0.1431188,0.2380355,1.490134,0.09327537,-0.01030254,1.61413,0.08938937,-0.3399283,1.591993,-0.08785509,0.1686037,1.619809,0.002106737,-0.3325341,1.563467,-0.1224075,-0.08610436,1.608085,0.3180759,0.02052164,1.414271,NA,NA,NotTracked,Unknown,
0.4453125,-0.4785156,-0.2055664,-0.9541016,0.3134766,-0.07470703,13,-3,-1,-3,2,4,0,2,-2,-4,-2,-2,-1,-2,0,-1,32.6875,32.6875,32.6875,-8.8125,-8.8125,-8.8125,1.723563,3.437053,7.764778,7.806629,6.965608,1.142995,-0.1009201,-0.3917184,1.521476,0.1374828,0.2640802,1.436951,0.1051195,0.4618037,1.616195,-0.1470497,-0.3607214,1.5504,0.1643714,0.2173284,1.521,0.09308015,-0.01160102,1.613433,0.08951163,-0.3413807,1.591678,-0.08763319,0.1684068,1.619563,0.001994719,-0.3340417,1.564355,-0.1221121,-0.08543719,1.607899,0.3151145,0.03145366,1.402151,NA,NA,NotTracked,Lasso,
0.409668,-0.5678711,-0.1943359,-0.9550781,0.3222656,-0.08496094,50,11,3,-8,6,7,19,22,-1,-2,0,0,1,-1,-1,-1,19.1875,19.1875,19.1875,-17.375,-17.375,-17.375,1.750948,3.479181,7.746896,7.808529,6.963789,1.160834,-0.1016009,-0.3873976,1.523513,0.1383853,0.2506257,1.431675,0.1049449,0.46143,1.616122,-0.1391124,-0.3858916,1.537533,0.1598346,0.2128756,1.521368,0.09271764,-0.01229126,1.612986,0.08943614,-0.3423199,1.591508,-0.08790941,0.1679447,1.619737,0.001819441,-0.3350237,1.564836,-0.1219991,-0.0852499,1.607836,0.3146295,0.03297541,1.400215,NA,NA,NotTracked,Lasso,
0.5351563,-0.7524414,-0.3120117,-0.9833984,0.3081055,-0.08789063,0,-7,-7,-16,-5,2,20,6,0,-2,-1,1,-3,-1,-1,-2,26.0625,26.0625,26.0625,-29.6875,-29.6875,-29.6875,1.865968,3.585579,7.651871,7.79638,6.95868,1.17961,-0.09879896,-0.4019447,1.516619,0.1369043,0.2449586,1.429814,0.1046844,0.4613408,1.61629,-0.1349671,-0.4019406,1.525867,0.1592887,0.2096087,1.521208,0.09246473,-0.01262392,1.612518,0.08943061,-0.342838,1.59117,-0.08820302,0.167742,1.620075,0.001679551,-0.3354649,1.564908,-0.1218722,-0.08515675,1.607898,0.3146005,0.03317111,1.399972,NA,NA,NotTracked,Unknown,
0.5986328,-0.8095703,-0.3081055,-0.9511719,0.277832,-0.08691406,-9,-5,-2,-3,-1,-6,2,-2,-2,-2,-1,-1,-2,-2,-2,1,39.3125,39.3125,39.3125,-31.4375,-31.4375,-31.4375,1.923267,3.609274,7.605982,7.77221,6.953625,1.189337,-0.09955692,-0.4018709,1.516757,0.1371157,0.2394276,1.430149,0.1040204,0.4612499,1.61652,-0.1377699,-0.3919639,1.527897,0.15472,0.205968,1.517563,0.09216954,-0.01273434,1.612072,0.08936711,-0.3431724,1.59085,-0.08858243,0.1674267,1.620712,0.001514662,-0.3358269,1.564966,-0.1218874,-0.08503352,1.607949,0.3153567,0.03270124,1.400425,NA,NA,NotTracked,Unknown,
0.7138672,-0.8354492,-0.2436523,-0.9604492,0.2744141,-0.08105469,-10,-3,-1,2,0,-2,-5,-7,-3,-3,-1,-1,-1,-1,-2,0,28.0625,28.0625,28.0625,-30.1875,-30.1875,-30.1875,1.978672,3.622843,7.555448,7.75765,6.951646,1.191058,-0.1012293,-0.3915466,1.519388,0.1309154,0.2429552,1.431501,0.1028112,0.461321,1.616944,-0.139098,-0.3825535,1.527185,0.1524701,0.2069443,1.516444,0.09181243,-0.01287621,1.61168,0.08914021,-0.3435172,1.590505,-0.0887308,0.167313,1.623251,0.001325127,-0.3361201,1.565019,-0.1219352,-0.08498922,1.608128,0.3197385,0.02945095,1.404128,NA,NA,NotTracked,Unknown,
1.181152,-0.7583008,-0.09521484,-0.9360352,0.2744141,-0.04882813,24,8,-2,-10,1,2,10,-1,-3,-3,-1,0,-3,0,-1,-2,4.3125,4.3125,4.3125,-16.375,-16.375,-16.375,2.102299,3.602051,7.426304,7.724147,6.950965,1.180139,-0.09959694,-0.4006786,1.515612,0.1626692,0.2286005,1.434967,0.1009365,0.4606962,1.617216,-0.131998,-0.4213768,1.5237,0.144345,0.202835,1.518429,0.09144356,-0.01294606,1.611376,0.08887303,-0.3437712,1.590155,-0.0896164,0.1666662,1.624465,0.001119975,-0.3363592,1.564988,-0.1223658,-0.08452635,1.609155,0.3252323,0.02532678,1.409364,NA,NA,NotTracked,Unknown,
1.245117,-0.394043,-0.1074219,-0.9345703,0.3076172,-0.006835938,-2,-7,-6,-3,-6,-12,-36,-11,2,-1,0,-1,-1,-1,0,0,3.375,3.375,3.375,-0.375,-0.375,-0.375,2.110636,3.513986,7.422324,7.708188,6.951969,1.164358,-0.1011587,-0.3945748,1.518664,0.1634327,0.2376922,1.441662,0.09937665,0.4595988,1.616687,-0.1427535,-0.3765795,1.542308,0.1501359,0.2016691,1.521016,0.09116461,-0.0128654,1.61105,0.08855698,-0.3437486,1.589671,-0.08986831,0.1664086,1.625154,0.0008889838,-0.3363954,1.564904,-0.1226281,-0.0838694,1.610744,0.3307448,0.02248647,1.41386,NA,NA,NotTracked,Lasso,
1.019531,-0.3110352,-0.137207,-0.9057617,0.5019531,0.04638672,-6,-3,0,6,6,10,19,4,1,0,-2,0,0,0,-1,0,-25.375,-25.375,-25.375,24.3125,24.3125,24.3125,2.007577,3.421304,7.518512,7.705685,6.953968,1.12385,-0.1033166,-0.389021,1.525007,0.1672024,0.255892,1.45312,0.09820626,0.4570545,1.615031,-0.1373716,-0.3922998,1.525895,0.189788,0.2133057,1.528059,0.09092183,-0.01266211,1.610822,0.08760401,-0.3434107,1.588917,-0.08981201,0.1663849,1.625394,-4.074789E-05,-0.3361721,1.564689,-0.1232371,-0.0823843,1.614281,0.3393507,0.02084193,1.418896,NA,NA,NotTracked,Unknown,
0.8139648,-0.2241211,-0.2089844,-0.9223633,0.4580078,0.01904297,-17,-3,-1,0,-2,-2,1,0,-2,-1,0,-2,-1,-1,1,-3,-7.75,-7.75,-7.75,12.4375,12.4375,12.4375,1.856312,3.370321,7.675728,7.718883,6.95184,1.122431,-0.1038029,-0.3885338,1.527226,0.1317511,0.2937236,1.469999,0.09835695,0.455727,1.61358,-0.1439263,-0.3653581,1.547692,0.1382826,0.247124,1.5351,0.09088691,-0.01265936,1.610749,0.08728059,-0.3433755,1.588596,-0.08966281,0.1662505,1.625379,-0.0003646241,-0.3361327,1.56453,-0.123307,-0.08211198,1.614909,0.3409151,0.0220761,1.418116,NA,NA,NotTracked,Unknown,
0.7119141,-0.2080078,-0.253418,-0.9399414,0.3994141,-0.01464844,-31,-13,-4,1,-3,2,-8,18,-3,-2,-2,-1,-1,-1,-2,0,15.625,15.625,15.625,11.75,11.75,11.75,1.758602,3.387196,7.801743,7.733794,6.951221,1.132015,-0.1046355,-0.3887049,1.528453,0.1317796,0.2906601,1.465778,0.09869236,0.4546648,1.612059,-0.1449002,-0.3746735,1.551538,0.1453771,0.2380965,1.53375,0.0908456,-0.0127077,1.610674,0.08700992,-0.3434651,1.588388,-0.0895501,0.1661053,1.625423,-0.0006457896,-0.3362216,1.564515,-0.1233432,-0.08214723,1.614987,0.340661,0.02506698,1.414936,NA,NA,NotTracked,Unknown,
0.6713867,-0.4155273,-0.3500977,-0.9790039,0.3706055,-0.03417969,26,2,0,5,-4,-8,-14,-6,-1,-1,0,-2,-2,1,-2,-1,-17.4375,-17.4375,-17.4375,15.125,15.125,15.125,1.708066,3.454997,7.844389,7.757826,6.948774,1.140549,-0.1045972,-0.3887237,1.527125,0.1280812,0.2849515,1.461049,0.09908704,0.4543205,1.611242,-0.1415535,-0.3825087,1.538862,0.1427639,0.234703,1.537083,0.09081353,-0.0128428,1.610569,0.0869384,-0.3436566,1.588135,-0.08944291,0.1659983,1.625351,-0.0007213148,-0.336334,1.564455,-0.1233569,-0.08221026,1.615064,0.3392977,0.0287829,1.410491,NA,NA,NotTracked,Unknown,
0.4384766,-0.6137695,-0.3061523,-0.9243164,0.293457,-0.1044922,11,0,2,0,0,7,0,1,-2,-1,-2,-2,0,-1,-1,-1,-15.625,-15.625,-15.625,5.8125,5.8125,5.8125,1.725735,3.559024,7.791157,7.776338,6.941037,1.14493,-0.1040996,-0.3878038,1.526377,0.1329174,0.2685074,1.450339,0.09922395,0.4543061,1.611147,-0.1408009,-0.3755078,1.532095,0.160669,0.2174524,1.528072,0.09072323,-0.01304979,1.610446,0.08687649,-0.3438211,1.588037,-0.08940102,0.1659392,1.625381,-0.0007771652,-0.336477,1.564499,-0.1233078,-0.08216384,1.614947,0.337191,0.03227101,1.40638,NA,NA,NotTracked,Unknown,
0.3349609,-0.8911133,-0.2729492,-0.9199219,0.2739258,-0.09716797,-17,-9,-6,-13,-7,-11,-7,-8,2,1,-1,-1,0,0,-1,-1,2.75,2.75,2.75,7,7,7,1.804006,3.681627,7.696276,7.784221,6.939887,1.148176,-0.1038934,-0.3874725,1.52329,0.1219521,0.2543057,1.432689,0.09939601,0.4542669,1.611049,-0.1409937,-0.377495,1.533492,0.1484684,0.2172431,1.517125,0.09065459,-0.01333724,1.610078,0.086996,-0.34415,1.587704,-0.08939631,0.1659046,1.625341,-0.0007579149,-0.336697,1.564412,-0.1231406,-0.0819881,1.614389,0.3359893,0.03482531,1.40344,NA,NA,NotTracked,Unknown,
0.4213867,-1.078613,-0.144043,-0.9384766,0.2529297,-0.1494141,-22,-2,-1,1,0,-1,11,18,0,0,-2,-2,-2,-2,-1,-2,17.125,17.125,17.125,1.3125,1.3125,1.3125,1.894182,3.767084,7.608107,7.821453,6.933885,1.175167,-0.1009539,-0.3976617,1.515054,0.1201803,0.2380401,1.423725,0.09973447,0.4542453,1.610955,-0.135472,-0.409227,1.521826,0.1324243,0.2046851,1.512091,0.09047182,-0.01365938,1.609539,0.08722575,-0.3447297,1.58733,-0.08939558,0.1657773,1.625328,-0.0006957803,-0.3372413,1.564263,-0.1223112,-0.08306024,1.612512,0.3357305,0.03522854,1.402873,NA,NA,NotTracked,Unknown,
0.8642578,-1.003418,-0.1484375,-0.9545898,0.2480469,-0.1489258,23,11,7,9,4,-3,9,11,-2,0,-2,0,1,0,-1,-3,26.3125,26.3125,26.3125,-5.5625,-5.5625,-5.5625,1.964523,3.772849,7.564106,7.829176,6.931334,1.185229,-0.1009537,-0.3973158,1.514878,0.1207513,0.2398559,1.430011,0.09989938,0.4546121,1.610955,-0.1449698,-0.3666162,1.534471,0.1318842,0.2016467,1.513714,0.09037719,-0.01374395,1.609391,0.0872018,-0.3449277,1.587285,-0.08952685,0.1656626,1.62544,-0.0007494341,-0.3374515,1.56427,-0.1222539,-0.08301894,1.612243,0.3382769,0.03426696,1.404858,NA,NA,NotTracked,Unknown,
1.052246,-0.8330078,-0.1616211,-0.9765625,0.2441406,-0.1118164,-9,6,3,-2,-2,-2,-4,16,-2,0,-1,-1,-1,-2,-1,-1,32.875,32.875,32.875,-9.9375,-9.9375,-9.9375,1.989143,3.744774,7.559391,7.833366,6.931338,1.198714,-0.1013459,-0.3981597,1.514392,0.1429582,0.2375893,1.44076,0.09995152,0.4546232,1.610941,-0.1366868,-0.4127013,1.526524,0.153754,0.2009978,1.519818,0.09027439,-0.01377831,1.609222,0.08715688,-0.3450553,1.587198,-0.08952322,0.1656082,1.625509,-0.0008056897,-0.3376025,1.56425,-0.1222571,-0.08326788,1.611952,0.3440872,0.03262836,1.408909,NA,NA,NotTracked,Unknown,
1.099609,-0.4389648,-0.2138672,-0.9667969,0.3217773,-0.01025391,12,-6,-5,-2,1,0,23,12,-4,-2,-2,-1,0,-2,-2,-2,12.5,12.5,12.5,7.125,7.125,7.125,1.983845,3.64035,7.599689,7.827248,6.938108,1.19114,-0.1028843,-0.3989583,1.513482,0.1339369,0.2576793,1.455561,0.1003808,0.4539303,1.610061,-0.1505531,-0.3618904,1.535667,0.140187,0.2140712,1.529143,0.09020022,-0.01374289,1.608959,0.08699046,-0.3451276,1.586913,-0.08904203,0.1655696,1.625151,-0.0009625097,-0.3376347,1.564103,-0.122233,-0.08331785,1.611911,0.3487163,0.0309359,1.412874,NA,NA,NotTracked,Unknown,
0.9018555,-0.378418,-0.3115234,-0.9208984,0.4042969,0.007324219,-5,0,-3,0,-5,1,-5,-4,1,-2,-2,-1,-1,-2,0,-1,-35.1875,-35.1875,-35.1875,14.75,14.75,14.75,1.861201,3.537026,7.712233,7.841759,6.945849,1.192237,-0.1039907,-0.3946881,1.518004,0.1142516,0.3102457,1.490581,0.100915,0.4526111,1.608867,-0.1387919,-0.4142362,1.524857,0.09061357,0.2769291,1.540538,0.09016771,-0.01371901,1.608951,0.08676233,-0.3450885,1.586903,-0.08865745,0.1655058,1.624971,-0.001192419,-0.3375749,1.564138,-0.122225,-0.08330788,1.61191,0.351722,0.03048231,1.41509,NA,NA,NotTracked,Unknown,
0.7519531,-0.296875,-0.4418945,-0.9077148,0.3945313,0.01318359,5,1,-1,-1,-1,-2,-5,9,-1,-1,1,-2,-2,1,0,0,-31.3125,-31.3125,-31.3125,13.25,13.25,13.25,1.695275,3.474575,7.857193,7.856329,6.951575,1.201582,-0.1047702,-0.3958341,1.517916,0.11316,0.3182876,1.493366,0.1017514,0.4508063,1.606543,-0.1410783,-0.4023459,1.523583,0.1060032,0.2632986,1.544783,0.09016806,-0.01369731,1.608914,0.08652777,-0.3449922,1.586746,-0.08787964,0.1655073,1.62411,-0.001438431,-0.3374622,1.563938,-0.1221189,-0.08343277,1.611848,0.3529812,0.03117566,1.415304,NA,NA,NotTracked,Unknown,
0.7280273,-0.2075195,-0.4516602,-0.9047852,0.3818359,-0.0078125,21,4,-2,-1,4,15,14,15,0,-3,0,-1,-1,-1,-3,-1,-25.9375,-25.9375,-25.9375,10.375,10.375,10.375,1.629057,3.46864,7.912874,7.873233,6.956407,1.214323,-0.1058209,-0.3930994,1.522702,0.1123887,0.3230802,1.493848,0.1024581,0.4495098,1.605112,-0.1439202,-0.3869326,1.531,0.09276027,0.2824889,1.54576,0.09017534,-0.01369306,1.608918,0.08639778,-0.3449378,1.586701,-0.08715317,0.1655915,1.623601,-0.00158586,-0.3373429,1.563824,-0.1220662,-0.08346618,1.611811,0.3540784,0.03265047,1.414529,NA,NA,NotTracked,Unknown,
0.6313477,-0.2304688,-0.3237305,-0.9350586,0.3505859,-0.07421875,-10,-5,-2,-4,-8,-3,0,-6,-2,-1,-1,-1,-2,-1,-2,-1,-18.6875,-18.6875,-18.6875,2.6875,2.6875,2.6875,1.5825,3.495164,7.929157,7.914758,6.964292,1.248709,-0.1059168,-0.3929045,1.52503,0.1138385,0.3195052,1.488441,0.1031435,0.4486636,1.603796,-0.1425532,-0.4001713,1.532354,0.09926777,0.2701767,1.542776,0.09019091,-0.01369908,1.608922,0.08631863,-0.3449355,1.586664,-0.08651827,0.1656113,1.623327,-0.001681935,-0.3373057,1.563759,-0.1219429,-0.08363052,1.611749,0.3552571,0.03434715,1.413625,NA,NA,NotTracked,Unknown,
0.4770508,-0.519043,-0.2641602,-0.9472656,0.3730469,-0.07714844,11,3,5,3,6,7,8,2,-2,1,0,0,0,-1,-1,-1,-8.8125,-8.8125,-8.8125,-10.875,-10.875,-10.875,1.642175,3.575419,7.841106,7.895216,6.958221,1.235849,-0.1061263,-0.3933138,1.524001,0.1447413,0.2700329,1.453825,0.1032722,0.4485551,1.603286,-0.1434389,-0.4023751,1.53975,0.1648543,0.2163879,1.531611,0.09018405,-0.01377552,1.608863,0.0860941,-0.3451092,1.586448,-0.0861474,0.165628,1.622899,-0.001955003,-0.3373902,1.563547,-0.1217456,-0.0839487,1.611351,0.3561621,0.0355748,1.412574,NA,NA,NotTracked,Unknown,
0.4350586,-0.7470703,-0.1079102,-0.9545898,0.2851563,-0.1269531,6,1,-1,0,2,5,8,14,1,0,0,-2,0,-1,0,-1,-2.1875,-2.1875,-2.1875,-23.875,-23.875,-23.875,1.694224,3.625079,7.780783,7.86573,6.951465,1.229688,-0.1055459,-0.3922379,1.524613,0.1436927,0.2618424,1.446254,0.1033891,0.4486738,1.603255,-0.1430046,-0.3749065,1.532028,0.1521103,0.2234263,1.528357,0.09015475,-0.01381985,1.608853,0.08601125,-0.3451946,1.586426,-0.08601762,0.1656214,1.622806,-0.002009104,-0.3374323,1.563552,-0.1215781,-0.08411428,1.611318,0.3568625,0.03686895,1.411687,NA,NA,NotTracked,Unknown,
0.7402344,-0.9272461,-0.08203125,-0.9614258,0.2539063,-0.1186523,9,-3,-1,-4,-1,8,6,-8,-2,-1,-3,-2,-2,-2,-3,-1,48.25,48.25,48.25,-10.1875,-10.1875,-10.1875,1.80301,3.689564,7.706916,7.847218,6.950477,1.224996,-0.1053963,-0.3926845,1.522769,0.1412998,0.2513695,1.440562,0.1033958,0.4487687,1.603253,-0.1415976,-0.3896504,1.530413,0.1324183,0.2205644,1.526786,0.090059,-0.01391886,1.608751,0.08589391,-0.3453664,1.586333,-0.08594416,0.16556,1.622729,-0.002151104,-0.3375731,1.5635,-0.121551,-0.08420122,1.611179,0.3576546,0.0374673,1.411345,NA,NA,NotTracked,Unknown,
0.862793,-0.8305664,-0.08740234,-0.9477539,0.2768555,-0.1113281,6,3,-1,2,4,-2,-1,15,1,-1,-1,-1,-1,-1,-1,-1,71.6875,71.6875,71.6875,-0.9375,-0.9375,-0.9375,1.854804,3.699409,7.699477,7.847274,6.950148,1.225602,-0.1057077,-0.3882461,1.52288,0.1181976,0.2775924,1.482136,0.1034974,0.448518,1.603081,-0.1432477,-0.378071,1.537024,0.130131,0.2136508,1.53822,0.08988966,-0.01402914,1.608399,0.08573072,-0.3456217,1.58616,-0.08587848,0.1654584,1.62266,-0.002287788,-0.3377603,1.563389,-0.1215389,-0.08428107,1.611026,0.358629,0.0374494,1.411741,NA,NA,NotTracked,Unknown,
0.9023438,-0.5141602,-0.3041992,-0.9262695,0.3310547,-0.07568359,3,-12,-7,1,-1,-3,-15,-25,0,0,-1,0,0,0,-1,0,5,5,5,10.0625,10.0625,10.0625,1.842649,3.625518,7.78587,7.860974,6.952318,1.230565,-0.1054801,-0.3885429,1.523398,0.1158481,0.2861291,1.494098,0.1035528,0.4475101,1.602544,-0.1443606,-0.3812675,1.543375,0.1146023,0.2246981,1.545792,0.08987482,-0.01403996,1.608354,0.08571871,-0.3456329,1.586141,-0.08586375,0.1654442,1.622616,-0.002297249,-0.3377709,1.563385,-0.1215078,-0.08432786,1.61102,0.3589707,0.03700745,1.412357,NA,NA,NotTracked,Unknown,
0.7304688,-0.4311523,-0.4775391,-0.9335938,0.3623047,-0.05419922,-12,-5,-10,-13,-4,0,-5,-5,-3,0,-2,-2,-1,0,-1,-3,-11.6875,-11.6875,-11.6875,2.1875,2.1875,2.1875,1.751017,3.561022,7.877697,7.87913,6.955662,1.244567,-0.1059977,-0.3885826,1.524611,0.1139757,0.2938729,1.497921,0.103719,0.4465233,1.601843,-0.1479372,-0.3633733,1.547812,0.1005618,0.23545,1.55217,0.08987374,-0.01404419,1.608298,0.08570659,-0.345635,1.586099,-0.08579253,0.1654063,1.6226,-0.002304697,-0.3377844,1.563379,-0.1215043,-0.08438668,1.610977,0.3590449,0.03632049,1.413013,NA,NA,NotTracked,Unknown,
0.6630859,-0.3310547,-0.3876953,-0.9458008,0.309082,-0.05761719,-15,1,3,1,-1,-6,-7,12,-1,0,-1,-1,-3,-2,-1,-3,-1.75,-1.75,-1.75,-4.5,-4.5,-4.5,1.708498,3.53156,7.916723,7.889918,6.960771,1.260461,-0.1063755,-0.38937,1.524611,0.1119535,0.297774,1.495569,0.1037741,0.4457836,1.601165,-0.1366887,-0.4248836,1.522765,0.09897234,0.2391169,1.552721,0.08985824,-0.01408918,1.608229,0.08559152,-0.3457138,1.586013,-0.08566157,0.1652829,1.622439,-0.00237473,-0.3378529,1.563358,-0.1214882,-0.08438765,1.610975,0.3589705,0.03605073,1.413019,NA,NA,NotTracked,Unknown,
0.5571289,-0.371582,-0.3100586,-0.9492188,0.3193359,-0.05517578,2,-1,-2,-3,-4,-3,-7,-1,-2,-1,-1,-1,-2,-1,-1,-1,2,2,2,-1.9375,-1.9375,-1.9375,1.745358,3.548007,7.862699,7.884235,6.962989,1.25778,-0.1064077,-0.3895688,1.524925,0.1110882,0.2964025,1.490755,0.1037543,0.4456794,1.600616,-0.1456059,-0.370458,1.532704,0.09596574,0.2368883,1.550957,0.08985906,-0.01408924,1.60815,0.08555652,-0.3457087,1.585976,-0.08562432,0.1652862,1.622399,-0.002405378,-0.3378474,1.563339,-0.1214292,-0.08443847,1.61097,0.3584934,0.03552894,1.413141,NA,NA,NotTracked,Unknown,
0.519043,-0.4213867,-0.2456055,-0.9414063,0.3466797,-0.05273438,3,-3,1,-1,-2,-2,-1,-5,-4,-4,-3,0,-1,-1,-1,-2,0.25,0.25,0.25,-9.1875,-9.1875,-9.1875,1.787595,3.572232,7.808257,7.85564,6.960421,1.236864,-0.1098151,-0.372479,1.531944,0.1091364,0.2927159,1.484035,0.1034113,0.4459929,1.60028,-0.1466338,-0.3687366,1.548333,0.1046844,0.2305925,1.545889,0.08980294,-0.01417905,1.608023,0.08550004,-0.34583,1.585931,-0.08565818,0.1651433,1.622334,-0.002444525,-0.3379764,1.563368,-0.1214206,-0.08445074,1.610989,0.3574286,0.03406918,1.413594,NA,NA,NotTracked,Unknown,
0.4023438,-0.4125977,-0.1503906,-0.9370117,0.3139648,-0.06933594,-1,-1,0,-3,-2,-3,1,-2,-1,1,-1,-1,-2,-1,-1,0,12.8125,12.8125,12.8125,-13.5,-13.5,-13.5,1.973494,3.695473,7.579076,7.829333,6.959895,1.224183,-0.1092768,-0.373198,1.53124,0.1502567,0.2307304,1.430656,0.1029044,0.4471059,1.600424,-0.1423564,-0.3894892,1.531652,0.1519708,0.1974638,1.511059,0.08976381,-0.01422769,1.607889,0.08553162,-0.3459373,1.58588,-0.08571952,0.1651339,1.62233,-0.002433873,-0.3380897,1.563403,-0.1214084,-0.0845665,1.610983,0.3550122,0.03024811,1.415396,NA,NA,NotTracked,Unknown,
0.06347656,-0.340332,0.07910156,-0.9462891,0.3125,-0.08349609,-16,0,-3,-2,-1,-4,-5,2,-1,-3,-2,-2,0,0,0,0,27.6875,27.6875,27.6875,-7.4375,-7.4375,-7.4375,2.139272,3.844211,7.382559,7.824403,6.961981,1.228902,-0.1078964,-0.3769837,1.530312,0.1446015,0.2133402,1.415343,0.1022795,0.4482341,1.600471,-0.1419746,-0.3986782,1.5373,0.1476331,0.1815386,1.500417,0.08972447,-0.01432095,1.607738,0.08556886,-0.3459916,1.585847,-0.08617646,0.1651695,1.622508,-0.00240621,-0.3381597,1.5634,-0.1213665,-0.08474617,1.611035,0.3525969,0.02298946,1.421497,NA,NA,NotTracked,Unknown,
-0.01318359,-0.324707,0.1469727,-0.9462891,0.3374023,-0.1049805,4,-1,5,2,-3,-2,-1,-8,0,-1,-1,0,-1,-2,0,-1,32.8125,32.8125,32.8125,-16.25,-16.25,-16.25,2.217112,3.9658,7.290987,7.833283,6.962584,1.253198,-0.1073279,-0.3764297,1.530234,0.1414695,0.1846579,1.39331,0.1018941,0.449031,1.601074,-0.1435801,-0.3754234,1.536429,0.1576588,0.1483253,1.4915,0.08985528,-0.01451609,1.60746,0.08566257,-0.3458041,1.585694,-0.08701675,0.165466,1.622726,-0.002323893,-0.3380456,1.563277,-0.1212712,-0.08518636,1.611017,0.3515676,0.008231495,1.438361,NA,NA,NotTracked,Unknown,
-0.006347656,-0.5087891,0.1069336,-0.940918,0.3193359,-0.105957,2,-1,-4,-3,3,1,-5,-14,1,1,-1,-1,-1,0,-1,-2,40.3125,40.3125,40.3125,-25.3125,-25.3125,-25.3125,2.33542,4.315498,7.154808,7.833002,6.963605,1.267183,-0.1073447,-0.3767156,1.530807,0.1359322,0.1416929,1.375113,0.10153,0.4498977,1.602432,-0.1456674,-0.3732981,1.550143,0.1157577,0.1128862,1.4285,0.09082687,-0.01377264,1.608656,0.08597106,-0.3448125,1.585788,-0.08748459,0.1657595,1.623114,-0.001791439,-0.337099,1.562857,-0.1212646,-0.085191,1.611032,0.3592939,0.002409445,1.455092,NA,NA,NotTracked,Unknown,
-0.1162109,-1.185547,-0.1459961,-0.9580078,0.2817383,-0.08789063,-14,4,0,-3,-15,-10,-3,11,-1,0,-2,-1,1,0,1,-1,59.5,59.5,59.5,-25.5,-25.5,-25.5,2.420915,4.747785,7.072843,7.817406,6.966338,1.281589,-0.107278,-0.3773938,1.532294,0.1324387,0.08445576,1.352605,0.100892,0.45127,1.604805,-0.1441942,-0.3802828,1.541113,0.1462208,0.1061788,1.360667,0.09118897,-0.0129242,1.609689,0.08623202,-0.3434325,1.586276,-0.08706883,0.1661226,1.624311,-0.001001775,-0.3357664,1.562736,-0.1215712,-0.08557449,1.611323,0.3625922,-0.002168713,1.466757,NA,NA,NotTracked,Unknown,
-0.1640625,-0.9375,0.1328125,-0.9443359,0.3022461,-0.04882813,-9,-17,0,-1,6,10,5,-12,0,-1,1,-1,0,0,0,0,56.25,56.25,56.25,-11.0625,-11.0625,-11.0625,2.487592,5.174141,7.02595,7.799255,6.967936,1.279199,-0.1083836,-0.3765073,1.531928,0.1303301,0.01238305,1.336327,0.09979291,0.4538648,1.607081,-0.1380207,-0.3882648,1.527147,0.1019475,-0.0123897,1.355313,0.09115997,-0.01127886,1.610327,0.08560392,-0.3391707,1.58628,-0.08703993,0.1663308,1.625103,-0.0007481996,-0.3315889,1.561087,-0.1218918,-0.08594616,1.611703,0.3708402,-0.005741784,1.48215,NA,NA,NotTracked,Unknown,
-0.3642578,-0.8398438,0.03369141,-0.9189453,0.3212891,-0.04248047,-6,0,-1,0,9,6,2,-3,-3,-3,0,0,-1,-2,-1,-1,30.125,30.125,30.125,-8.75,-8.75,-8.75,2.52657,5.604973,6.98278,7.79131,6.967461,1.276094,-0.1087858,-0.3768334,1.532825,0.1455084,-0.1453478,1.34975,0.09756938,0.4563594,1.610384,-0.1446063,-0.3731917,1.541804,0.08819175,-0.1479753,1.397818,0.09126696,-0.01011832,1.610981,0.08539595,-0.3376534,1.586236,-0.08750834,0.1663885,1.625198,-0.0004830605,-0.3298637,1.560179,-0.1221812,-0.08608374,1.612389,0.429849,-0.02233847,1.501575,NA,NA,NotTracked,Unknown,
-0.659668,-1.055176,0.1733398,-0.9223633,0.3486328,-0.02587891,-4,-1,-1,-3,-15,10,32,28,-2,0,-2,-2,0,-1,0,-1,-43.5625,-43.5625,-43.5625,-9.9375,-9.9375,-9.9375,2.492196,5.797027,6.955363,7.777115,6.966156,1.272605,-0.1088012,-0.377011,1.531586,0.1646178,-0.2139277,1.3716,0.09634324,0.4575656,1.611826,-0.1414537,-0.3937192,1.533333,0.1555431,-0.264029,1.411,0.09117586,-0.009802337,1.610899,0.08483224,-0.3371143,1.58584,-0.08806528,0.1664936,1.625292,-0.0009928162,-0.3290078,1.559125,-0.122278,-0.08631775,1.61282,0.3801957,-0.02000464,1.527029,NA,NA,NotTracked,Unknown,
-0.8369141,-1.23291,0.2832031,-0.9433594,0.3330078,-0.01220703,3,-3,-1,-3,6,-2,9,1,-2,0,-1,-1,-2,-1,-1,-2,-87.5,-87.5,-87.5,-5.3125,-5.3125,-5.3125,2.431217,5.965792,6.926333,7.766426,6.967805,1.27199,-0.1086087,-0.3804739,1.5314,0.1816889,-0.2639516,1.397683,0.09525248,0.4583649,1.613164,-0.1437134,-0.3803431,1.538771,0.1262502,-0.2568724,1.441684,0.09081114,-0.009495719,1.610641,0.08289099,-0.3366238,1.584596,-0.08855717,0.16647,1.625276,-0.003152796,-0.3280753,1.557544,-0.1224697,-0.08619726,1.613336,0.3778374,-0.02390304,1.528579,NA,NA,NotTracked,Unknown,
-0.9580078,-1.151367,-0.08544922,-0.996582,0.3833008,-0.01171875,-22,3,-1,2,-2,-5,-18,10,-1,-1,-1,0,-2,-1,-2,-1,-18.4375,-18.4375,-18.4375,6.25,6.25,6.25,2.245989,6.389678,6.772792,7.772269,6.971231,1.273709,-0.1087613,-0.3803098,1.531139,0.1983674,-0.3037587,1.412559,0.09425984,0.4594761,1.614446,-0.1427472,-0.3841725,1.535492,0.1399962,-0.2754806,1.439257,0.09034706,-0.009140904,1.61043,0.08109724,-0.3363042,1.583834,-0.08889458,0.1664422,1.625264,-0.005203431,-0.3272344,1.556357,-0.1226866,-0.08595802,1.613795,0.3623561,-0.03501476,1.534756,NA,NA,NotTracked,Unknown,
-1.119141,-1.14502,-0.1582031,-0.9726563,0.3740234,-0.0390625,83,0,0,-1,-2,-2,0,-1,-1,-3,-2,-1,-2,-2,-1,-2,4.75,4.75,4.75,-3.1875,-3.1875,-3.1875,2.184888,6.498897,6.690804,7.78332,6.974423,1.286622,-0.1088989,-0.3821988,1.532569,0.2339952,-0.3468148,1.398251,0.09364644,0.4603894,1.61503,-0.1479709,-0.3649563,1.552444,0.2028488,-0.3267764,1.426616,0.09019993,-0.008935164,1.610211,0.08101008,-0.3362691,1.583709,-0.08937297,0.1664116,1.62525,-0.005324067,-0.3271005,1.556081,-0.1227416,-0.08601964,1.613893,0.3461118,-0.04412996,1.542746,NA,NA,NotTracked,Unknown,
-1.093262,-1.055664,-0.1977539,-0.9365234,0.3105469,-0.07177734,46,-2,-1,-1,-4,-2,-5,-11,-2,-2,-2,1,0,0,-1,0,45.3125,45.3125,45.3125,0.375,0.375,0.375,2.061433,6.681778,6.500417,7.801466,6.981182,1.308,-0.1087517,-0.3822052,1.532867,0.2488674,-0.3673251,1.418537,0.09321605,0.4612446,1.615834,-0.1453736,-0.3724109,1.548588,0.2040108,-0.3613873,1.390548,0.09024908,-0.008768596,1.609946,0.08126747,-0.3362604,1.583566,-0.08960211,0.1664563,1.625096,-0.004963133,-0.3270862,1.555798,-0.1228363,-0.08603549,1.613932,0.3286565,-0.06711189,1.553802,NA,NA,NotTracked,Unknown,
-1.10498,-0.800293,-0.2192383,-0.9233398,0.3076172,-0.08349609,3,0,0,-1,-3,-2,-5,-5,-2,0,-2,-1,-1,-2,-2,-1,97.3125,97.3125,97.3125,7.5625,7.5625,7.5625,1.935939,6.834352,6.25498,7.814581,6.983532,1.317585,-0.1078461,-0.3864959,1.531244,0.2532081,-0.3935863,1.430568,0.09313323,0.4619183,1.61618,-0.1444159,-0.3752418,1.544627,0.2092849,-0.3957514,1.3975,0.09048881,-0.008808702,1.60947,0.08202331,-0.3367041,1.583171,-0.08994703,0.1665324,1.624825,-0.004039666,-0.3275955,1.555102,-0.1230518,-0.08626208,1.613919,0.3196614,-0.07810673,1.560164,NA,NA,NotTracked,NotTracked,
-1.073242,-0.4570313,-0.277832,-0.9194336,0.3237305,-0.06640625,-10,-2,-1,-2,-3,-2,-4,-3,1,-2,-1,-1,-2,-1,0,0,107.5,107.5,107.5,19.6875,19.6875,19.6875,1.821904,6.944376,6.00015,7.83169,6.985659,1.315719,-0.1048842,-0.4011297,1.523773,0.2588724,-0.4040859,1.441941,0.09317992,0.4621558,1.616218,-0.1453307,-0.3715374,1.54689,0.2161501,-0.3998544,1.421531,0.09071404,-0.008889602,1.608691,0.08286994,-0.3371607,1.582664,-0.0903201,0.166563,1.624128,-0.003056564,-0.3281643,1.554224,-0.1231027,-0.08642677,1.613687,0.316803,-0.0784191,1.561724,NA,NA,NotTracked,NotTracked,
-1.089844,-0.3730469,-0.2548828,-0.9287109,0.3432617,-0.06591797,-2,-2,-2,-4,-1,-2,1,-4,-1,-2,0,-1,0,-1,-2,0,59.5625,59.5625,59.5625,22.25,22.25,22.25,1.669602,7.007698,5.75594,7.846104,6.982003,1.305227,-0.1047406,-0.4012697,1.523058,0.2631755,-0.4134071,1.450866,0.09345992,0.4623586,1.616141,-0.1419432,-0.3808644,1.534957,0.2152242,-0.402996,1.4372,0.09103657,-0.008900502,1.607984,0.08358825,-0.3374895,1.582307,-0.09053452,0.1665763,1.623177,-0.002223272,-0.3285793,1.553611,-0.1230869,-0.08696733,1.613078,0.3123495,-0.08235291,1.562976,NA,NA,NotTracked,NotTracked,
-0.9995117,-0.5727539,-0.3862305,-0.9370117,0.3217773,-0.06591797,-1,-2,0,0,-3,-1,1,1,-1,0,-1,0,-2,-1,0,1,105.375,105.375,105.375,16.1875,16.1875,16.1875,1.573529,7.0222,5.563884,7.857758,6.977535,1.296865,-0.1043436,-0.4014678,1.522725,0.2648705,-0.4183338,1.459942,0.09397937,0.4627377,1.616097,-0.1468185,-0.3552297,1.549286,0.2163239,-0.4161019,1.440711,0.09136135,-0.008939951,1.607383,0.08440903,-0.337829,1.581932,-0.09035431,0.1666965,1.623315,-0.001241813,-0.3289421,1.552917,-0.1229837,-0.08700404,1.612536,0.3092515,-0.08349439,1.564677,NA,NA,NotTracked,NotTracked,
