ALX,ALY,ALZ,ARX,ARY,ARZ,EMG0L,EMG1L,EMG2L,EMG3L,EMG4L,EMG5L,EMG6L,EMG7L,EMG0R,EMG1R,EMG2R,EMG3R,EMG4R,EMG5R,EMG6R,EMG7R,GLX,GLY,GLZ,GRX,GRY,GRZ,ORL,OPL,OYL,ORR,OPR,OYR,LHNX,LHNY,LHNZ,RHNX,RHNY,RHNZ,HX,HY,HZ,LTX,LTY,LTZ,RTX,RTY,RTZ,SpineMidX,SpineMidY,SpineMidZ,SpineBaseX,SpineBaseY,SpineBaseZ,ShoulderLeftX,ShoulderLeftY,ShoulderLeftZ,ShoulderRightX,ShoulderRightY,ShoulderRightZ,ElbowLeftX,ElbowLeftY,ElbowLeftZ,ElbowRightX,ElbowRightY,ElbowRightZ,Myo_Pose_left,Myo_Pose_Right,Kinect_pose_left,Kinect_pose_right
-0.9511719,-0.3076172,-0.1899414,-0.9238281,0.3745117,-0.03955078,-1,0,-1,-2,-1,-1,-1,-1,-3,-3,-1,0,-1,-1,-2,-3,3.375,3.375,3.375,1.9375,1.9375,1.9375,1.619849,6.930852,1.890829,7.661992,6.873614,9.905869,-0.08955367,-0.4100997,1.480001,0.3203699,-0.4164376,1.424152,0.1231883,0.4598271,1.548934,-0.1338463,-0.4158993,1.475889,0.367478,-0.4307767,1.41684,0.1272395,-0.009254725,1.556893,0.1291372,-0.3367352,1.538353,-0.06276051,0.178007,1.574155,0.04223265,-0.3298544,1.508085,-0.1000673,-0.09018299,1.589409,0.3366944,-0.09564608,1.536479,NA,NA,NotTracked,NotTracked,
-0.9487305,-0.3061523,-0.1953125,-0.9208984,0.3808594,-0.0390625,1,0,-2,0,0,0,-1,-1,-1,-5,-1,-1,-2,-1,1,-1,4.8125,4.8125,4.8125,1.1875,1.1875,1.1875,1.623189,6.930201,1.88915,7.663088,6.872766,9.905221,-0.09027658,-0.4103525,1.479883,0.3202513,-0.4165932,1.423806,0.1232165,0.4598175,1.548934,-0.1330025,-0.423407,1.471192,0.3642007,-0.456062,1.415375,0.1272048,-0.009260542,1.556859,0.1290702,-0.3367818,1.538152,-0.06276447,0.1779838,1.574135,0.04217182,-0.3298847,1.507878,-0.1000023,-0.09054289,1.589232,0.3366322,-0.09565407,1.536457,NA,NA,NotTracked,NotTracked,
-0.9501953,-0.3027344,-0.1992188,-0.9306641,0.3779297,-0.03710938,4,3,0,-2,-2,1,-2,2,-2,-1,0,-2,-2,-2,0,-1,5,5,5,1.6875,1.6875,1.6875,1.625437,6.929767,1.885651,7.664019,6.871269,9.904428,-0.09020118,-0.4095679,1.480359,0.3203287,-0.4168023,1.424457,0.1232589,0.4598325,1.548934,-0.1332975,-0.4223759,1.475615,0.3699479,-0.4606241,1.4265,0.1271943,-0.009276889,1.556831,0.1290374,-0.3368148,1.538069,-0.06278805,0.1779525,1.574112,0.04213557,-0.3299119,1.507746,-0.1001777,-0.090574,1.58903,0.3366084,-0.09567438,1.536442,NA,NA,NotTracked,NotTracked,
-0.9521484,-0.2944336,-0.1992188,-0.9287109,0.3847656,-0.04003906,0,0,0,-3,-2,-2,-1,-2,-1,0,-2,-2,0,-1,-2,-1,4.5,4.5,4.5,2.0625,2.0625,2.0625,1.62552,6.929586,1.883365,7.664434,6.870249,9.903473,-0.09034778,-0.4096366,1.4797,0.3202163,-0.4165398,1.423815,0.1232764,0.4598227,1.548909,-0.1342977,-0.4186022,1.475359,0.3702587,-0.4258497,1.423,0.1271919,-0.009285713,1.556756,0.1289864,-0.336827,1.537924,-0.06277117,0.1779389,1.573962,0.04209544,-0.3298963,1.507543,-0.1001907,-0.09058939,1.589016,0.3365869,-0.09568522,1.536389,NA,NA,NotTracked,NotTracked,
-0.9536133,-0.3095703,-0.1967773,-0.9453125,0.3886719,-0.04150391,1,0,0,-1,-2,-2,-4,-1,0,1,-2,-1,-1,-2,-2,-2,4.375,4.375,4.375,0.375,0.375,0.375,1.6246,6.928959,1.877283,7.661242,6.866527,9.898808,-0.09084851,-0.4096135,1.478606,0.3201832,-0.4162508,1.423467,0.1232971,0.4598275,1.548863,-0.137389,-0.4070898,1.482231,0.3697349,-0.4213074,1.422357,0.1271793,-0.009290782,1.556643,0.1289715,-0.3368126,1.537795,-0.06275242,0.1779524,1.573907,0.04209408,-0.3298711,1.507414,-0.1001786,-0.08986843,1.588945,0.3365413,-0.09565845,1.536257,NA,NA,NotTracked,NotTracked,
-0.9526367,-0.3100586,-0.2011719,-0.9624023,0.3979492,-0.04833984,1,0,-1,-1,-2,-11,-16,-6,2,-2,-2,-2,-1,1,-2,-2,3.25,3.25,3.25,2.375,2.375,2.375,1.624083,6.927993,1.87272,7.645905,6.858681,9.879803,-0.09050573,-0.4087085,1.478651,0.3202174,-0.4164115,1.423523,0.123317,0.4598419,1.548853,-0.1338154,-0.4140284,1.468629,0.3650599,-0.4549929,1.415,0.127199,-0.009308174,1.556593,0.128939,-0.3368636,1.537625,-0.06275143,0.177898,1.573771,0.04206847,-0.3299249,1.507048,-0.1003673,-0.08888405,1.588871,0.336509,-0.09562698,1.536246,NA,NA,NotTracked,NotTracked,
-0.9780273,-0.3481445,-0.2128906,-1.03125,0.5019531,-0.09912109,-10,-2,0,-2,-6,-13,-25,-13,-4,-14,-3,0,-1,-1,2,-1,5.5625,5.5625,5.5625,-11.6875,-11.6875,-11.6875,1.637317,6.922179,1.881816,7.602107,6.834559,9.837935,-0.09069921,-0.4079706,1.476534,0.3198802,-0.415566,1.422005,0.1233115,0.4598496,1.548835,-0.13651,-0.4137754,1.472677,0.3663157,-0.4290728,1.414,0.1271565,-0.009309658,1.556342,0.1287873,-0.3368501,1.537133,-0.06275886,0.1779023,1.573545,0.04189441,-0.3298629,1.506496,-0.1004764,-0.08909485,1.58884,0.336492,-0.09564865,1.536202,NA,NA,NotTracked,NotTracked,
-1.044434,-0.4316406,-0.2319336,-1.17627,0.5361328,0.004882813,0,-3,-2,-1,-8,-18,4,4,12,26,29,22,8,-3,-2,3,35,35,35,-47.3125,-47.3125,-47.3125,1.696843,6.898775,1.915742,7.470305,6.778838,9.735303,-0.09037241,-0.4073331,1.472926,0.3193339,-0.4148665,1.420022,0.1233159,0.4598479,1.548831,-0.1350413,-0.4226827,1.46125,0.3676277,-0.4533992,1.42,0.1271738,-0.009320111,1.556216,0.1287576,-0.3369104,1.536839,-0.06277408,0.1778308,1.573338,0.0418693,-0.3299163,1.506242,-0.1010097,-0.08771111,1.589103,0.3364902,-0.09547932,1.536304,NA,NA,NotTracked,NotTracked,
-1.145508,-0.4697266,-0.2329102,-1.159668,0.5424805,0.1020508,4,3,5,5,4,13,22,1,-10,-4,-21,-22,-9,1,-4,-8,53.5,53.5,53.5,-51,-51,-51,1.770954,6.873644,1.963532,7.368737,6.736835,9.654547,-0.08814725,-0.4029324,1.463949,0.3163306,-0.4084726,1.413874,0.1233239,0.4598933,1.548802,-0.09721735,-0.4581756,1.5055,0.3582126,-0.4236415,1.395667,0.1269922,-0.009269362,1.55607,0.1285889,-0.3369001,1.536704,-0.0627863,0.1778409,1.57326,0.04167212,-0.3298555,1.506029,-0.1014567,-0.0865215,1.590229,0.3368708,-0.09488615,1.5373,NA,NA,NotTracked,NotTracked,
-1.271484,-0.5200195,-0.1293945,-1.081543,0.871582,0.3652344,-18,-1,0,-3,0,4,-2,3,4,3,10,-2,1,2,3,3,92.375,92.375,92.375,-70.125,-70.125,-70.125,2.041925,6.778286,2.163343,7.119374,6.59184,9.454298,-0.08659255,-0.3887986,1.450966,0.308888,-0.3951442,1.399806,0.1232069,0.4599119,1.548561,-0.05934642,-0.3861731,1.479718,0.3492923,-0.3946413,1.367571,0.1267848,-0.00916246,1.555742,0.1284125,-0.3367828,1.536426,-0.06289242,0.1779781,1.573139,0.04149735,-0.3296769,1.505708,-0.1027392,-0.08514132,1.591755,0.3386387,-0.09243543,1.539914,NA,NA,NotTracked,NotTracked,
-1.235352,-1.101074,0.2202148,-1.010742,1.078613,0.3330078,40,18,-27,-3,9,-1,-2,1,1,0,-4,-8,4,10,4,2,115,115,115,-93.1875,-93.1875,-93.1875,2.381986,6.605772,2.404434,6.899677,6.383135,9.302127,-0.0866088,-0.3625614,1.439094,0.3082632,-0.3637089,1.378441,0.1228896,0.4598996,1.547896,-0.04445287,-0.3578847,1.444275,0.3121359,-0.3515541,1.332262,0.1266422,-0.009071895,1.555415,0.1283873,-0.3366656,1.536307,-0.06315282,0.1780954,1.573001,0.0414465,-0.3295641,1.505576,-0.104306,-0.08289332,1.59466,0.3408707,-0.08931343,1.545108,NA,NA,NotTracked,NotTracked,
-1.120605,-1.375977,0.05810547,-0.8813477,0.777832,0.3081055,-35,19,23,5,-8,1,-2,2,-3,-1,2,3,-1,-2,-9,-5,164.0625,164.0625,164.0625,-106.625,-106.625,-106.625,2.687915,6.356656,2.584152,6.679266,6.1514,9.163531,-0.08893312,-0.327668,1.420317,0.3079514,-0.3305055,1.35943,0.1223828,0.4597273,1.546738,-0.0502411,-0.3707856,1.4102,0.3010008,-0.3070837,1.3071,0.1265692,-0.008846559,1.554892,0.1284243,-0.336211,1.536031,-0.06338245,0.1784127,1.572854,0.04141,-0.3292183,1.505407,-0.1062565,-0.07737099,1.59851,0.3450166,-0.08138862,1.551209,NA,NA,NotTracked,NotTracked,
-0.8408203,-0.4448242,-0.07080078,-0.6108398,0.4853516,0.2885742,15,46,14,1,-6,-2,-5,-4,-1,-1,-4,-3,-6,-1,2,0,176.125,176.125,176.125,-35,-35,-35,3.122697,6.00002,2.755702,6.529875,5.929345,9.013808,-0.05515533,-0.2628368,1.381857,0.2707364,-0.2561004,1.354282,0.1205468,0.4587904,1.542127,-0.01762054,-0.2755908,1.3748,0.3186399,-0.2073313,1.330625,0.1259395,-0.008091131,1.553223,0.1280703,-0.3341612,1.534339,-0.06412907,0.1797263,1.572737,0.04094052,-0.3275445,1.503949,-0.1122565,-0.05731444,1.603829,0.3478363,-0.05067243,1.559878,NA,NA,Unknown,Unknown,
-0.6337891,-0.1933594,0.09179688,-0.5185547,0.3813477,0.3085938,4,-9,4,3,1,0,2,-1,-6,-9,-9,2,33,15,-10,-11,102.8125,102.8125,102.8125,39.125,39.125,39.125,3.214446,5.89674,2.817668,6.475499,5.73815,8.860166,-0.03470602,-0.2049207,1.395052,0.2657908,-0.207819,1.310579,0.1196934,0.4578041,1.539924,-0.01089115,-0.2055092,1.2954,0.2959205,-0.1732038,1.288375,0.125817,-0.007785269,1.552908,0.1279545,-0.3331357,1.533908,-0.06457151,0.181175,1.572666,0.04085818,-0.3267353,1.503616,-0.1264965,-0.0394572,1.604828,0.3477809,-0.04836526,1.56061,NA,NA,Unknown,Lasso,
-0.5307617,-0.1879883,0.1821289,-0.5273438,0.4985352,0.34375,-8,-21,-15,-2,-4,-1,2,12,-3,2,4,0,-9,-6,-1,-6,13.3125,13.3125,13.3125,67.5,67.5,67.5,3.256813,5.798279,2.885252,6.486335,5.596572,8.706478,-0.03500922,-0.1698318,1.371351,0.2498359,-0.1620169,1.295981,0.1189306,0.4569998,1.537875,0.0180757,-0.1490683,1.3225,0.2712125,-0.1400075,1.236667,0.1257096,-0.007504251,1.552719,0.1278509,-0.3320718,1.533765,-0.06476152,0.182782,1.572429,0.04090339,-0.3260366,1.503541,-0.1332541,-0.03605571,1.603844,0.3609721,-0.04141627,1.558346,NA,NA,Unknown,Lasso,
-0.5610352,-0.706543,0.2192383,-0.5234375,0.5600586,0.3588867,-31,-32,-16,-9,-4,-1,-5,-5,-1,2,1,2,0,1,3,-3,-108.75,-108.75,-108.75,36.5,36.5,36.5,3.182791,5.545044,3.081748,6.48937,5.512331,8.557581,-0.01423089,-0.1433791,1.373115,0.2164108,-0.1321872,1.282017,0.1181648,0.4562426,1.536041,0.03278183,-0.1216895,1.3432,0.2363089,-0.1312009,1.248429,0.1256356,-0.007399919,1.552568,0.1278648,-0.3317237,1.533718,-0.06521177,0.182467,1.572811,0.04092824,-0.3258274,1.503535,-0.1403913,-0.03524622,1.599276,0.3759501,-0.04645361,1.509802,NA,NA,Unknown,Unknown,
-0.4658203,-0.609375,0.1884766,-0.2973633,0.4101563,0.4550781,20,2,-2,-5,-1,2,14,56,-2,1,0,2,-1,-1,1,3,-24.6875,-24.6875,-24.6875,26.0625,26.0625,26.0625,3.168021,5.450415,3.216807,6.457652,5.511768,8.37915,-0.01188705,-0.1324428,1.408436,0.1959573,-0.107532,1.290818,0.1176391,0.4554538,1.534925,0.03177283,-0.1694256,1.418038,0.2282577,-0.1012346,1.262546,0.1255903,-0.007372133,1.552519,0.127932,-0.3315059,1.533745,-0.06555989,0.1822164,1.572999,0.04098848,-0.3256862,1.503584,-0.1544303,-0.03073985,1.596768,0.3653469,-0.04252103,1.506572,NA,NA,Unknown,Unknown,
-0.3891602,-0.5400391,0.2138672,-0.2495117,0.5048828,0.4667969,5,0,-9,-4,-3,-6,-7,-17,-7,-6,-5,-1,-1,-2,-1,-5,3.4375,3.4375,3.4375,44.6875,44.6875,44.6875,3.187007,5.430299,3.280567,6.471859,5.525751,8.354008,0.02450831,-0.1174466,1.395155,0.186322,-0.09180709,1.311071,0.1171815,0.4551388,1.533968,0.05556357,-0.1435833,1.404468,0.2156513,-0.08475853,1.277786,0.1255004,-0.007211255,1.552352,0.1279721,-0.3310325,1.533752,-0.06535419,0.1838981,1.5711,0.04101349,-0.3252445,1.50362,-0.1615023,-0.02576349,1.59522,0.3633739,-0.04076635,1.497294,NA,NA,Unknown,NotTracked,
-0.3125,-0.609375,0.2412109,-0.1601563,0.8222656,0.4589844,-9,-5,-1,-4,1,-3,-6,-7,-3,-2,0,0,0,-2,-5,-1,-14.0625,-14.0625,-14.0625,32.0625,32.0625,32.0625,3.205999,5.436641,3.382732,6.523437,5.556526,8.358545,0.01119434,-0.1183091,1.430533,0.1848345,-0.1047869,1.397837,0.1164874,0.4547424,1.532544,0.03201911,-0.1856901,1.411733,0.2218779,-0.05183051,1.29925,0.1247134,-0.006294082,1.551221,0.127722,-0.3294703,1.533418,-0.06455073,0.1869196,1.567516,0.04074767,-0.3239004,1.50332,-0.1738586,-0.01396552,1.600383,0.4169751,-0.01066657,1.538067,NA,NA,NotTracked,NotTracked,
-0.3125,-0.609375,0.2412109,-0.03613281,0.8129883,0.4360352,-9,-5,-1,-4,1,-3,-6,-7,-2,-7,-19,-21,-6,-1,0,2,-14.0625,-14.0625,-14.0625,-9.4375,-9.4375,-9.4375,3.205999,5.436641,3.382732,6.558023,5.586718,8.429415,0.007959109,-0.1172948,1.435259,0.1853002,-0.1061986,1.402184,0.1160655,0.454783,1.531834,0.0008564944,-0.1832031,1.437173,0.2217036,-0.05832684,1.298252,0.1243896,-0.005728747,1.55065,0.1276959,-0.3288615,1.533279,-0.06447487,0.1877735,1.566775,0.04065748,-0.3233887,1.50317,-0.177652,-0.009596074,1.604284,0.4171888,-0.008416356,1.539267,NA,NA,NotTracked,NotTracked,
-0.1772461,-0.8291016,0.1992188,-0.01074219,0.8261719,0.534668,-4,-2,-6,-1,-1,-3,1,-1,-3,-5,-11,-7,10,5,-3,0,-32.5,-32.5,-32.5,-26.875,-26.875,-26.875,3.145946,5.505856,3.398888,6.570181,5.598523,8.539017,0.007792173,-0.129787,1.432012,0.1889784,-0.1088548,1.406263,0.1154318,0.4550075,1.530874,-0.02393337,-0.1983169,1.441524,0.1624511,-0.03452343,1.39963,0.1240877,-0.005235693,1.549974,0.1277194,-0.3283399,1.532982,-0.06444848,0.1885663,1.566008,0.04066995,-0.3228855,1.502784,-0.182006,-0.004191191,1.609693,0.4198524,-0.004554086,1.542541,NA,NA,NotTracked,NotTracked,
-0.07373047,-0.9331055,0.2802734,0.07324219,0.8271484,0.5859375,-10,-2,4,-3,4,-1,-5,-3,3,0,2,2,6,5,6,2,-4.1875,-4.1875,-4.1875,-14.1875,-14.1875,-14.1875,3.072573,5.577403,3.276006,6.596711,5.565522,8.659657,-0.008149925,-0.1393978,1.4324,0.2147815,-0.1302919,1.402727,0.1148351,0.4550283,1.529685,-0.01864153,-0.1974516,1.447898,0.2056114,-0.1124729,1.321111,0.1237026,-0.004942252,1.549075,0.1274875,-0.3279367,1.53249,-0.06446514,0.1891672,1.565442,0.04036431,-0.3224732,1.502256,-0.1835882,-0.0009382069,1.613815,0.4232875,-0.0002847021,1.547708,NA,NA,Unknown,NotTracked,
-0.01513672,-1.061035,0.425293,0.05371094,0.7700195,0.7739258,-8,-11,-2,1,9,-1,-7,-8,1,-3,-8,1,5,4,0,-3,9.9375,9.9375,9.9375,-11.6875,-11.6875,-11.6875,3.042605,5.588957,3.173339,6.602018,5.508847,8.757318,-0.02619713,-0.1464249,1.433662,0.2281167,-0.1308303,1.400483,0.1143476,0.455024,1.528937,0.001336635,-0.2026739,1.427636,0.2814019,-0.08855169,1.291429,0.1231319,-0.004607233,1.548338,0.1273426,-0.3275683,1.532128,-0.06452055,0.1894797,1.565181,0.04021138,-0.3221215,1.501812,-0.1844054,0.001638817,1.618138,0.4259375,0.003736462,1.553087,NA,NA,Unknown,Unknown,
0.137207,-0.8525391,0.6142578,-0.07373047,0.7490234,0.8320313,-18,-7,-9,-6,14,0,-7,-12,0,1,4,-15,3,2,-5,-5,24.3125,24.3125,24.3125,-32.625,-32.625,-32.625,3.054714,5.560468,3.087047,6.56391,5.426071,8.806981,-0.04030596,-0.1432842,1.421829,0.2430953,-0.1334523,1.390296,0.1138047,0.4547624,1.528104,0.01609908,-0.1784393,1.416044,0.2999955,-0.09421915,1.286615,0.1227867,-0.00443441,1.547687,0.1271156,-0.3271521,1.531563,-0.06460377,0.190076,1.564744,0.03998142,-0.3217772,1.501256,-0.1840993,0.002445754,1.618866,0.4260724,0.004515387,1.55385,NA,NA,Unknown,Unknown,
-0.001464844,-1.012207,0.828125,-0.269043,0.7724609,0.8701172,-18,-5,39,-1,-19,-1,4,4,0,0,-4,-1,19,4,-2,-4,-7.4375,-7.4375,-7.4375,-18.0625,-18.0625,-18.0625,3.06555,5.481623,3.033149,6.519434,5.329945,8.820273,-0.07531286,-0.1283853,1.377843,0.2748579,-0.1185722,1.345163,0.1129519,0.4541662,1.526994,-0.06471892,-0.2126763,1.4238,0.3253966,-0.08718654,1.30425,0.1225456,-0.004486733,1.547347,0.1269514,-0.3269644,1.531147,-0.06490016,0.1903047,1.564713,0.03979849,-0.321645,1.500885,-0.1815017,2.204553E-05,1.616833,0.4240066,0.003078423,1.553447,NA,NA,Unknown,Unknown,
-0.3198242,-1.069336,0.6704102,-0.5161133,0.965332,0.8818359,-20,-13,-11,-2,-5,-3,-5,-5,1,-1,2,1,2,-6,4,1,15.5625,15.5625,15.5625,-0.9375,-0.9375,-0.9375,3.094203,5.386004,3.02424,6.510617,5.288429,8.807915,-0.0839918,-0.1180616,1.313285,0.2669268,-0.1142025,1.304077,0.112715,0.4538557,1.526654,-0.03547387,-0.1333712,1.300182,0.2937171,-0.08597512,1.237111,0.1224612,-0.004573367,1.547327,0.126916,-0.3270079,1.531071,-0.06638517,0.1873162,1.567159,0.03976474,-0.3216949,1.500878,-0.1774345,-0.00961929,1.609896,0.4197387,-0.001002859,1.548907,NA,NA,Unknown,Unknown,
-0.6767578,-1.121094,0.5683594,-0.8383789,1.001465,0.565918,27,6,-11,-3,-3,4,1,-5,-5,0,-2,-5,-3,-4,-6,-4,4.8125,4.8125,4.8125,-6.875,-6.875,-6.875,3.117208,5.302221,3.055907,6.504975,5.249658,8.740085,-0.06772216,-0.1066994,1.304502,0.2498575,-0.09628914,1.277862,0.1124508,0.4533807,1.526549,-0.1062027,-0.06984173,1.254625,0.272996,-0.07472802,1.232813,0.1224414,-0.004727546,1.547282,0.1269072,-0.3270455,1.531014,-0.06651324,0.1871817,1.566703,0.03974995,-0.3217277,1.500859,-0.1703134,-0.01837562,1.592628,0.3895086,-0.03087988,1.47648,NA,NA,Unknown,Unknown,
-0.7700195,-0.921875,0.3803711,-0.7568359,0.7729492,0.3994141,-12,-25,0,-1,0,-1,-4,39,12,16,6,1,7,1,1,-1,1.1875,1.1875,1.1875,0.4375,0.4375,0.4375,3.134915,5.232372,3.133282,6.48796,5.208466,8.631654,-0.0529838,-0.09754866,1.311665,0.2257537,-0.08096261,1.273498,0.1123156,0.4530273,1.526511,-0.08777282,-0.07370468,1.303333,0.2503797,-0.04705376,1.2126,0.122372,-0.004818927,1.547329,0.126859,-0.3270839,1.530979,-0.06660125,0.186954,1.566303,0.039694,-0.3217599,1.500839,-0.1638705,-0.02416833,1.580173,0.4396949,-0.02228839,1.486191,NA,NA,Unknown,Unknown,
-0.8027344,-0.8891602,0.2084961,-0.706543,0.7802734,0.3354492,-1,27,-6,-4,0,-2,-4,-12,-10,-7,-1,-1,2,-1,1,3,-18.3125,-18.3125,-18.3125,7.0625,7.0625,7.0625,3.129707,5.175185,3.233921,6.496262,5.234883,8.519338,-0.03464592,-0.08466399,1.31194,0.2032586,-0.07101795,1.288565,0.1121751,0.4528432,1.526484,-0.05948826,-0.04646581,1.2464,0.2254883,-0.05661024,1.236387,0.1222944,-0.004879034,1.547389,0.1268145,-0.3270989,1.531003,-0.06675494,0.1865916,1.565759,0.03965018,-0.3217765,1.500879,-0.1951207,-0.03692007,1.550889,0.441297,-0.02576022,1.482861,NA,NA,Unknown,Unknown,
-0.7124023,-0.9018555,0.121582,-0.5317383,0.7304688,0.3579102,13,9,2,2,2,1,1,-3,0,-7,-1,-1,-2,-2,-3,-3,-0.75,-0.75,-0.75,5.6875,5.6875,5.6875,3.113907,5.185609,3.320363,6.501422,5.274474,8.434625,-0.008871931,-0.08415374,1.344365,0.1912939,-0.06878458,1.31113,0.1121099,0.4527432,1.526411,-0.04326025,-0.0517951,1.279,0.2329969,-0.04734247,1.276222,0.1222667,-0.004899164,1.547401,0.1268,-0.3270741,1.530985,-0.06669813,0.1866299,1.564745,0.03965303,-0.3217624,1.500872,-0.1978036,-0.03766626,1.551434,0.389588,-0.02168797,1.509281,NA,NA,Unknown,Open,
-0.550293,-0.8588867,0.1259766,-0.3457031,0.8056641,0.362793,-2,5,3,2,2,0,-2,-2,2,0,-6,1,1,2,0,-3,20.125,20.125,20.125,-5.625,-5.625,-5.625,3.125674,5.220963,3.385623,6.503597,5.325231,8.391667,0.01490276,-0.08694112,1.367511,0.1822104,-0.06778248,1.338308,0.1120655,0.4526813,1.526239,-0.04188482,-0.05707366,1.315552,0.2307612,-0.03942408,1.290936,0.1222198,-0.004876259,1.547366,0.1267891,-0.3269971,1.530956,-0.06671496,0.1868123,1.563437,0.0396644,-0.3217001,1.500837,-0.203311,-0.03747443,1.565361,0.3897379,-0.02142623,1.509382,NA,NA,NotTracked,Open,
-0.2895508,-0.8393555,0.1762695,-0.1733398,0.8364258,0.4707031,7,1,-7,0,-2,0,3,5,-1,2,2,-7,-2,0,-3,-2,16.625,16.625,16.625,-11.6875,-11.6875,-11.6875,3.135698,5.270668,3.410035,6.506833,5.387952,8.402584,0.02262123,-0.08971275,1.383487,0.1802766,-0.06988432,1.358941,0.1119482,0.4525951,1.525599,-0.03834813,-0.05889337,1.324615,0.2280559,-0.03831163,1.300594,0.1221016,-0.004806433,1.547104,0.1267237,-0.3268725,1.530779,-0.06711432,0.1857449,1.564265,0.03966626,-0.3216311,1.500725,-0.2064953,-0.03699499,1.565855,0.3905172,-0.02092248,1.509547,NA,NA,NotTracked,NotTracked,
-0.2041016,-0.9472656,0.2084961,-0.08300781,0.8842773,0.5424805,7,-2,37,9,-4,-6,0,2,-4,0,-7,-21,6,5,-2,-3,9.5,9.5,9.5,-14.0625,-14.0625,-14.0625,3.133382,5.301358,3.404621,6.507627,5.418673,8.425714,0.02871465,-0.09483837,1.396394,0.1811248,-0.07266682,1.37978,0.1118296,0.4526592,1.524496,-0.0267711,-0.04907218,1.285667,0.2034077,-0.02998907,1.272,0.1219235,-0.004746179,1.546278,0.1264998,-0.3266806,1.530228,-0.06675426,0.1864122,1.561952,0.03949224,-0.3213926,1.500131,-0.214899,-0.02686356,1.593492,0.3929414,-0.01932208,1.511589,NA,NA,NotTracked,NotTracked,
-0.02929688,-0.9423828,0.2773438,0.06298828,0.8510742,0.5473633,21,4,3,-3,1,3,1,-9,-3,3,11,20,16,3,-4,-3,9.25,9.25,9.25,-10.3125,-10.3125,-10.3125,3.12578,5.366797,3.367913,6.521217,5.48969,8.500025,0.02451554,-0.1047743,1.408931,0.1715599,-0.08386099,1.372914,0.1116024,0.4526421,1.522775,-0.03754883,-0.06000952,1.294667,0.2064524,-0.0391929,1.274871,0.1215463,-0.004821745,1.545149,0.1263384,-0.3266204,1.529472,-0.06606591,0.1874859,1.559236,0.03932098,-0.3213159,1.49932,-0.216874,-0.01995358,1.600462,0.3971834,-0.01673898,1.516804,NA,NA,NotTracked,NotTracked,
-0.02929688,-0.9423828,0.2773438,0.05615234,0.8896484,0.6416016,-13,16,11,0,2,-2,-3,0,0,-1,-13,-22,-1,0,-1,-2,9.25,9.25,9.25,-11.9375,-11.9375,-11.9375,3.12578,5.366797,3.367913,6.536182,5.521266,8.586576,0.01296054,-0.116026,1.415664,0.1734682,-0.09378285,1.38381,0.111376,0.4526944,1.520574,-0.05482772,-0.07606301,1.313429,0.225748,-0.05499166,1.290545,0.1209918,-0.004861034,1.543701,0.1261109,-0.3265834,1.528333,-0.06571098,0.1884321,1.55759,0.03898626,-0.3211994,1.4978,-0.1690163,-0.01619073,1.588699,0.401672,-0.01365216,1.523055,NA,NA,NotTracked,NotTracked,
0.06152344,-1.027344,0.3349609,0.1113281,0.7226563,0.6298828,-11,13,41,6,0,-3,-5,-3,-3,-5,-9,-3,2,-2,-2,-3,-8.4375,-8.4375,-8.4375,-4.125,-4.125,-4.125,3.086909,5.456845,3.253181,6.5494,5.517555,8.664322,-0.0001508412,-0.1452916,1.410372,0.2129983,-0.1015643,1.394165,0.1110295,0.4524647,1.518245,-0.06893872,-0.08811985,1.31025,0.2377757,-0.05479049,1.319842,0.1208298,-0.005021244,1.541852,0.1260123,-0.326647,1.526719,-0.06556597,0.1887594,1.557042,0.03879306,-0.3212857,1.496256,-0.1705849,-0.01422308,1.590997,0.4083642,-0.008349257,1.533507,NA,NA,NotTracked,Unknown,
0.06152344,-1.027344,0.3349609,0.1113281,0.7226563,0.6298828,-11,13,41,6,0,-3,-5,-3,-3,-5,-9,-3,2,-2,-2,-3,-8.4375,-8.4375,-8.4375,-4.125,-4.125,-4.125,3.086909,5.456845,3.253181,6.5494,5.517555,8.664322,-0.007563973,-0.1418782,1.41603,0.2042016,-0.1222838,1.389863,0.1106624,0.4523579,1.516269,-0.09111103,-0.09714218,1.303667,0.2342353,-0.08921976,1.2768,0.1205358,-0.005113631,1.540474,0.1257343,-0.3266145,1.525612,-0.06553475,0.1891892,1.55656,0.0384266,-0.3211925,1.495028,-0.1760948,-0.007657241,1.600667,0.4119264,-0.005071274,1.538722,NA,NA,Unknown,Unknown,
0.04003906,-1.083496,0.3486328,0.02636719,0.7875977,0.8325195,3,-4,-2,-2,0,2,0,-3,4,6,3,-1,1,-3,4,2,-0.6875,-0.6875,-0.6875,4.4375,4.4375,4.4375,3.071782,5.472783,3.210064,6.552036,5.471404,8.712005,-0.0228987,-0.1444338,1.412649,0.2172212,-0.1262262,1.386133,0.1103751,0.452214,1.514669,-0.1038895,-0.09808414,1.301,0.2747564,-0.08777348,1.282091,0.120333,-0.005137984,1.539322,0.1256119,-0.3265086,1.524709,-0.06575175,0.1897672,1.555932,0.03827871,-0.3210956,1.494184,-0.1775895,-0.005094574,1.603636,0.4138337,-0.002659732,1.542413,NA,NA,Unknown,Unknown,
0.1196289,-1.051758,0.6489258,-0.1152344,0.7167969,0.7539063,-8,-4,-2,3,0,2,1,-3,0,2,2,2,0,2,2,1,20.25,20.25,20.25,-7.125,-7.125,-7.125,3.092357,5.468339,3.110659,6.53397,5.404497,8.720194,-0.03414131,-0.1418563,1.401301,0.2294312,-0.1290959,1.377847,0.1098551,0.4515518,1.512264,-0.1133077,-0.1005409,1.287,0.2850908,-0.09042486,1.279438,0.1202818,-0.005265124,1.538055,0.1255148,-0.3264943,1.523458,-0.06574376,0.1900291,1.555527,0.03809313,-0.3210753,1.492836,-0.1774788,-0.004763311,1.603607,0.4139411,-0.001836919,1.543587,NA,NA,Unknown,Unknown,
-0.04052734,-0.9003906,0.7001953,-0.1689453,0.765625,0.7885742,-9,-14,-8,-1,-3,-2,-1,6,2,3,0,-6,2,2,-2,-1,10,10,10,3.75,3.75,3.75,3.119885,5.41296,3.089034,6.525986,5.361998,8.710391,-0.04793913,-0.1355937,1.378373,0.241636,-0.1243042,1.361813,0.1096123,0.4511059,1.510972,-0.123147,-0.1081226,1.33675,0.2865075,-0.09240513,1.265778,0.1200849,-0.00560468,1.536986,0.1254169,-0.3267349,1.5223,-0.06579369,0.1901051,1.554874,0.03795775,-0.3212571,1.49162,-0.1773393,-0.004869686,1.602767,0.4136501,-0.00214002,1.543406,NA,NA,Unknown,Unknown,
-0.2895508,-1.006348,0.6030273,-0.6049805,0.9428711,0.7553711,-7,-20,-8,0,-2,1,-2,-7,6,11,1,1,-3,0,1,2,-30.375,-30.375,-30.375,20.5625,20.5625,20.5625,3.116722,5.330041,3.104514,6.527172,5.304386,8.663706,-0.04789002,-0.1281112,1.355919,0.245791,-0.1099924,1.351477,0.1095162,0.4506746,1.50949,-0.09908495,-0.1016286,1.302931,0.2948911,-0.07918128,1.293788,0.1201158,-0.005724732,1.53654,0.1254757,-0.32676,1.521683,-0.06597778,0.1899168,1.554482,0.037987,-0.3212823,1.491085,-0.1744347,-0.009731524,1.593613,0.4125362,-0.003389351,1.54118,NA,NA,Unknown,Unknown,
-0.2895508,-1.006348,0.6030273,-0.7841797,0.859375,0.515625,3,18,-25,-10,-5,-3,-2,5,-2,2,-3,0,-3,-3,-4,-2,-30.375,-30.375,-30.375,1.9375,1.9375,1.9375,3.116722,5.330041,3.104514,6.524045,5.298359,8.584474,-0.04599372,-0.1171356,1.347007,0.2144449,-0.112863,1.268411,0.1094872,0.450231,1.508312,-0.08925146,-0.08574703,1.28475,0.2543531,-0.09613661,1.226429,0.120057,-0.005930564,1.536168,0.1253824,-0.3268942,1.521232,-0.06624068,0.1898333,1.553575,0.03783813,-0.3214205,1.490586,-0.171884,-0.01366678,1.584435,0.3773867,-0.03959386,1.477525,NA,NA,Unknown,Unknown,
-0.6464844,-1.049316,0.4331055,-0.7148438,0.7363281,0.3911133,0,5,-3,2,-2,-1,-2,-7,-7,-5,-4,-7,-6,-2,-1,-1,-43.1875,-43.1875,-43.1875,5.8125,5.8125,5.8125,3.087425,5.278211,3.160771,6.517732,5.316693,8.490067,-0.03320416,-0.1101388,1.334363,0.2100067,-0.09579445,1.267655,0.1094936,0.4497502,1.507432,-0.08023417,-0.08468819,1.285,0.2364131,-0.08729878,1.227933,0.120013,-0.006220565,1.535807,0.125263,-0.3270876,1.5208,-0.06649741,0.1894847,1.552342,0.03770975,-0.3215823,1.490143,-0.1663031,-0.01987949,1.569976,0.3689231,-0.0402357,1.471051,NA,NA,Unknown,Unknown,
-0.6464844,-1.049316,0.4331055,-0.496582,0.6572266,0.3662109,4,11,1,3,-2,-2,-3,-1,5,2,-2,-1,0,-2,0,-2,-43.1875,-43.1875,-43.1875,4,4,4,3.087425,5.278211,3.160771,6.512537,5.354271,8.408102,0.01937257,-0.1056512,1.354795,0.1877258,-0.08361673,1.343298,0.1093387,0.4493813,1.505067,-0.03735437,-0.0804943,1.274783,0.2435821,-0.05129223,1.290839,0.1199091,-0.006573352,1.534823,0.1251416,-0.3272611,1.520181,-0.06706558,0.1886937,1.549427,0.03762655,-0.3217557,1.489436,-0.1653498,-0.02150882,1.566488,0.394144,-0.01791675,1.504027,NA,NA,NotTracked,Unknown,
-0.5917969,-0.8261719,0.1962891,-0.2504883,0.7036133,0.4204102,1,-3,-2,-1,-2,-2,0,3,-2,4,11,15,5,1,-5,-1,0.4375,0.4375,0.4375,0.375,0.375,0.375,3.054007,5.288092,3.358154,6.510768,5.394229,8.366158,0.01479955,-0.1035801,1.375311,0.1811577,-0.08335293,1.354343,0.1091923,0.4492626,1.502702,-0.03500399,-0.0601434,1.279143,0.2052093,-0.04389425,1.261706,0.1199391,-0.006678413,1.533553,0.1252028,-0.3273292,1.519313,-0.06743068,0.1883503,1.547241,0.03772607,-0.321849,1.48843,-0.1657137,-0.0215417,1.566022,0.3944587,-0.01779379,1.503874,NA,NA,NotTracked,NotTracked,
-0.4692383,-0.7851563,0.1464844,0.1181641,0.8017578,0.5361328,-1,6,-1,-1,-2,-4,-2,-4,1,3,7,6,-7,-6,-1,-4,7,7,7,-23.5,-23.5,-23.5,3.058016,5.307443,3.386024,6.496651,5.424586,8.370898,0.05670602,-0.1127793,1.362941,0.1807941,-0.08469978,1.363448,0.1090108,0.4498799,1.500018,0.01287505,-0.09230252,1.279,0.195209,-0.04592809,1.258,0.1199199,-0.006571977,1.532148,0.1251989,-0.327205,1.518768,-0.06763601,0.1889041,1.545128,0.03774239,-0.3217247,1.487903,-0.166211,-0.02051136,1.565742,0.3963796,-0.01675533,1.504941,NA,NA,NotTracked,NotTracked,
-0.2055664,-0.7832031,0.140625,0.1518555,0.8198242,0.5634766,0,-1,-1,0,-2,2,3,2,0,-3,2,4,0,1,2,3,14.3125,14.3125,14.3125,-15.5625,-15.5625,-15.5625,3.066125,5.358105,3.408462,6.493969,5.443931,8.388013,0.01536963,-0.1185644,1.395355,0.1698357,-0.09376173,1.35952,0.1090129,0.450454,1.495969,-0.03606815,-0.07230151,1.283,0.1994395,-0.0564423,1.263375,0.1197767,-0.006445576,1.529301,0.1252147,-0.32705,1.517575,-0.06773584,0.1897706,1.542184,0.03774961,-0.3215512,1.486582,-0.1659375,-0.01927742,1.565592,0.4606197,-0.01530143,1.500832,NA,NA,NotTracked,NotTracked,
0.1289063,-1.00293,0.2431641,0.01367188,0.8896484,0.6347656,3,33,21,5,-5,0,1,-5,-1,0,1,2,6,1,1,-2,18.25,18.25,18.25,-23.25,-23.25,-23.25,3.068618,5.404595,3.383642,6.485004,5.461431,8.430238,0.03335254,-0.1223718,1.375652,0.1754532,-0.1074576,1.365703,0.1089778,0.450623,1.490834,-0.04054115,-0.08359508,1.277667,0.2094679,-0.07237604,1.265182,0.1195813,-0.006672808,1.526046,0.1251607,-0.3272336,1.515964,-0.06768527,0.1901306,1.538856,0.03768181,-0.3216683,1.484887,-0.1655703,-0.0185314,1.564824,0.4023375,-0.01195078,1.510849,NA,NA,NotTracked,NotTracked,
0.1289063,-1.00293,0.2431641,-0.140625,0.8984375,0.6337891,-4,-5,-6,-4,-23,-7,-3,-1,-4,-2,1,-32,-18,-5,-1,0,18.25,18.25,18.25,-18.1875,-18.1875,-18.1875,3.068618,5.404595,3.383642,6.480553,5.453149,8.479811,0.01805169,-0.1373136,1.366687,0.1792637,-0.1180083,1.365848,0.1090392,0.4505959,1.487,-0.04976576,-0.09625368,1.276,0.2226985,-0.08536616,1.26675,0.1195768,-0.006745038,1.523867,0.1252471,-0.3272625,1.514893,-0.06753208,0.190795,1.536138,0.03776861,-0.3217179,1.483763,-0.1647335,-0.01768215,1.564419,0.4019835,-0.01160199,1.511654,NA,NA,NotTracked,NotTracked,
-0.1274414,-0.7783203,0.3120117,-0.2924805,0.8979492,0.6982422,2,13,-2,2,9,-2,0,4,-5,5,4,4,4,-5,-12,-8,77.3125,77.3125,77.3125,24.625,24.625,24.625,3.182416,5.431219,3.303407,6.498528,5.422507,8.511925,0.02076438,-0.1357871,1.378489,0.1868893,-0.12344,1.357802,0.1091053,0.4503337,1.48254,-0.05639482,-0.09916079,1.26875,0.2280724,-0.08777091,1.258375,0.1194093,-0.006931454,1.52174,0.1253384,-0.3274659,1.513489,-0.06731052,0.1910895,1.5329,0.03781514,-0.3218963,1.482329,-0.1629825,-0.01777999,1.562643,0.4009929,-0.01186513,1.512224,NA,NA,NotTracked,NotTracked,
-0.2729492,-0.9428711,0.5131836,-0.3408203,0.9228516,0.6347656,6,8,2,-1,3,1,0,-2,6,18,9,14,-5,1,22,8,5.375,5.375,5.375,31.3125,31.3125,31.3125,3.182603,5.421192,3.283117,6.519385,5.402192,8.522428,0.01554362,-0.1425405,1.373132,0.1934877,-0.1186832,1.351803,0.1093411,0.4494208,1.478029,-0.05741008,-0.09441289,1.2608,0.2412609,-0.07600014,1.273806,0.1197005,-0.007565394,1.518409,0.1255082,-0.3277522,1.511327,-0.0671392,0.1910198,1.529328,0.03795327,-0.3221678,1.480147,-0.1616589,-0.01802302,1.560609,0.399305,-0.01273575,1.511787,NA,NA,NotTracked,NotTracked,
-0.3037109,-1.144531,0.449707,-0.2758789,0.734375,0.5429688,2,7,0,0,-7,-4,-4,0,-83,-77,-35,-86,-86,32,9,-15,-81.4375,-81.4375,-81.4375,10.0625,10.0625,10.0625,3.097981,5.35614,3.252004,6.537664,5.3667,8.527512,0.01793169,-0.137715,1.363329,0.1918467,-0.1147125,1.340551,0.1097256,0.4486845,1.473878,-0.05719109,-0.08591056,1.260333,0.2288372,-0.0693011,1.249909,0.1200024,-0.007993669,1.515737,0.1257837,-0.3281282,1.509552,-0.0668171,0.1908691,1.526987,0.03814643,-0.3224862,1.478382,-0.1582724,-0.02038235,1.554923,0.3966395,-0.01469734,1.509565,NA,NA,NotTracked,NotTracked,
-0.3037109,-1.144531,0.449707,-0.2368164,0.5517578,0.5078125,-3,-9,-3,-7,-4,-3,-2,-2,59,52,27,123,127,36,-55,3,-81.4375,-81.4375,-81.4375,41,41,41,3.097981,5.35614,3.252004,6.561657,5.348599,8.524431,0.01677198,-0.1243298,1.348125,0.186546,-0.1051199,1.327107,0.1103714,0.4487413,1.470654,-0.05413381,-0.07455488,1.242667,0.1438963,-0.1450022,1.348,0.1207953,-0.008011526,1.512761,0.1266989,-0.3282672,1.506549,-0.0661189,0.1906597,1.52338,0.0388806,-0.3226752,1.475629,-0.1577229,-0.02012357,1.553098,0.3926295,-0.01784409,1.500504,NA,NA,NotTracked,NotTracked,
-0.3222656,-0.9174805,0.2719727,-0.2788086,0.762207,0.5019531,1,-2,-2,-4,-5,-1,2,-7,-36,-31,-43,-76,-95,-37,-36,-31,-4.5625,-4.5625,-4.5625,71.25,71.25,71.25,3.049629,5.286462,3.255357,6.632874,5.347995,8.534309,0.005425616,-0.1126673,1.355109,0.1742519,-0.09548972,1.306906,0.1113226,0.4491695,1.467477,-0.06201346,-0.07657922,1.298889,0.1404051,-0.1267597,1.342634,0.1218672,-0.007998931,1.509201,0.1277918,-0.3284726,1.503397,-0.06535807,0.1903495,1.519057,0.03994255,-0.3230069,1.472591,-0.1558431,-0.02160435,1.545984,0.3906049,-0.01931082,1.494475,NA,NA,NotTracked,NotTracked,
-0.2207031,-0.7138672,0.253418,-0.1582031,0.684082,0.2807617,5,-17,-2,-62,-25,26,52,3,3,7,6,-3,-9,-12,-14,5,-43,-43,-43,44.4375,44.4375,44.4375,3.01755,5.269259,3.295959,6.703495,5.364491,8.570031,-0.004832395,-0.1076559,1.308267,0.1771175,-0.08979433,1.307133,0.1124461,0.4496871,1.464569,-0.04418729,-0.05077498,1.2368,0.1459859,-0.1237708,1.339704,0.1231302,-0.007983554,1.505285,0.1290021,-0.3287255,1.499581,-0.06410032,0.1898358,1.514855,0.04116277,-0.3232664,1.46859,-0.1550602,-0.02191584,1.541858,0.3903604,-0.0203715,1.489037,NA,NA,NotTracked,NotTracked,
-0.2207031,-0.609375,0.2861328,-0.04833984,0.5029297,0.1918945,-123,17,20,54,25,14,18,5,-11,-16,-18,-25,-16,-10,-1,-3,-66.25,-66.25,-66.25,20.5625,20.5625,20.5625,2.987026,5.274982,3.311884,6.725273,5.387904,8.603696,-0.01269654,-0.105224,1.298557,0.178802,-0.08962157,1.310802,0.1140561,0.4506554,1.461833,-0.05679281,-0.0747666,1.2776,0.1364999,-0.1124486,1.333541,0.1244538,-0.007466333,1.501304,0.1304843,-0.3287584,1.495054,-0.06311677,0.1897829,1.5109,0.04241386,-0.323252,1.464583,-0.1538035,-0.022557,1.535913,0.3901469,-0.02068411,1.484951,NA,NA,NotTracked,NotTracked,
-0.1845703,-0.4545898,0.04589844,-0.1118164,0.4204102,0.3261719,2,-27,-9,-19,-18,10,-15,-5,5,0,5,20,26,10,6,1,-86.0625,-86.0625,-86.0625,35.5,35.5,35.5,2.939117,5.297945,3.328619,6.773526,5.475118,8.682882,0.01600918,-0.134066,1.342603,0.195236,-0.1078588,1.306728,0.1197329,0.4518027,1.453226,-0.04574608,-0.1783816,1.315,0.1733292,-0.14604,1.330704,0.1280687,-0.007400681,1.490644,0.1341173,-0.3292511,1.485153,-0.06131004,0.1900812,1.506069,0.04637806,-0.3235039,1.453976,-0.1471779,-0.02550951,1.525206,0.3935401,-0.02219047,1.481359,NA,NA,NotTracked,NotTracked,
-0.2797852,-0.597168,0.05175781,-0.230957,0.6264648,0.1860352,89,15,9,28,20,-3,4,-1,-2,-2,-22,2,11,1,6,0,-134.375,-134.375,-134.375,58.625,58.625,58.625,2.590944,5.47603,3.210564,6.87572,5.619258,8.789085,-0.01258682,-0.1436054,1.324423,0.2148306,-0.1348127,1.304705,0.1233649,0.4512714,1.447514,0.04252664,-0.08106673,1.359333,0.2038125,-0.1898555,1.333563,0.1305933,-0.008471438,1.484155,0.1368906,-0.3308269,1.478552,-0.05550683,0.1892222,1.492883,0.04892134,-0.3247736,1.447141,-0.1432641,-0.0232644,1.523311,0.3942113,-0.0243684,1.478473,NA,NA,NotTracked,Unknown,
-0.4663086,-0.7861328,0.005859375,-0.5830078,0.6357422,0.2583008,1,-4,4,-2,-2,6,7,-4,6,13,13,11,11,4,24,7,-158.5,-158.5,-158.5,30.6875,30.6875,30.6875,2.381839,5.630795,3.125407,6.970622,5.825325,8.912558,-0.02747265,-0.177255,1.287002,0.2207886,-0.1681315,1.293594,0.1280527,0.4495488,1.440366,-0.03366821,-0.1483762,1.229056,0.2013147,-0.2058072,1.329275,0.1342492,-0.01054221,1.477619,0.1405001,-0.3336248,1.470686,-0.05215044,0.1865912,1.485945,0.05193001,-0.3269037,1.439768,-0.1343662,-0.02755061,1.51887,0.3927079,-0.02989519,1.473318,NA,NA,Unknown,Unknown,
-0.5283203,-0.956543,-0.006347656,-0.753418,0.5629883,0.09960938,-10,4,-5,-9,-3,-4,-8,-5,-4,-3,-23,-11,-16,-8,-6,-5,-104.0625,-104.0625,-104.0625,15.5,15.5,15.5,2.305958,5.727942,3.079555,7.060007,6.060277,9.036811,-0.02856758,-0.2412163,1.312215,0.2449042,-0.209479,1.294875,0.132723,0.4467216,1.432284,-0.06404323,-0.201334,1.226261,0.2216558,-0.2585938,1.330609,0.1390412,-0.01393925,1.469089,0.1447425,-0.33695,1.461934,-0.04809508,0.1827696,1.479241,0.05546506,-0.3299763,1.430449,-0.1260368,-0.03228708,1.51493,0.3907872,-0.03628883,1.469469,NA,NA,Unknown,Lasso,
-0.7172852,-0.8164063,0.03076172,-1.225098,0.7089844,0.1269531,-5,7,-4,-5,-2,-5,-3,-7,-3,-3,-3,4,7,1,0,-2,-2.3125,-2.3125,-2.3125,15.6875,15.6875,15.6875,2.230817,5.939922,2.978695,7.191966,6.30549,9.204689,-0.03077305,-0.2888743,1.324492,0.2567956,-0.2742289,1.300503,0.1382329,0.4419027,1.423781,-0.06347699,-0.2563953,1.227525,0.2502145,-0.3410141,1.318701,0.142597,-0.01754661,1.462746,0.1474329,-0.3397578,1.45595,-0.0438496,0.1777087,1.472128,0.05706191,-0.3319285,1.425007,-0.1127375,-0.04002837,1.509471,0.388877,-0.04432654,1.464339,NA,NA,Unknown,Lasso,
-0.8842773,-0.7294922,-0.08837891,-1.310059,0.777832,-0.04638672,-3,1,0,-2,-2,-4,-3,-4,3,6,16,1,1,0,1,1,116.25,116.25,116.25,-18.4375,-18.4375,-18.4375,2.26781,6.203661,2.885547,7.37002,6.555233,9.438384,-0.06995422,-0.3007393,1.301384,0.293245,-0.3008039,1.259392,0.1443165,0.4363844,1.412235,-0.03719045,-0.2978426,1.254,0.2582462,-0.3285557,1.271273,0.1462474,-0.02107708,1.457,0.1500314,-0.3422746,1.45259,-0.03996864,0.1737319,1.464947,0.05854641,-0.3333909,1.422069,-0.09993193,-0.05622607,1.499119,0.3836199,-0.06353334,1.457323,NA,NA,Unknown,Unknown,
-1.038086,-0.8208008,-0.1533203,-1.42334,0.668457,-0.1875,-2,4,-1,-2,0,-3,4,0,-22,12,9,4,1,0,0,0,66.5,66.5,66.5,-61.6875,-61.6875,-61.6875,2.252504,6.452007,2.726062,7.466587,6.67178,9.591183,-0.07811972,-0.3332944,1.327279,0.3158339,-0.3403192,1.277259,0.1492471,0.4328818,1.402388,-0.04624801,-0.3067508,1.348833,0.2775699,-0.3682121,1.291,0.1512231,-0.02399833,1.451891,0.1544256,-0.3447316,1.449966,-0.03458528,0.1711515,1.457234,0.06215568,-0.3350382,1.419354,-0.09385432,-0.06491602,1.495682,0.3850266,-0.07144652,1.455781,NA,NA,NotTracked,Unknown,
-1.185547,-0.6586914,-0.1523438,-1.173828,0.4711914,-0.1728516,3,-3,-2,-4,-3,4,-1,-6,-13,-10,7,0,0,0,1,-2,61.625,61.625,61.625,-70.4375,-70.4375,-70.4375,2.074796,6.682754,2.453203,7.673394,6.848686,9.917892,-0.083769,-0.3672291,1.351989,0.3356314,-0.3854011,1.294673,0.1551159,0.4296437,1.388608,-0.04297131,-0.3678325,1.3332,0.3025547,-0.4315993,1.30775,0.157365,-0.02655982,1.445104,0.1633363,-0.3477352,1.446442,-0.03012631,0.1679557,1.447558,0.0708854,-0.3374181,1.415192,-0.08508658,-0.08167651,1.489575,0.3854442,-0.08275829,1.453278,NA,NA,NotTracked,Unknown,
-1.318848,-0.5253906,-0.1958008,-1.386719,0.5136719,-0.1264648,6,-3,0,1,5,-1,4,-3,5,-1,5,1,-2,-2,-2,1,127,127,127,-0.5625,-0.5625,-0.5625,1.870336,6.87137,2.071918,8.045078,6.985256,0.3366136,-0.0891611,-0.3925186,1.374992,0.348983,-0.4162821,1.312751,0.1595552,0.4271531,1.374346,-0.04589125,-0.3693312,1.367333,0.2944013,-0.4285995,1.301571,0.1644295,-0.02902718,1.436622,0.1731877,-0.3500637,1.441848,-0.02641944,0.164839,1.43644,0.08081673,-0.3397787,1.409723,-0.08183347,-0.08651318,1.48688,0.3860344,-0.08778354,1.450354,NA,NA,NotTracked,Unknown,
-1.410156,-0.4838867,-0.1918945,-0.9677734,0.6508789,-0.09082031,7,8,-1,2,0,7,0,-1,5,2,5,1,0,0,0,0,76.75,76.75,76.75,43.375,43.375,43.375,1.684661,6.945798,1.826684,8.415076,7.064671,0.6808412,-0.09153855,-0.4041921,1.39804,0.3646441,-0.4247618,1.326999,0.1632815,0.4238384,1.355295,-0.05997939,-0.4127083,1.364,0.3051401,-0.4147829,1.307871,0.1695388,-0.03094724,1.427603,0.1782301,-0.3510229,1.438338,-0.022676,0.1635392,1.42226,0.08567157,-0.3405695,1.405877,-0.07951917,-0.09068601,1.484327,0.3864823,-0.09419744,1.446682,NA,NA,NotTracked,NotTracked,
-1.251465,-0.6616211,-0.2119141,-0.8955078,0.5957031,-0.09228516,0,0,0,0,1,4,2,0,2,1,-2,0,-1,-1,-2,0,55.1875,55.1875,55.1875,36.375,36.375,36.375,1.252587,7.053804,1.314049,8.588141,7.082507,0.8422082,-0.09400875,-0.4128701,1.417179,0.3817779,-0.4351104,1.335297,0.1664432,0.4213396,1.33448,-0.06543288,-0.442491,1.3786,0.3208744,-0.4153038,1.316613,0.1731429,-0.03175345,1.417738,0.1817876,-0.3513591,1.434694,-0.0202745,0.162966,1.406832,0.08915302,-0.340698,1.402222,-0.078247,-0.09215915,1.481758,0.3862361,-0.09801873,1.442356,NA,NA,NotTracked,NotTracked,
-1.015137,-0.3530273,-0.234375,-0.8232422,0.4936523,-0.02832031,-7,-2,-1,0,0,4,4,-1,14,4,1,0,0,0,1,7,115.25,115.25,115.25,26.4375,26.4375,26.4375,0.9306427,7.115667,0.8586808,8.906642,7.103466,1.147639,-0.09451588,-0.4142222,1.433248,0.3967819,-0.4362803,1.346185,0.168185,0.418668,1.315203,-0.0655053,-0.432623,1.401,0.3259251,-0.4148732,1.31875,0.1747125,-0.032698,1.406518,0.1833482,-0.3515114,1.430532,-0.01820338,0.1630438,1.390137,0.09040143,-0.3406747,1.398382,-0.0775193,-0.09369602,1.478304,0.387307,-0.1020206,1.437642,NA,NA,NotTracked,NotTracked,
-0.9418945,-0.2280273,-0.1987305,-0.7895508,0.46875,-0.04492188,-1,-2,-1,-1,2,-1,0,-2,-4,0,-3,-2,-1,-1,0,-2,82.875,82.875,82.875,26.25,26.25,26.25,0.7894908,7.135125,0.6652892,9.148379,7.106571,1.373054,-0.09603944,-0.4118589,1.443742,0.4067842,-0.4345126,1.352157,0.1694953,0.4155306,1.290265,-0.06594321,-0.4272293,1.412572,0.348976,-0.4442627,1.293067,0.175143,-0.03364286,1.393851,0.1839511,-0.3514327,1.424797,-0.01705479,0.1638091,1.372467,0.09053782,-0.3404298,1.392692,-0.07719722,-0.09410626,1.472611,0.3892479,-0.1050857,1.432504,NA,NA,NotTracked,NotTracked,
-0.8256836,-0.3969727,-0.0859375,-0.8051758,0.4321289,-0.07373047,0,2,-1,1,-1,0,1,0,-15,-8,-5,1,-1,-2,-2,-6,-75.5625,-75.5625,-75.5625,7.625,7.625,7.625,0.4033614,7.170839,0.3115725,9.2941,7.100866,1.516157,-0.09843291,-0.4115656,1.448346,0.4241166,-0.4347311,1.359567,0.1686911,0.4080349,1.240596,-0.06640943,-0.3948776,1.425924,0.3489818,-0.4351935,1.302556,0.1726104,-0.03756345,1.361479,0.1804157,-0.352858,1.405805,-0.01611199,0.1611709,1.333041,0.08581916,-0.3411355,1.373955,-0.07960045,-0.09536233,1.448365,0.3971838,-0.1053398,1.409012,NA,NA,NotTracked,NotTracked,
-0.8295898,-0.512207,-0.046875,-0.84375,0.3813477,-0.1245117,2,-3,0,-1,-1,0,-1,-2,0,-4,-3,-1,-1,-2,0,3,-95.5625,-95.5625,-95.5625,-6.3125,-6.3125,-6.3125,0.2119911,7.186574,0.2165434,9.351816,7.092003,1.585479,-0.1013791,-0.4122467,1.441145,0.4235792,-0.4358279,1.356007,0.1662912,0.4019654,1.216422,-0.06987426,-0.4037254,1.414225,0.3511657,-0.4418746,1.299519,0.1697442,-0.04154184,1.342471,0.1775785,-0.3556341,1.391331,-0.01856198,0.1582084,1.309456,0.08293217,-0.3437465,1.360556,-0.0827878,-0.09738263,1.430147,0.3989144,-0.1035273,1.394185,NA,NA,NotTracked,NotTracked,
-0.8447266,-0.5029297,-0.05029297,-0.8129883,0.2597656,-0.1977539,3,-6,-1,-1,-1,-2,-2,0,-2,-4,-3,-3,-1,-1,-2,-2,-89.8125,-89.8125,-89.8125,-15.3125,-15.3125,-15.3125,0.1267924,7.192,0.176724,9.336992,7.09313,1.588741,-0.1044595,-0.4159581,1.428408,0.4228428,-0.4364755,1.35058,0.1630492,0.3968163,1.190574,-0.07205558,-0.4148981,1.404429,0.3563296,-0.4448424,1.2856,0.1678435,-0.04596507,1.323131,0.1763366,-0.3588817,1.377128,-0.02208751,0.1546342,1.285878,0.08173542,-0.3468997,1.345428,-0.08690634,-0.100633,1.406311,0.3991158,-0.1046683,1.373938,NA,NA,NotTracked,NotTracked,
-0.9360352,-0.4257813,-0.08496094,-0.8227539,0.2148438,-0.1850586,4,-1,-1,-3,-2,-2,-4,-2,4,0,-2,-2,-2,-1,0,3,-75.375,-75.375,-75.375,-10,-10,-10,9.984859,7.194314,0.1151052,9.302057,7.098203,1.559854,-0.1082824,-0.4246701,1.408453,0.4218972,-0.4369103,1.33963,0.1578982,0.3893844,1.163942,-0.0663219,-0.4467483,1.373625,0.3628348,-0.4231538,1.287,0.163956,-0.05130979,1.302931,0.1736505,-0.3628718,1.361622,-0.0268277,0.1490686,1.260709,0.07910506,-0.3508971,1.329583,-0.09149318,-0.104744,1.382791,0.3962938,-0.1052579,1.351878,NA,NA,NotTracked,NotTracked,
-1.030762,-0.2866211,-0.1079102,-1.03125,0.1376953,-0.2143555,3,2,-2,2,-2,0,-1,0,1,-1,1,0,1,0,-1,2,-42.625,-42.625,-42.625,2.75,2.75,2.75,9.956164,7.186218,0.1399301,9.168032,7.1112,1.421724,-0.1111463,-0.4326229,1.384026,0.4173708,-0.4399605,1.321917,0.1507098,0.3783663,1.137401,-0.06800671,-0.4465838,1.347538,0.3762434,-0.4431808,1.29992,0.1605054,-0.05763183,1.283401,0.1712459,-0.3681308,1.342331,-0.03195187,0.1427027,1.236349,0.07658387,-0.3561945,1.310567,-0.09633098,-0.110809,1.354988,0.3912761,-0.1104492,1.327147,NA,NA,NotTracked,NotTracked,
-1.157715,-0.09765625,-0.1816406,-1.166016,0.1821289,-0.1704102,2,0,0,-2,-1,-1,1,-1,-7,-16,-4,-1,-2,-1,-2,-1,-4.5625,-4.5625,-4.5625,12.375,12.375,12.375,0.07689036,7.192646,0.2734723,8.918414,7.129438,1.153821,-0.1142819,-0.4408095,1.351412,0.412123,-0.4438334,1.299035,0.1421299,0.3693528,1.10601,-0.07586003,-0.4402177,1.324176,0.3664588,-0.4556959,1.276727,0.1558774,-0.06488692,1.257942,0.1691693,-0.3727374,1.322505,-0.0380277,0.1376598,1.209356,0.07390758,-0.3610251,1.290407,-0.1007741,-0.1166153,1.3265,0.3858805,-0.1157249,1.298664,NA,NA,NotTracked,NotTracked,
-1.155273,-0.06445313,-0.1762695,-1.182617,0.1645508,-0.1704102,-2,-1,-1,-2,-4,-3,-2,-2,0,4,2,0,-1,-2,-1,-2,0.3125,0.3125,0.3125,1.125,1.125,1.125,0.3387836,7.198503,0.5419772,8.561475,7.136464,0.7824451,-0.1151586,-0.4479576,1.316213,0.4031683,-0.4441154,1.267333,0.13356,0.3568274,1.079167,-0.07844932,-0.4317597,1.292,0.3524693,-0.4216613,1.235286,0.1505954,-0.06980176,1.237129,0.1665395,-0.3764615,1.302591,-0.04597674,0.1316314,1.182703,0.07095347,-0.3648456,1.271616,-0.1070945,-0.1210009,1.299507,0.37981,-0.1212886,1.274221,NA,NA,NotTracked,NotTracked,
-1.137695,-0.07373047,-0.1865234,-1.114746,0.09570313,-0.1274414,3,0,-2,-2,0,-1,1,0,2,1,-2,-1,-2,0,-2,-2,13.625,13.625,13.625,-12.8125,-12.8125,-12.8125,0.517238,7.197105,0.7159023,8.196294,7.123236,0.4161775,-0.1170964,-0.4519173,1.274297,0.3888583,-0.452325,1.230662,0.1239953,0.3449308,1.048367,-0.08140031,-0.4334567,1.249682,0.3305808,-0.4409253,1.188875,0.1452948,-0.07479008,1.214515,0.1642482,-0.3792496,1.283527,-0.05312713,0.1282972,1.158277,0.06838284,-0.3679105,1.253481,-0.1127708,-0.1253988,1.26775,0.3731903,-0.1233512,1.24605,NA,NA,NotTracked,NotTracked,
-1.042969,-0.1206055,-0.171875,-1.117188,0.02636719,-0.1289063,-4,-4,-1,-1,-3,-1,1,1,-2,-1,-1,-3,-2,-1,-3,-1,30.4375,30.4375,30.4375,-23.375,-23.375,-23.375,0.9401177,7.181886,1.116581,7.895416,7.090256,0.1286572,-0.1169417,-0.4527138,1.231573,0.3726127,-0.4508603,1.193219,0.1151226,0.3450486,1.010892,-0.08247121,-0.4431528,1.2225,0.3191877,-0.4473286,1.1707,0.1376263,-0.06983111,1.173281,0.16219,-0.3809761,1.265702,-0.06143174,0.1240796,1.133481,0.06632903,-0.36998,1.236967,-0.1162353,-0.1266062,1.242989,0.367879,-0.1243687,1.220695,NA,NA,NotTracked,NotTracked,
-1.042969,-0.1206055,-0.171875,-1.117188,0.02636719,-0.1289063,-4,-4,-1,-1,-3,-1,1,1,-2,-1,-1,-3,-2,-1,-3,-1,30.4375,30.4375,30.4375,-23.375,-23.375,-23.375,0.9401177,7.181886,1.116581,7.895416,7.090256,0.1286572,-0.1167052,-0.4503557,1.187286,0.356582,-0.4477732,1.154681,0.1067963,0.3401663,0.9809806,-0.07532282,-0.4124591,1.192,0.3049294,-0.4168824,1.122056,0.1331198,-0.07042429,1.159413,0.1570172,-0.3817616,1.249542,-0.06846364,0.1220115,1.10967,0.0612819,-0.3706617,1.221278,-0.1212645,-0.1284442,1.217046,0.3614546,-0.1241152,1.193683,NA,NA,NotTracked,NotTracked,
-1.049316,-0.06542969,-0.1826172,-1.057129,0.002441406,-0.1318359,1,-1,1,0,0,0,-4,-12,-4,-2,-2,-2,0,-1,0,-2,19.875,19.875,19.875,-24,-24,-24,1.370014,7.149433,1.528705,7.783213,7.072096,0.0244497,-0.1159345,-0.4459812,1.145602,0.3410457,-0.4481117,1.11803,0.0994559,0.3345456,0.9515077,-0.06574457,-0.397695,1.1074,0.2896284,-0.4238713,1.123632,0.1247461,-0.07203859,1.135021,0.1495246,-0.3824701,1.231379,-0.07645544,0.1201473,1.083502,0.05390512,-0.371252,1.204579,-0.1279175,-0.128647,1.190202,0.3559263,-0.1217782,1.168978,NA,NA,NotTracked,NotTracked,
-0.9624023,-0.06835938,-0.1601563,-1.043945,-0.01171875,-0.1586914,0,1,1,-1,1,-2,-1,0,-2,1,1,-1,-1,-1,-2,-2,5.625,5.625,5.625,-33.0625,-33.0625,-33.0625,1.72787,7.090273,1.8911,7.517843,7.018006,9.801511,-0.117095,-0.4498591,1.103567,0.332017,-0.4518984,1.077564,0.09277478,0.3303548,0.927511,-0.05956905,-0.3961285,1.0728,0.2771362,-0.4763737,1.071571,0.1202284,-0.07314542,1.116714,0.1449503,-0.3817843,1.216819,-0.0805808,0.1196291,1.061746,0.04877968,-0.3706436,1.188389,-0.1319184,-0.1267813,1.169575,0.3492136,-0.1249702,1.15031,NA,NA,NotTracked,Unknown,
-1.007324,-0.109375,-0.1181641,-0.9995117,-0.03271484,-0.1523438,1,-1,-2,-3,-2,-1,1,1,0,0,-1,-1,-1,-2,-1,-3,4.3125,4.3125,4.3125,-26.625,-26.625,-26.625,1.968352,7.014068,2.1373,7.448432,7.003005,9.742403,-0.1193236,-0.4463081,1.071193,0.3215127,-0.4469342,1.037911,0.08633965,0.3251521,0.9027212,-0.0623714,-0.3981943,1.049182,0.2894527,-0.449025,1.075074,0.1149067,-0.07385303,1.098902,0.1407416,-0.3804075,1.203601,-0.08477516,0.1182723,1.037013,0.04441281,-0.369693,1.174443,-0.1374069,-0.1228678,1.142089,0.3426673,-0.1266558,1.125952,NA,NA,Unknown,Unknown,
-1.056641,-0.09423828,-0.1064453,-1.025879,-0.004394531,-0.1123047,2,1,-1,-1,-1,0,0,-1,-2,-4,-3,-1,2,0,0,0,3.75,3.75,3.75,-15.1875,-15.1875,-15.1875,2.054373,6.976665,2.226703,7.364542,6.98922,9.670938,-0.1164648,-0.4505385,1.038145,0.3147435,-0.4418864,0.9959953,0.08133893,0.320248,0.8823124,-0.06716856,-0.434484,0.9795,0.2906697,-0.4359298,1.038091,0.1098941,-0.07508521,1.083235,0.1369827,-0.3797922,1.191602,-0.08726321,0.1172888,1.019707,0.04078154,-0.3695119,1.163648,-0.1410974,-0.122849,1.125318,0.3391068,-0.126736,1.107086,NA,NA,Unknown,Unknown,
-1.062012,-0.06201172,-0.1147461,-1.065918,-0.006835938,-0.1064453,2,0,-3,1,1,-2,0,1,-1,4,-2,-1,-2,-1,-1,-3,5.25,5.25,5.25,1.3125,1.3125,1.3125,2.231745,6.87243,2.41087,7.34225,6.989705,9.648768,-0.1175714,-0.4430514,1.01853,0.3034068,-0.4365692,0.9642066,0.07683652,0.3164085,0.8616155,-0.05900942,-0.4227843,0.9941668,0.2660069,-0.4315498,0.9370624,0.1052415,-0.07616305,1.067575,0.1327734,-0.3786083,1.180387,-0.09031061,0.1154216,1.000766,0.03610772,-0.3686249,1.151118,-0.144188,-0.1227239,1.104108,0.3338832,-0.1298028,1.086873,NA,NA,Unknown,Unknown,
