ALX,ALY,ALZ,ARX,ARY,ARZ,EMG0L,EMG1L,EMG2L,EMG3L,EMG4L,EMG5L,EMG6L,EMG7L,EMG0R,EMG1R,EMG2R,EMG3R,EMG4R,EMG5R,EMG6R,EMG7R,GLX,GLY,GLZ,GRX,GRY,GRZ,ORL,OPL,OYL,ORR,OPR,OYR,LHNX,LHNY,LHNZ,RHNX,RHNY,RHNZ,HX,HY,HZ,LTX,LTY,LTZ,RTX,RTY,RTZ,SpineMidX,SpineMidY,SpineMidZ,SpineBaseX,SpineBaseY,SpineBaseZ,ShoulderLeftX,ShoulderLeftY,ShoulderLeftZ,ShoulderRightX,ShoulderRightY,ShoulderRightZ,ElbowLeftX,ElbowLeftY,ElbowLeftZ,ElbowRightX,ElbowRightY,ElbowRightZ,Myo_Pose_left,Myo_Pose_Right,Kinect_pose_left,Kinect_pose_right
-0.9287109,-0.3520508,-0.1879883,-0.9443359,0.3300781,-0.06542969,-3,-3,-2,-1,-1,-1,-2,-1,1,0,-1,0,-1,-2,-1,-2,0.8125,0.8125,0.8125,-0.0625,-0.0625,-0.0625,1.676316,6.85675,0.4623143,7.794624,6.97881,8.107324,-0.09473575,-0.4221953,1.517308,0.2811918,-0.3969884,1.459145,0.1045203,0.4612469,1.620901,-0.05171511,-0.4036626,1.469605,0.3295776,-0.4121604,1.452103,0.1051865,-0.01357926,1.608125,0.1062175,-0.3429049,1.586757,-0.08153088,0.1633881,1.616088,0.01984712,-0.335012,1.552945,-0.1106265,-0.09732355,1.610069,0.3082852,-0.09502735,1.568907,NA,NA,NotTracked,NotTracked,
-0.8842773,-0.3193359,-0.1943359,-0.9448242,0.3266602,-0.06152344,4,0,0,-4,0,0,-1,-2,-2,-2,-2,-1,-2,-2,0,-2,0.8125,0.8125,0.8125,-1.3125,-1.3125,-1.3125,1.67604,6.856921,0.4619574,7.793936,6.977375,8.108076,-0.09448025,-0.42146,1.518178,0.2816148,-0.3974594,1.459779,0.1047099,0.4612979,1.621016,-0.05225515,-0.3940923,1.471809,0.332074,-0.4167039,1.458402,0.1052168,-0.01358371,1.608145,0.106228,-0.3429019,1.586756,-0.08140391,0.1634236,1.616322,0.01987168,-0.3350079,1.552966,-0.1106191,-0.09726456,1.610097,0.3084819,-0.09484035,1.568782,NA,NA,NotTracked,NotTracked,
-0.9414063,-0.3598633,-0.1899414,-0.9448242,0.3227539,-0.05371094,-3,4,-4,-2,-1,0,-2,-1,-2,-2,0,0,0,-1,0,-2,-0.375,-0.375,-0.375,-0.125,-0.125,-0.125,1.677919,6.856199,0.4638341,7.793832,6.977241,8.107965,-0.09459746,-0.4213849,1.516146,0.2811014,-0.3972201,1.458575,0.1048428,0.4612421,1.621026,-0.05185168,-0.4101751,1.468265,0.3275731,-0.4111309,1.44909,0.1052561,-0.01360966,1.608119,0.1062517,-0.3429558,1.586656,-0.08133858,0.163407,1.616362,0.0198958,-0.3350538,1.552861,-0.1104555,-0.0971127,1.610149,0.3086023,-0.09489991,1.568623,NA,NA,NotTracked,NotTracked,
-0.9345703,-0.3525391,-0.1904297,-0.9443359,0.3237305,-0.05419922,0,-3,-3,-2,0,-1,0,1,-2,-1,-1,-1,-3,-2,-2,0,-0.5625,-0.5625,-0.5625,-0.5,-0.5,-0.5,1.678624,6.856392,0.4644448,7.793832,6.977241,8.107965,-0.09414133,-0.4222823,1.516307,0.2814719,-0.3975561,1.458464,0.1050334,0.4612343,1.621096,-0.05211805,-0.3994779,1.470544,0.3296158,-0.4138385,1.449917,0.1053019,-0.01359156,1.608118,0.1062872,-0.3429197,1.586599,-0.0812435,0.1633852,1.616465,0.01993576,-0.3350231,1.552799,-0.1103257,-0.09736758,1.610202,0.3086686,-0.09491611,1.5685,NA,NA,NotTracked,NotTracked,
-0.9335938,-0.3466797,-0.1821289,-0.9448242,0.3227539,-0.06103516,3,-1,-2,-1,1,0,-2,-1,-1,-3,-1,-2,-2,-2,0,-2,-0.9375,-0.9375,-0.9375,-0.5625,-0.5625,-0.5625,1.679083,6.856305,0.464954,7.793728,6.977108,8.107854,-0.09462025,-0.4227131,1.516883,0.2814435,-0.3976573,1.459289,0.1051405,0.4612213,1.621175,-0.05125215,-0.4053205,1.46941,0.3295667,-0.4123644,1.452289,0.1053924,-0.01361253,1.608159,0.1063861,-0.3429504,1.586577,-0.08108141,0.1633607,1.616581,0.02002801,-0.3350508,1.552795,-0.1102891,-0.09736285,1.610264,0.3087616,-0.09490809,1.56838,NA,NA,NotTracked,NotTracked,
-0.9331055,-0.3461914,-0.1938477,-0.9428711,0.3261719,-0.05664063,-1,-2,-1,-1,0,-1,1,1,-1,0,-3,-1,-1,0,0,-1,-0.75,-0.75,-0.75,-0.75,-0.75,-0.75,1.679604,6.856414,0.4654121,7.793728,6.977108,8.107854,-0.09380497,-0.4216941,1.515629,0.2815365,-0.3977122,1.457912,0.1053698,0.4612366,1.621322,-0.05169891,-0.4010922,1.46973,0.3279772,-0.396959,1.449741,0.1055437,-0.01362571,1.608154,0.1064412,-0.3429703,1.586484,-0.07962173,0.1636289,1.613723,0.02007417,-0.335042,1.552708,-0.1101832,-0.09737754,1.610349,0.3088624,-0.09492683,1.56823,NA,NA,NotTracked,NotTracked,
-0.934082,-0.3515625,-0.1914063,-0.9448242,0.3203125,-0.06445313,1,-2,-1,0,0,-1,0,-1,-1,0,-2,-1,-1,0,-2,0,-0.5,-0.5,-0.5,-0.6875,-0.6875,-0.6875,1.679788,6.856498,0.4655648,7.79363,6.976537,8.107783,-0.09375899,-0.4218921,1.516368,0.2815871,-0.3977679,1.458423,0.1055769,0.4612047,1.621536,-0.05012279,-0.4095817,1.466986,0.3320709,-0.418664,1.454833,0.1056123,-0.01364653,1.608161,0.1064627,-0.3429667,1.586465,-0.0797484,0.1635995,1.614356,0.02009306,-0.3350343,1.552699,-0.1101557,-0.09739936,1.610363,0.308885,-0.0949562,1.568201,NA,NA,NotTracked,NotTracked,
-0.9326172,-0.3481445,-0.1845703,-0.9487305,0.3242188,-0.06054688,1,0,-1,0,-1,-1,-2,-2,0,0,0,-2,0,0,1,-1,-0.0625,-0.0625,-0.0625,0.9375,0.9375,0.9375,1.68031,6.856607,0.4660232,7.794382,6.976065,8.107974,-0.09441788,-0.4220247,1.516152,0.2814442,-0.3980782,1.45769,0.1057314,0.4612721,1.621896,-0.05279054,-0.3914472,1.471407,0.3303707,-0.4079162,1.45472,0.1056642,-0.01366911,1.608149,0.1064787,-0.3429757,1.586445,-0.07973056,0.163462,1.614693,0.0201066,-0.3350374,1.552679,-0.1098618,-0.09573878,1.610634,0.3090031,-0.09487786,1.568087,NA,NA,NotTracked,NotTracked,
-0.9335938,-0.3520508,-0.184082,-0.9458008,0.3291016,-0.06396484,3,0,2,2,0,0,1,-2,-1,-2,-3,-1,-1,-2,-1,-2,-0.4375,-0.4375,-0.4375,0,0,0,1.680768,6.85652,0.4665319,7.794359,6.975957,8.107811,-0.09369429,-0.42171,1.515396,0.2814351,-0.3979988,1.457212,0.1058194,0.4612822,1.62198,-0.05283686,-0.3826735,1.472273,0.3299225,-0.4097568,1.453212,0.1056889,-0.01368365,1.608145,0.1064898,-0.3429944,1.586398,-0.07969411,0.163345,1.615131,0.02010886,-0.3350411,1.552657,-0.1098119,-0.09600119,1.61065,0.3090582,-0.094947,1.567998,NA,NA,NotTracked,NotTracked,
-0.934082,-0.3496094,-0.1894531,-0.9487305,0.324707,-0.06591797,3,-1,-1,-1,-2,0,0,0,-1,-2,0,-1,1,-1,0,-2,-0.3125,-0.3125,-0.3125,2.375,2.375,2.375,1.681331,6.856257,0.4668269,7.795388,6.975374,8.107467,-0.09388657,-0.4221757,1.515367,0.2811413,-0.3975044,1.456825,0.1059436,0.4612345,1.622152,-0.0499841,-0.421227,1.466,0.3298468,-0.4102541,1.452011,0.1057389,-0.01368851,1.608127,0.1065198,-0.343003,1.586291,-0.07963736,0.1633047,1.615344,0.02013216,-0.3350505,1.55258,-0.10974,-0.09638068,1.610668,0.3090844,-0.09494409,1.56798,NA,NA,NotTracked,NotTracked,
-0.9399414,-0.3530273,-0.1835938,-0.9384766,0.3305664,-0.06591797,0,-2,-5,-7,-2,-2,0,0,-3,-2,-1,0,-1,-2,-1,-1,-0.4375,-0.4375,-0.4375,0.6875,0.6875,0.6875,1.682037,6.856451,0.4674384,7.796213,6.974526,8.106904,-0.09389361,-0.4221411,1.515789,0.2814339,-0.3981938,1.4575,0.1061523,0.4612082,1.62244,-0.04974995,-0.4223016,1.467,0.3300859,-0.4112616,1.452212,0.1057997,-0.01368388,1.608135,0.1065372,-0.3429983,1.586244,-0.07961407,0.1633607,1.615662,0.02015669,-0.3350462,1.552545,-0.1096837,-0.09645501,1.610676,0.3091516,-0.09529117,1.567834,NA,NA,NotTracked,NotTracked,
-0.9316406,-0.3481445,-0.1821289,-0.9394531,0.3198242,-0.05761719,3,1,-2,0,-1,0,-1,-2,0,-1,-2,-1,-1,-1,-1,-1,-1.3125,-1.3125,-1.3125,2.25,2.25,2.25,1.682073,6.856488,0.4682228,7.798022,6.974424,8.107575,-0.09434081,-0.4219654,1.515257,0.2814187,-0.397954,1.457155,0.1062512,0.4612148,1.622524,-0.05212549,-0.3945979,1.469918,0.330549,-0.411824,1.452947,0.1058483,-0.01369548,1.608134,0.1065591,-0.3429919,1.586158,-0.07962695,0.1633985,1.615928,0.02017792,-0.3350339,1.552481,-0.1096727,-0.0964151,1.610681,0.3091996,-0.09531015,1.567773,NA,NA,NotTracked,NotTracked,
-0.9326172,-0.3476563,-0.1855469,-0.9418945,0.3256836,-0.05761719,2,-2,-1,0,-2,0,-1,0,-1,-2,-2,-1,-2,-1,1,-1,-1.8125,-1.8125,-1.8125,3.5,3.5,3.5,1.681676,6.856162,0.4687514,7.799906,6.973948,8.107495,-0.09400968,-0.4215925,1.515626,0.2815818,-0.3980521,1.457124,0.1063869,0.4612386,1.622692,-0.05114531,-0.4050665,1.468668,0.3296556,-0.409467,1.45199,0.1058514,-0.0136938,1.608134,0.1065634,-0.3429822,1.58609,-0.07975066,0.1634185,1.616323,0.02018632,-0.3350203,1.552454,-0.1096092,-0.09643226,1.610651,0.309305,-0.09516097,1.56768,NA,NA,NotTracked,NotTracked,
-0.9335938,-0.347168,-0.1879883,-0.949707,0.3286133,-0.05859375,2,-3,-1,0,-2,0,-1,-2,-3,-2,0,-2,-1,0,-1,0,-2.4375,-2.4375,-2.4375,1.1875,1.1875,1.1875,1.680541,6.855916,0.469619,7.801774,6.972934,8.107294,-0.09436846,-0.4213432,1.514851,0.2814529,-0.3973713,1.456632,0.1064854,0.4611616,1.622768,-0.05317967,-0.3848834,1.471717,0.3272648,-0.3933625,1.448214,0.1058866,-0.01369161,1.608131,0.1066051,-0.3429938,1.586,-0.07974974,0.1633958,1.616405,0.02021716,-0.3350134,1.552385,-0.1095896,-0.09646446,1.610582,0.3093457,-0.0951822,1.567561,NA,NA,NotTracked,NotTracked,
-0.9360352,-0.3505859,-0.1884766,-0.9541016,0.3173828,-0.05859375,0,0,-2,-4,-3,-2,1,-1,-1,0,-2,-3,-1,-1,-3,1,-1.875,-1.875,-1.875,1.25,1.25,1.25,1.679153,6.855392,0.4703828,7.801873,6.972668,8.106707,-0.09397208,-0.4213984,1.515202,0.2815163,-0.3978915,1.457115,0.1067018,0.461262,1.623048,-0.05107022,-0.4009258,1.469073,0.3271722,-0.4190826,1.43875,0.1059182,-0.01367505,1.608153,0.1066378,-0.3429861,1.585965,-0.07971848,0.1633718,1.616576,0.02025134,-0.3349978,1.552372,-0.1096,-0.09672159,1.610532,0.3093681,-0.09518294,1.567524,NA,NA,NotTracked,NotTracked,
-0.9360352,-0.3505859,-0.1884766,-0.9448242,0.3237305,-0.06445313,1,1,1,5,0,-1,0,-1,-2,-1,0,-3,-1,-1,-2,-1,-1.875,-1.875,-1.875,2.1875,2.1875,2.1875,1.679153,6.855392,0.4703828,7.80321,6.972137,8.105269,-0.09392712,-0.4209375,1.515226,0.281669,-0.3977164,1.457012,0.1068948,0.461256,1.623231,-0.05099361,-0.4100711,1.467219,0.328879,-0.4089069,1.449207,0.1059791,-0.01364332,1.608158,0.1066772,-0.3429539,1.585917,-0.07969715,0.1634225,1.616732,0.02029108,-0.3349576,1.552331,-0.1095718,-0.09676326,1.61051,0.3094308,-0.09517482,1.567413,NA,NA,NotTracked,NotTracked,
-0.9311523,-0.3520508,-0.1918945,-0.9438477,0.3188477,-0.06542969,-3,-1,-5,-6,-1,-2,-2,0,-2,1,0,-2,-2,-1,-2,-1,-0.0625,-0.0625,-0.0625,0.25,0.25,0.25,1.678729,6.855521,0.4706579,7.804043,6.972532,8.106066,-0.09429067,-0.4211879,1.514745,0.2816197,-0.3970881,1.456565,0.1070981,0.4612446,1.623287,-0.05246666,-0.3938084,1.470069,0.3296962,-0.413111,1.448109,0.1061007,-0.01364262,1.608168,0.1067085,-0.3429571,1.585821,-0.07960053,0.163529,1.616823,0.02031743,-0.3349497,1.552279,-0.1095221,-0.09674203,1.610444,0.3094508,-0.09515373,1.567381,NA,NA,NotTracked,NotTracked,
-0.9311523,-0.3481445,-0.1894531,-0.9423828,0.3203125,-0.06152344,-1,0,-2,-3,-1,1,0,0,0,-1,-1,0,-3,-1,-2,-2,0.8125,0.8125,0.8125,0.5625,0.5625,0.5625,1.679435,6.855713,0.4712685,7.804043,6.972532,8.106066,-0.09438892,-0.4214886,1.515806,0.2817792,-0.3987951,1.457531,0.1073377,0.4613195,1.623631,-0.05045308,-0.4136809,1.467364,0.3307955,-0.4205722,1.450222,0.1061481,-0.01363121,1.608207,0.1067079,-0.3429546,1.58582,-0.07948618,0.1636085,1.616983,0.02031479,-0.3349332,1.552278,-0.1095138,-0.09663051,1.610515,0.3094945,-0.09517673,1.567377,NA,NA,NotTracked,NotTracked,
-0.9311523,-0.3549805,-0.1855469,-0.9394531,0.3242188,-0.05859375,2,1,-1,-2,-1,-1,0,0,0,-1,0,-1,-2,-1,-1,-2,1.0625,1.0625,1.0625,1.25,1.25,1.25,1.68179,6.855059,0.4728101,7.805839,6.971899,8.106617,-0.09403,-0.4216034,1.515265,0.2815089,-0.398678,1.456505,0.1075839,0.4613161,1.623928,-0.05108145,-0.3974842,1.469209,0.3303331,-0.4135674,1.4509,0.1062134,-0.01365249,1.608209,0.1067335,-0.3429608,1.585783,-0.07946674,0.1635653,1.617098,0.0203343,-0.3349396,1.552251,-0.1095068,-0.09662278,1.610504,0.3095093,-0.09517939,1.567376,NA,NA,NotTracked,NotTracked,
-0.9311523,-0.3549805,-0.1855469,-0.9394531,0.3242188,-0.05859375,-1,-2,-2,-1,-1,0,0,-2,0,-1,0,-1,-2,-1,-1,-2,1.0625,1.0625,1.0625,1.25,1.25,1.25,1.68179,6.855059,0.4728101,7.805839,6.971899,8.106617,-0.09361517,-0.4218575,1.514496,0.2817379,-0.3986886,1.456986,0.1077701,0.4613236,1.624118,-0.05162115,-0.3906105,1.470453,0.3196494,-0.4197085,1.426042,0.1062861,-0.01364093,1.608242,0.1067885,-0.3429404,1.585715,-0.07935643,0.1637054,1.617245,0.02038587,-0.3349074,1.552187,-0.1095137,-0.09510914,1.610737,0.3095241,-0.09517856,1.567349,NA,NA,NotTracked,NotTracked,
-0.9384766,-0.3671875,-0.1889648,-0.9428711,0.3203125,-0.06298828,0,-1,-1,-2,-2,0,-1,-2,-2,-1,0,-2,0,-1,-2,-3,0.25,0.25,0.25,0.1875,0.1875,0.1875,1.687638,6.852896,0.477527,7.805822,6.971359,8.106495,-0.09388361,-0.4210484,1.516141,0.281875,-0.3987749,1.457652,0.1079915,0.4613511,1.62435,-0.04947527,-0.4145574,1.467061,0.3201881,-0.4119568,1.428945,0.1063799,-0.01364654,1.608374,0.1068293,-0.342933,1.585732,-0.07928433,0.1637669,1.617446,0.02044252,-0.3348991,1.552231,-0.1094879,-0.09513051,1.61077,0.3095824,-0.09519568,1.567383,NA,NA,NotTracked,NotTracked,
-0.9296875,-0.3535156,-0.1865234,-0.9443359,0.3261719,-0.06835938,-1,-4,0,0,-2,-1,1,0,0,-4,-2,-1,-3,-2,-2,-1,0.4375,0.4375,0.4375,0.6875,0.6875,0.6875,1.688382,6.852716,0.477973,7.805739,6.971332,8.106545,-0.09376317,-0.4209818,1.516286,0.2816928,-0.3988469,1.457489,0.1083071,0.4613793,1.624641,-0.05109071,-0.3880498,1.471403,0.3194098,-0.4172552,1.425306,0.1064598,-0.01365143,1.608434,0.1068488,-0.3429236,1.585728,-0.07926551,0.163818,1.617614,0.02046159,-0.3348761,1.552229,-0.1095184,-0.09522757,1.610774,0.3096213,-0.0952017,1.567409,NA,NA,NotTracked,NotTracked,
-0.9321289,-0.3588867,-0.1914063,-0.9418945,0.3291016,-0.05712891,0,0,-3,-3,-1,0,-2,-1,0,0,-2,-2,0,-2,0,-2,0,0,0,0.6875,0.6875,0.6875,1.688833,6.852628,0.4784751,7.805739,6.971332,8.106545,-0.09358307,-0.4211035,1.51654,0.2821346,-0.3988649,1.458189,0.108532,0.4613603,1.62487,-0.0499409,-0.4113649,1.468778,0.3326208,-0.4175874,1.456,0.1065612,-0.01365061,1.608534,0.1068913,-0.342926,1.585729,-0.07925286,0.1638344,1.617756,0.02051376,-0.3348804,1.552234,-0.109386,-0.09537579,1.610916,0.3096763,-0.09523199,1.567441,NA,NA,NotTracked,NotTracked,
-0.9331055,-0.3540039,-0.1850586,-0.9423828,0.3320313,-0.06298828,3,2,-2,1,-2,-2,0,-1,-2,-2,-1,0,1,-3,-2,0,-0.8125,-0.8125,-0.8125,-0.1875,-0.1875,-0.1875,1.689013,6.85271,0.4786236,7.805635,6.971198,8.106434,-0.093463,-0.4212295,1.517671,0.2820997,-0.3995299,1.45901,0.1088587,0.4613887,1.625373,-0.05056558,-0.4035484,1.469837,0.3208766,-0.4179139,1.429333,0.1068092,-0.01358602,1.608784,0.1069331,-0.3428999,1.585786,-0.07907978,0.1639436,1.61805,0.02056248,-0.3348461,1.552298,-0.1092939,-0.09546936,1.611113,0.3097349,-0.09529939,1.56753,NA,NA,NotTracked,NotTracked,
-0.9321289,-0.3603516,-0.1865234,-0.9453125,0.3266602,-0.06005859,3,2,0,-2,-1,-1,-1,0,0,-2,-1,0,-1,0,-1,-2,-0.4375,-0.4375,-0.4375,0.125,0.125,0.125,1.689847,6.852279,0.4792745,7.805635,6.971198,8.106434,-0.09348686,-0.4212491,1.516927,0.2817883,-0.398946,1.457977,0.1090326,0.4614449,1.625563,-0.05011844,-0.4069861,1.468997,0.3181412,-0.41774,1.425164,0.1069495,-0.01358095,1.60892,0.1069509,-0.3429101,1.585824,-0.0790201,0.1639827,1.618101,0.02057444,-0.3348427,1.55234,-0.1092705,-0.09545744,1.611131,0.3098099,-0.09530071,1.567609,NA,NA,NotTracked,NotTracked,
-0.9272461,-0.3569336,-0.1831055,-0.9448242,0.328125,-0.06347656,1,0,-2,-2,-2,1,0,-1,-2,-1,0,-1,-1,-1,0,1,-0.5625,-0.5625,-0.5625,-0.625,-0.625,-0.625,1.689987,6.852731,0.4795854,7.805532,6.971065,8.106323,-0.09340508,-0.4213594,1.515913,0.2816159,-0.3987289,1.457711,0.1092182,0.4613906,1.625789,-0.05114416,-0.3934956,1.47042,0.3192488,-0.4183994,1.427634,0.1070402,-0.01358887,1.608964,0.1069861,-0.3429123,1.585826,-0.07897884,0.1639257,1.618212,0.02060061,-0.334835,1.552357,-0.1092517,-0.09549851,1.611087,0.3098497,-0.09529456,1.567671,NA,NA,NotTracked,NotTracked,
-0.9150391,-0.3466797,-0.1928711,-0.9414063,0.3242188,-0.06738281,0,-1,-1,-1,-1,1,-1,1,-1,0,-1,-2,-2,-1,-2,0,0.0625,0.0625,0.0625,0.625,0.625,0.625,1.689987,6.852731,0.4795854,7.805537,6.970632,8.106362,-0.09322128,-0.4210046,1.51697,0.2819642,-0.3990348,1.458342,0.1094039,0.4613323,1.625991,-0.05092044,-0.3880954,1.473119,0.3300507,-0.406391,1.4545,0.1071437,-0.01357733,1.609092,0.1070148,-0.3429012,1.585846,-0.07902449,0.1639936,1.618543,0.02062699,-0.3348118,1.55238,-0.1092676,-0.09559301,1.61112,0.3098602,-0.09523591,1.567736,NA,NA,NotTracked,NotTracked,
-0.9384766,-0.3686523,-0.1884766,-0.9448242,0.3208008,-0.06640625,-2,0,-3,-3,-1,-1,-2,-2,-2,-1,-1,-1,0,0,-1,-1,-1.4375,-1.4375,-1.4375,-1.5625,-1.5625,-1.5625,1.69259,6.850399,0.4830103,7.805151,6.970168,8.106815,-0.09343076,-0.4217439,1.517243,0.2818118,-0.3989824,1.458517,0.1096281,0.4613989,1.626235,-0.05075416,-0.3918998,1.471784,0.3200793,-0.4155659,1.427937,0.1072864,-0.01352002,1.60927,0.1070424,-0.3428904,1.585865,-0.07904892,0.1639867,1.618691,0.02066154,-0.3347867,1.552425,-0.1091644,-0.0957873,1.611239,0.3099685,-0.0953023,1.567818,NA,NA,NotTracked,NotTracked,
-0.9306641,-0.362793,-0.1845703,-0.9414063,0.3232422,-0.06445313,-4,-1,0,-1,-1,0,0,1,0,-3,-2,-2,-1,0,0,-1,0.0625,0.0625,0.0625,0.25,0.25,0.25,1.6936,6.85005,0.483807,7.80598,6.970561,8.107609,-0.09326546,-0.4220599,1.517239,0.2818753,-0.3991146,1.458898,0.1099119,0.4613409,1.626663,-0.04889687,-0.4169071,1.468233,0.3315373,-0.4114196,1.456143,0.107342,-0.01353355,1.609431,0.1071112,-0.3429153,1.585921,-0.07900358,0.1640008,1.618829,0.02073901,-0.3347898,1.552515,-0.1090924,-0.09595709,1.61134,0.3100462,-0.09524985,1.567885,NA,NA,NotTracked,NotTracked,
-0.9277344,-0.3608398,-0.1894531,-0.9428711,0.328125,-0.06103516,0,0,1,0,-2,1,0,-1,1,0,-2,-1,-1,1,-1,-2,0.1875,0.1875,0.1875,-0.625,-0.625,-0.625,1.694048,6.849962,0.4843052,7.805959,6.970455,8.107448,-0.09322608,-0.4213729,1.517893,0.2814974,-0.3990206,1.458563,0.1102363,0.4611399,1.627181,-0.05038887,-0.4002889,1.4705,0.3273973,-0.4126085,1.45065,0.1076023,-0.01354426,1.609695,0.1071974,-0.3429455,1.585993,-0.07870286,0.1640451,1.619235,0.02081111,-0.3347878,1.552604,-0.1089254,-0.09492817,1.61189,0.3101788,-0.09530821,1.568065,NA,NA,NotTracked,NotTracked,
-0.9272461,-0.3613281,-0.1953125,-0.9453125,0.3276367,-0.06542969,-7,-1,-1,0,-1,-1,-1,-2,0,-2,-1,-2,-2,-1,0,-2,-0.25,-0.25,-0.25,-0.4375,-0.4375,-0.4375,1.694048,6.849962,0.4843052,7.805882,6.969995,8.107537,-0.09343635,-0.4213238,1.516834,0.2817668,-0.3991333,1.458091,0.110323,0.4610775,1.627317,-0.05028755,-0.4001784,1.470442,0.3255674,-0.4090353,1.446263,0.10769,-0.01351396,1.609796,0.1072371,-0.3429303,1.586007,-0.07866137,0.1640373,1.619324,0.02084139,-0.3347843,1.552616,-0.1089205,-0.09499222,1.611925,0.3101898,-0.09532025,1.568096,NA,NA,NotTracked,NotTracked,
-0.8984375,-0.3217773,-0.1962891,-0.9472656,0.3291016,-0.06347656,1,0,-3,-5,-2,-2,-2,1,-2,-1,-2,-2,-1,-2,1,-1,-1.125,-1.125,-1.125,0.1875,0.1875,0.1875,1.69323,6.84936,0.4841628,7.805861,6.969889,8.107376,-0.09315228,-0.4216932,1.517823,0.2819425,-0.3989937,1.459302,0.1105391,0.4611413,1.627789,-0.05051952,-0.3984756,1.47167,0.3294474,-0.4065683,1.45355,0.1078656,-0.01344984,1.610037,0.1072472,-0.3429067,1.586091,-0.07861055,0.1640433,1.619628,0.02084938,-0.3347346,1.55275,-0.1088051,-0.09395948,1.612511,0.3101679,-0.09534009,1.568289,NA,NA,NotTracked,NotTracked,
-0.9311523,-0.3505859,-0.2036133,-0.9394531,0.3359375,-0.06152344,0,1,-2,-4,0,0,0,-1,-1,-2,-1,1,0,-3,-1,-1,-7.5,-7.5,-7.5,0.0625,0.0625,0.0625,1.693837,6.844785,0.4913459,7.804928,6.969363,8.106473,-0.09323603,-0.4215224,1.518319,0.2815703,-0.3988652,1.458922,0.1107354,0.4609823,1.628193,-0.05069828,-0.3907591,1.472647,0.3175576,-0.4176162,1.426679,0.1080183,-0.01343735,1.610193,0.1073066,-0.3428812,1.586126,-0.07853682,0.1641206,1.620054,0.02090191,-0.3347144,1.552782,-0.1087911,-0.09404839,1.612736,0.3102084,-0.09536415,1.568373,NA,NA,NotTracked,NotTracked,
-0.9311523,-0.3662109,-0.1943359,-0.9443359,0.3334961,-0.06005859,-1,-1,-1,-2,-3,0,0,1,0,-1,-1,-3,-2,1,-1,0,-14.8125,-14.8125,-14.8125,-0.75,-0.75,-0.75,1.690688,6.837913,0.5041156,7.804846,6.969335,8.106524,-0.09296615,-0.4221439,1.517297,0.281326,-0.3985475,1.458961,0.1108453,0.4608911,1.628384,-0.05089213,-0.3884024,1.473062,0.3179771,-0.4185623,1.428583,0.1080593,-0.01342545,1.610355,0.1073503,-0.3428662,1.586162,-0.07842787,0.164174,1.620278,0.02094526,-0.3346951,1.552816,-0.1087795,-0.09408309,1.612921,0.3103074,-0.09534576,1.568469,NA,NA,NotTracked,NotTracked,
-0.9296875,-0.3686523,-0.2026367,-0.9423828,0.3334961,-0.06884766,1,-1,-1,1,-2,0,-3,-5,-1,-1,-1,0,-1,0,-2,-1,-13.375,-13.375,-13.375,0.6875,0.6875,0.6875,1.682556,6.832795,0.5115705,7.804743,6.969202,8.106414,-0.09273721,-0.4218091,1.517868,0.2810888,-0.3986899,1.459218,0.111067,0.461006,1.628937,-0.05001833,-0.4028531,1.470728,0.3309061,-0.4102412,1.460222,0.108205,-0.01342394,1.610577,0.1073596,-0.3428412,1.586238,-0.07834347,0.1641893,1.620592,0.02095438,-0.3346447,1.552896,-0.108825,-0.09423741,1.613123,0.3105038,-0.09534384,1.568787,NA,NA,NotTracked,NotTracked,
-0.9326172,-0.3881836,-0.1977539,-0.9619141,0.3417969,-0.06933594,44,2,-14,-21,-3,-4,10,20,-1,-2,0,-2,-1,-2,0,-1,-12.5,-12.5,-12.5,0.5625,0.5625,0.5625,1.677323,6.830891,0.5132665,7.805556,6.969056,8.107084,-0.09318815,-0.421166,1.517178,0.2807312,-0.3973275,1.458825,0.1111346,0.4610019,1.629078,-0.0504519,-0.3972082,1.471333,0.3288149,-0.4072448,1.455144,0.1082542,-0.0134038,1.610746,0.1073688,-0.3428168,1.586259,-0.0783743,0.1641836,1.620851,0.02096304,-0.3346215,1.552916,-0.1086672,-0.09468279,1.613285,0.310598,-0.09540381,1.568859,NA,NA,NotTracked,NotTracked,
-1.177734,-0.4555664,-0.2402344,-0.9550781,0.355957,-0.06689453,20,10,5,12,5,4,32,17,-2,0,-3,-1,-1,-1,-1,-1,-14.0625,-14.0625,-14.0625,-2.375,-2.375,-2.375,1.662296,6.823832,0.5097091,7.804469,6.966763,8.107583,-0.09309895,-0.4215711,1.517916,0.2797593,-0.3957878,1.45715,0.1112765,0.461015,1.629334,-0.05027598,-0.3981219,1.471097,0.3306512,-0.4252936,1.457333,0.1083713,-0.01336943,1.610918,0.1073846,-0.3428032,1.586278,-0.07835361,0.1642485,1.621081,0.02098054,-0.3345916,1.552955,-0.1086613,-0.09469834,1.613332,0.3108529,-0.0952477,1.569298,NA,NA,NotTracked,NotTracked,
-1.170898,-0.7924805,-0.4262695,-0.9379883,0.3105469,-0.08447266,-8,-2,4,4,16,16,14,6,1,0,-3,-2,-1,0,-1,-1,16.125,16.125,16.125,-15.1875,-15.1875,-15.1875,1.838798,6.7432,0.7061353,7.798272,6.964048,8.115025,-0.09362437,-0.4215949,1.518602,0.2774914,-0.3912618,1.451767,0.111308,0.4609176,1.629611,-0.05042466,-0.3973313,1.471343,0.3120574,-0.404874,1.421089,0.1084346,-0.01330273,1.611189,0.1073868,-0.3427028,1.586386,-0.07843246,0.1642053,1.621289,0.02098664,-0.3344641,1.553126,-0.1086376,-0.0948856,1.613424,0.3119277,-0.09429913,1.57119,NA,NA,NotTracked,NotTracked,
-1.385254,-1.024902,-0.2666016,-0.9658203,0.3095703,-0.07177734,-27,23,1,20,-37,0,-8,-12,-1,0,0,-2,-2,-2,-2,0,93.375,93.375,93.375,-8.1875,-8.1875,-8.1875,2.160614,6.548413,0.9555898,7.790935,6.964239,8.119299,-0.09313692,-0.4214983,1.516945,0.2669012,-0.3749086,1.435366,0.1113357,0.4608993,1.629835,-0.05044482,-0.3972252,1.471296,0.2966137,-0.3738799,1.396795,0.1084221,-0.01325643,1.61126,0.1071981,-0.3425596,1.586434,-0.07837987,0.1642381,1.621465,0.02071059,-0.3342552,1.553181,-0.1086002,-0.09502655,1.613501,0.3144282,-0.09163237,1.578136,NA,NA,NotTracked,NotTracked,
-1.559082,-1.352051,-0.05517578,-0.9775391,0.2998047,-0.0703125,19,-7,5,-6,-38,-14,7,4,0,-1,-1,-1,-1,-1,-2,0,71.125,71.125,71.125,2.8125,2.8125,2.8125,2.285696,6.384654,1.061876,7.792931,6.967711,8.121651,-0.09326699,-0.4205853,1.517185,0.2482471,-0.3326059,1.404443,0.1113964,0.4609132,1.629939,-0.05163664,-0.3796332,1.474673,0.2722126,-0.3342866,1.349222,0.1082087,-0.01310804,1.611383,0.1061736,-0.3419785,1.586684,-0.07841364,0.1642095,1.621741,0.01943022,-0.3333187,1.553473,-0.108357,-0.09318896,1.614563,0.3191039,-0.08521817,1.590053,NA,NA,NotTracked,NotTracked,
-1.172852,-2.206055,0.06787109,-0.9511719,0.3032227,-0.04931641,2,1,-2,-9,-8,-8,5,1,-1,0,0,-2,0,-2,0,-1,133.1875,133.1875,133.1875,12.5,12.5,12.5,2.524016,5.942942,1.209941,7.799541,6.970406,8.121504,-0.09323785,-0.4202572,1.518756,0.2160777,-0.2907103,1.416003,0.1114028,0.4609015,1.629988,-0.04807878,-0.421579,1.46975,0.242746,-0.2395564,1.35825,0.1077965,-0.01292347,1.611611,0.1045087,-0.3413496,1.587243,-0.07842815,0.164256,1.622129,0.0178046,-0.3323991,1.553958,-0.1083981,-0.0931407,1.614908,0.3236476,-0.072471,1.600679,NA,NA,NotTracked,Unknown,
-0.449707,-1.544922,-0.09228516,-0.8774414,0.3398438,-0.03027344,8,-11,-2,-12,-19,5,11,-1,-1,-1,-1,0,-1,-1,-2,-1,161.25,161.25,161.25,29.9375,29.9375,29.9375,2.699899,5.407209,1.23752,7.827822,6.975207,8.121132,-0.09381278,-0.4201975,1.518051,0.2183998,-0.1876047,1.370179,0.1115085,0.4608221,1.62973,-0.04922187,-0.4099119,1.470736,0.2369592,-0.1634174,1.328297,0.1078211,-0.01289989,1.61165,0.1044806,-0.3411579,1.587433,-0.07841592,0.1643039,1.622167,0.01784877,-0.3323171,1.554039,-0.1084353,-0.09316301,1.614983,0.3268505,-0.06398631,1.602671,NA,NA,NotTracked,Unknown,
-0.4399414,-1.083984,-0.03759766,-0.8764648,0.3813477,-0.04052734,9,2,-3,-5,-11,-11,-8,-2,-1,-3,-1,-1,0,-2,0,-2,185.0625,185.0625,185.0625,28,28,28,2.801868,5.139273,1.246282,7.864304,6.975946,8.125582,-0.09400414,-0.4206161,1.519598,0.2058457,-0.082014,1.315232,0.1118466,0.4604817,1.628776,-0.04988047,-0.4071542,1.471554,0.2217033,-0.07068854,1.2826,0.1080229,-0.01277542,1.611921,0.1046319,-0.340712,1.587976,-0.07828043,0.1643873,1.622226,0.01801179,-0.3320368,1.554682,-0.1083917,-0.0931637,1.615137,0.34688,-0.05564053,1.600582,NA,NA,NotTracked,Unknown,
-0.1186523,-0.4912109,-0.0234375,-0.9008789,0.3598633,-0.05419922,15,4,0,0,4,1,5,18,-1,1,-2,-1,0,0,-1,-1,79.125,79.125,79.125,18.875,18.875,18.875,2.923957,4.586915,1.299023,7.879939,6.975666,8.131458,-0.09533501,-0.4211698,1.521896,0.2201717,0.101785,1.348881,0.1141246,0.4580948,1.62424,-0.05135176,-0.3982505,1.474033,0.2289067,0.1218322,1.3035,0.1085532,-0.01299454,1.612957,0.1048931,-0.3402134,1.589141,-0.07567664,0.1650128,1.615998,0.01857807,-0.3319559,1.556682,-0.108802,-0.09091327,1.615609,0.3410977,-0.04417253,1.529277,NA,NA,NotTracked,Closed,
0.1806641,-0.3251953,0.1904297,-0.956543,0.3291016,-0.06884766,6,2,3,2,8,7,4,7,-2,-2,-2,-1,-1,-1,-2,0,-87.375,-87.375,-87.375,20.4375,20.4375,20.4375,2.74186,3.833805,1.479396,7.89835,6.975387,8.130197,-0.09552287,-0.4215468,1.523137,0.2371628,0.1541732,1.386501,0.1143464,0.4565506,1.622116,-0.05049632,-0.4018708,1.472894,0.2415029,0.2161339,1.35345,0.1087956,-0.01336319,1.613418,0.1050917,-0.3404492,1.589594,-0.07523582,0.1651349,1.616868,0.01875011,-0.3323409,1.557741,-0.108685,-0.09032186,1.615518,0.3460062,-0.04205845,1.513894,NA,NA,NotTracked,Closed,
0.3022461,-0.5205078,0.2480469,-0.9819336,0.3300781,-0.09472656,10,1,1,1,1,6,5,-9,0,0,-1,0,-1,-1,-1,-1,-49,-49,-49,5.25,5.25,5.25,2.465081,3.480277,1.751134,7.886961,6.964532,8.09768,-0.09784966,-0.4114244,1.525121,0.2262475,0.2316921,1.397622,0.1145776,0.4548442,1.620167,-0.05439005,-0.3763587,1.478746,0.2334391,0.2759343,1.393385,0.1099172,-0.01292565,1.614455,0.1053089,-0.3398928,1.590565,-0.07437477,0.1656873,1.617737,0.01881504,-0.3316159,1.559059,-0.1083259,-0.0866057,1.615587,0.3538396,-0.03568645,1.501247,NA,NA,NotTracked,Unknown,
0.4023438,-0.2260742,0.1669922,-0.9658203,0.3066406,-0.1137695,21,0,1,-5,-3,-1,13,-5,-2,-2,-1,0,0,-3,1,0,3.375,3.375,3.375,2.6875,2.6875,2.6875,2.102831,3.277263,2.168202,7.875675,6.960033,8.083506,-0.09754357,-0.4108947,1.5243,0.2277243,0.2589617,1.424529,0.1148467,0.4527351,1.617763,-0.05426317,-0.3752764,1.479661,0.2593329,0.271011,1.37,0.1119744,-0.01163533,1.615586,0.1058075,-0.3389719,1.591537,-0.07301643,0.1661292,1.618539,0.01902369,-0.3307562,1.559908,-0.1081757,-0.0813802,1.615647,0.3635159,-0.01852878,1.474206,NA,NA,NotTracked,Unknown,
0.4926758,-0.1308594,0.1484375,-0.934082,0.2954102,-0.09082031,11,-3,-3,-2,1,4,14,4,-1,-2,0,1,-1,-2,-1,0,5.0625,5.0625,5.0625,1.75,1.75,1.75,1.909081,3.22968,2.389941,7.850221,6.950631,8.053699,-0.09766684,-0.4104518,1.522513,0.2010891,0.3175711,1.458511,0.1159157,0.4501312,1.61514,-0.05311466,-0.3987773,1.473938,0.1529284,0.3292497,1.528429,0.1135164,-0.01089402,1.616256,0.1061879,-0.3383324,1.591965,-0.07170958,0.1666492,1.619372,0.01933048,-0.3300905,1.560378,-0.1092868,-0.07667533,1.615687,0.3665646,-0.007012605,1.45888,NA,NA,NotTracked,Unknown,
0.4956055,-0.3300781,0.04394531,-0.9052734,0.3056641,-0.07080078,8,-2,-3,8,7,9,2,-4,-1,-1,-1,0,-1,-2,-1,-1,-5.9375,-5.9375,-5.9375,-6.375,-6.375,-6.375,1.548315,3.197051,2.792876,7.829785,6.943314,8.035848,-0.09437578,-0.4176889,1.519253,0.2862192,0.168984,1.449312,0.1175088,0.4477131,1.612908,-0.05219979,-0.3884324,1.475531,0.2707756,0.1255306,1.51945,0.1153814,-0.01038772,1.617238,0.1065627,-0.3377678,1.592451,-0.07022271,0.1672398,1.620504,0.01965291,-0.3294303,1.561012,-0.1093755,-0.07617186,1.615794,0.3704924,0.007894593,1.44215,NA,NA,NotTracked,Unknown,
0.4394531,-0.3354492,-0.06933594,-0.921875,0.3129883,-0.04541016,-7,1,4,9,2,0,0,14,-1,-1,-1,0,-1,-1,-2,-1,59,59,59,-10.5625,-10.5625,-10.5625,1.35314,3.22975,3.057072,7.816234,6.941749,8.033077,-0.09394722,-0.4156281,1.515962,0.2108256,0.2943856,1.479564,0.1197929,0.444779,1.609887,-0.05141508,-0.388004,1.47458,0.1756281,0.2847258,1.475642,0.1167902,-0.01024959,1.617626,0.1067382,-0.3376795,1.592594,-0.06892824,0.1677023,1.621496,0.01980518,-0.329289,1.561614,-0.1094899,-0.07512426,1.615884,0.3716055,0.02407678,1.426352,NA,NA,NotTracked,Unknown,
0.640625,-0.2084961,-0.34375,-0.9580078,0.2944336,-0.06542969,22,0,-3,-7,1,14,-6,-17,-1,0,-1,-1,-1,-2,-1,1,44.125,44.125,44.125,-12.125,-12.125,-12.125,1.23897,3.276263,3.24933,7.815895,6.948947,8.055324,-0.09384634,-0.4169743,1.516703,0.1509402,0.3619308,1.503094,0.1203264,0.4441656,1.609474,-0.05125829,-0.390255,1.474542,0.1370801,0.3212596,1.531,0.1169573,-0.01023284,1.617601,0.1067857,-0.3376831,1.592637,-0.0685241,0.1678888,1.622043,0.0198917,-0.3293442,1.562116,-0.1094847,-0.07492477,1.616009,0.3727989,0.02997864,1.422068,NA,NA,NotTracked,NotTracked,
0.7265625,-0.3242188,-0.4575195,-0.9682617,0.2978516,-0.07373047,-1,-3,-11,-9,-7,-3,-2,-9,-1,-2,-1,-1,0,0,-1,-1,-1.75,-1.75,-1.75,-11.125,-11.125,-11.125,1.159913,3.303447,3.351719,7.816888,6.952666,8.062845,-0.09364178,-0.4175534,1.517778,0.1512542,0.3576145,1.504775,0.1205033,0.4438863,1.609283,-0.05107981,-0.3909097,1.474807,0.0977906,0.342553,1.478364,0.1154838,-0.01034314,1.6186,0.1068159,-0.3377144,1.59267,-0.06828299,0.1680177,1.622816,0.01991712,-0.3294993,1.562516,-0.109508,-0.07492898,1.616155,0.3729691,0.0342963,1.418693,NA,NA,NotTracked,NotTracked,
0.8774414,-0.3920898,-0.3652344,-0.9487305,0.3183594,-0.08154297,-1,-5,-6,-42,-6,5,4,6,-1,0,0,-2,-1,-1,-1,-1,-12.1875,-12.1875,-12.1875,-11.5625,-11.5625,-11.5625,1.156184,3.291508,3.343042,7.803506,6.960258,8.067676,-0.09276626,-0.4173304,1.519062,0.1563794,0.353276,1.502241,0.1205368,0.4432946,1.609056,-0.04998073,-0.3919345,1.475164,0.1166469,0.4239623,1.467945,0.1144082,-0.01030153,1.619523,0.1068459,-0.3377681,1.592814,-0.06794094,0.1678772,1.62387,0.01994937,-0.3297339,1.563426,-0.1091976,-0.07459917,1.616879,0.3691514,0.04243611,1.409022,NA,NA,NotTracked,NotTracked,
0.8916016,-0.3896484,-0.2919922,-0.9145508,0.3691406,-0.06689453,12,12,3,2,-10,0,8,22,-2,-3,-1,-1,-1,-1,-2,-1,9.25,9.25,9.25,-7.9375,-7.9375,-7.9375,1.216811,3.274899,3.289979,7.78677,6.959531,8.059616,-0.09298522,-0.418319,1.52191,0.1567465,0.3549032,1.500777,0.1204578,0.4431763,1.609064,-0.05042266,-0.3821311,1.477845,0.1376103,0.399764,1.462852,0.1148428,-0.0102069,1.619554,0.1068797,-0.3377225,1.592943,-0.0676839,0.1678772,1.62492,0.019983,-0.3296621,1.563951,-0.109229,-0.07470341,1.617543,0.3684618,0.04406082,1.406368,NA,NA,NotTracked,NotTracked,
0.8725586,-0.4160156,-0.2167969,-0.9111328,0.3852539,-0.06201172,5,-1,-1,-6,-22,-9,-8,-3,-1,-1,-2,-1,0,-1,-2,0,-11.5625,-11.5625,-11.5625,-9.375,-9.375,-9.375,1.235967,3.2668,3.264651,7.779994,6.957505,8.058062,-0.09265522,-0.4181057,1.521652,0.1588298,0.35349,1.498336,0.1203039,0.4430974,1.609045,-0.051092,-0.3808971,1.478193,0.1169175,0.4237761,1.468273,0.1150978,-0.01016979,1.619542,0.1069207,-0.3377041,1.592992,-0.06757913,0.1677651,1.625291,0.02004052,-0.3296357,1.564222,-0.1092716,-0.07487857,1.618543,0.3677614,0.04683656,1.403642,NA,NA,NotTracked,NotTracked,
0.8198242,-0.4472656,-0.1669922,-0.9052734,0.3852539,-0.05761719,23,9,-1,-5,2,6,34,13,-2,1,-1,-1,-2,-2,-2,-1,4.6875,4.6875,4.6875,-8.5,-8.5,-8.5,1.249441,3.259366,3.261978,7.775724,6.95424,8.064759,-0.09820572,-0.3871532,1.535748,0.1580534,0.354391,1.500607,0.1202311,0.4429431,1.608932,-0.05709883,-0.3587601,1.4885,0.1244764,0.425973,1.469833,0.114047,-0.01010672,1.620379,0.1069537,-0.3376904,1.593093,-0.06747583,0.167625,1.626205,0.02004843,-0.32967,1.564669,-0.1091334,-0.07402143,1.619742,0.3674231,0.05039775,1.403235,NA,NA,NotTracked,NotTracked,
0.793457,-0.3779297,-0.2236328,-0.9428711,0.3676758,-0.04736328,-20,-11,-3,-10,-16,-14,-33,-13,0,0,-1,-2,-1,0,0,0,-6.9375,-6.9375,-6.9375,-5.9375,-5.9375,-5.9375,1.18619,3.259086,3.32883,7.779077,6.952181,8.076541,-0.09866703,-0.387657,1.535119,0.1592409,0.3516216,1.504731,0.1201018,0.4427748,1.608856,-0.05850014,-0.3778735,1.483861,0.191107,0.3374092,1.453071,0.114431,-0.0100704,1.620315,0.1069849,-0.3376356,1.593169,-0.06738319,0.167605,1.626513,0.02008209,-0.3295912,1.565065,-0.1091354,-0.07409826,1.620212,0.367029,0.05109251,1.40163,NA,NA,NotTracked,NotTracked,
0.8359375,-0.1064453,-0.565918,-0.9609375,0.3491211,-0.04150391,-8,4,-3,7,-1,-8,-10,2,-3,-1,-1,-1,-2,-2,-1,-2,-6.125,-6.125,-6.125,-2.0625,-2.0625,-2.0625,1.083147,3.267474,3.433386,7.78209,6.952229,8.081097,-0.09631564,-0.39083,1.532795,0.1998636,0.3102631,1.497774,0.1199861,0.4425959,1.608818,-0.05537361,-0.3687876,1.483852,0.187368,0.3376272,1.461883,0.1148592,-0.01003521,1.620107,0.1069503,-0.337622,1.593225,-0.06734279,0.1675012,1.626933,0.01997289,-0.3296435,1.565479,-0.1093572,-0.07412548,1.621033,0.3674755,0.0499117,1.403124,NA,NA,NotTracked,NotTracked,
0.9150391,-0.3261719,-0.3476563,-0.9541016,0.3457031,-0.05126953,6,2,-12,-4,-9,-4,-1,6,-2,-3,-2,-1,0,-2,1,-1,-17.3125,-17.3125,-17.3125,7.1875,7.1875,7.1875,1.069343,3.254605,3.425362,7.792137,6.951718,8.082745,-0.09652723,-0.3914482,1.532809,0.1727483,0.3520309,1.506793,0.119958,0.4424146,1.60872,-0.05528651,-0.3663781,1.484006,0.2083822,0.3447167,1.46468,0.1150616,-0.009954449,1.620078,0.1069316,-0.3375711,1.593367,-0.06724133,0.1673897,1.627293,0.0199233,-0.3296226,1.565911,-0.1093269,-0.07427257,1.621651,0.3674813,0.0490147,1.404103,NA,NA,NotTracked,NotTracked,
0.855957,-0.2763672,-0.309082,-0.9296875,0.3457031,-0.05712891,-32,-6,9,0,1,13,7,-8,-1,-2,-1,-1,-1,-2,0,0,13.8125,13.8125,13.8125,10.4375,10.4375,10.4375,1.12348,3.243739,3.375237,7.79726,6.951664,8.076674,-0.09654752,-0.3908716,1.533406,0.1744647,0.3526544,1.504596,0.1199128,0.4423258,1.608721,-0.05406582,-0.3617839,1.484282,0.2115048,0.350456,1.460945,0.1152831,-0.009884149,1.620046,0.106862,-0.3374486,1.593517,-0.06716103,0.1674277,1.627463,0.019799,-0.3295166,1.566272,-0.1096094,-0.0730527,1.622298,0.3673697,0.04842641,1.404523,NA,NA,NotTracked,NotTracked,
0.8623047,-0.3530273,-0.2285156,-0.9404297,0.3554688,-0.04882813,20,2,-1,5,2,-8,-7,-5,0,-1,-2,0,-2,1,0,-1,-17.75,-17.75,-17.75,10.5,10.5,10.5,1.127911,3.232047,3.357815,7.799442,6.951705,8.072961,-0.09654771,-0.3907856,1.533288,0.1745937,0.3526893,1.502236,0.1199066,0.4422523,1.608657,-0.0547349,-0.3554264,1.485129,0.2141353,0.3445002,1.453581,0.1155929,-0.009670247,1.619992,0.1068549,-0.3373192,1.59362,-0.06706462,0.167417,1.627619,0.01977784,-0.329353,1.566532,-0.1099255,-0.07225201,1.622745,0.3669425,0.05014243,1.402982,NA,NA,NotTracked,NotTracked,
0.8623047,-0.4624023,-0.1743164,-0.9306641,0.3544922,-0.05859375,-66,-14,-3,-11,-10,10,23,-24,-1,-2,-1,-2,-1,-1,-1,0,-10.8125,-10.8125,-10.8125,6.3125,6.3125,6.3125,1.129929,3.232275,3.353502,7.803038,6.950485,8.068069,-0.09680374,-0.3910803,1.533119,0.1744214,0.3529895,1.502455,0.1199206,0.442234,1.608648,-0.05535065,-0.3607585,1.484524,0.2079431,0.3495185,1.457821,0.1144626,-0.009623029,1.620713,0.1068567,-0.337313,1.593669,-0.06689654,0.167363,1.627647,0.01975028,-0.3293492,1.566652,-0.1098273,-0.07247251,1.622879,0.3657113,0.05252432,1.402959,NA,NA,NotTracked,NotTracked,
0.8540039,-0.2709961,-0.4145508,-0.9467773,0.3256836,-0.06542969,18,4,11,-61,-27,-2,-8,-3,-3,0,-1,-1,-1,-1,-1,-4,21.125,21.125,21.125,0.9375,0.9375,0.9375,1.107444,3.243357,3.400753,7.805659,6.950289,8.069409,-0.0961645,-0.390759,1.532699,0.1719928,0.3537683,1.505564,0.1199326,0.4421806,1.608667,-0.05518621,-0.3646409,1.484546,0.218576,0.3504827,1.464467,0.1136091,-0.009596523,1.621316,0.1068342,-0.3372955,1.593794,-0.06688382,0.1673758,1.627764,0.01968213,-0.3293483,1.566872,-0.1097928,-0.07269535,1.622998,0.3654215,0.05133777,1.403921,NA,NA,NotTracked,NotTracked,
0.8071289,-0.3359375,-0.4448242,-0.9453125,0.3139648,-0.08300781,5,4,-3,-4,-4,-8,-2,0,-1,0,-1,-1,-2,-2,0,-1,-28.0625,-28.0625,-28.0625,3.625,3.625,3.625,1.055517,3.24986,3.438976,7.81153,6.949976,8.071362,-0.09654013,-0.3909471,1.532219,0.1715177,0.3518821,1.506565,0.119958,0.4421372,1.608635,-0.05518453,-0.3655813,1.48404,0.1973799,0.3554098,1.466029,0.1130539,-0.009571686,1.621702,0.1068411,-0.3372891,1.59386,-0.06683112,0.1673616,1.627813,0.01965895,-0.3293495,1.566999,-0.1097153,-0.07283097,1.623031,0.3650622,0.05207515,1.40316,NA,NA,NotTracked,NotTracked,
0.809082,-0.3276367,-0.3671875,-0.9453125,0.309082,-0.08349609,5,0,-1,-4,-9,-13,-28,-9,-2,-1,-2,-1,1,0,-1,-2,-17.875,-17.875,-17.875,2.4375,2.4375,2.4375,1.053266,3.248263,3.431057,7.812794,6.949648,8.071115,-0.0970795,-0.3907852,1.532022,0.1589977,0.3611603,1.512123,0.1200248,0.4421143,1.608656,-0.05504967,-0.3618425,1.4845,0.09461126,0.3726144,1.462556,0.1139481,-0.009385266,1.621398,0.1068068,-0.3371986,1.59401,-0.06682834,0.1673709,1.627817,0.0196191,-0.3292296,1.567224,-0.1096824,-0.07303304,1.622938,0.3655287,0.04961185,1.401767,NA,NA,NotTracked,NotTracked,
0.809082,-0.3276367,-0.3671875,-0.9453125,0.309082,-0.08349609,5,0,-1,-4,-9,-13,-28,-9,-2,-1,-2,-1,1,0,-1,-2,-17.875,-17.875,-17.875,2.4375,2.4375,2.4375,1.053266,3.248263,3.431057,7.812794,6.949648,8.071115,-0.09629358,-0.3932847,1.530731,0.165155,0.3581868,1.507959,0.1200654,0.4420878,1.608673,-0.05459029,-0.3669659,1.483733,0.1022425,0.3690089,1.476,0.1133855,-0.009348816,1.621864,0.1068238,-0.3371682,1.594234,-0.06671391,0.1674244,1.627952,0.01962034,-0.3292042,1.567449,-0.1096151,-0.07294144,1.622969,0.3655903,0.05073933,1.402031,NA,NA,NotTracked,NotTracked,
0.9086914,-0.2143555,-0.3330078,-0.9335938,0.3125,-0.06982422,3,-1,-1,0,-6,-6,-6,-13,0,-1,-1,-1,-1,-1,-1,-1,-4.1875,-4.1875,-4.1875,5.5625,5.5625,5.5625,1.088401,3.244618,3.388366,7.819492,6.951987,8.070783,-0.09626912,-0.3938631,1.529472,0.180249,0.3468102,1.501045,0.1201848,0.4419799,1.60859,-0.05411261,-0.3632389,1.483607,0.1344995,0.3174001,1.5225,0.1142239,-0.009351648,1.621542,0.1068621,-0.3370979,1.594339,-0.06670277,0.1674295,1.627979,0.01965725,-0.3291074,1.567564,-0.1095276,-0.07306352,1.622892,0.3663722,0.04893611,1.402476,NA,NA,NotTracked,NotTracked,
0.8149414,-0.3496094,-0.2617188,-0.934082,0.3227539,-0.06542969,7,-1,0,6,-6,-1,-1,0,-1,-2,-2,-1,-1,-2,-1,-1,-18.6875,-18.6875,-18.6875,5.625,5.625,5.625,1.113692,3.240566,3.338637,7.824019,6.953587,8.072334,-0.09592861,-0.3935158,1.529467,0.1777646,0.3490414,1.501806,0.1203968,0.4418648,1.608457,-0.0548088,-0.3641655,1.484277,0.1466526,0.3198527,1.533043,0.1147472,-0.009295713,1.621376,0.1068285,-0.3369819,1.594546,-0.06667529,0.1674556,1.627982,0.0196231,-0.3289839,1.567778,-0.1095286,-0.07307354,1.622887,0.3670217,0.04748895,1.403875,NA,NA,NotTracked,NotTracked,
0.8662109,-0.2783203,-0.3232422,-0.9404297,0.3276367,-0.06103516,4,-1,-3,7,-2,-5,4,0,-1,-1,-1,-1,-2,-1,-1,-1,4.1875,4.1875,4.1875,0.6875,0.6875,0.6875,1.147189,3.243655,3.305366,7.831481,6.957016,8.078218,-0.09626503,-0.3942959,1.529946,0.1766016,0.3502673,1.500435,0.1205605,0.4417581,1.608261,-0.05483545,-0.3654423,1.483807,0.1413343,0.3263011,1.533,0.1151177,-0.009383047,1.621286,0.1068007,-0.3369621,1.594688,-0.06665469,0.1674569,1.627961,0.01957161,-0.3289473,1.567933,-0.1095559,-0.07325074,1.622809,0.3672704,0.04696198,1.40445,NA,NA,NotTracked,NotTracked,
0.8217773,-0.2226563,-0.3710938,-0.9458008,0.3286133,-0.05859375,-10,1,2,3,1,10,19,1,-2,-2,-1,0,-1,-1,-1,0,-6.875,-6.875,-6.875,0.625,0.625,0.625,1.1738,3.245234,3.267755,7.835297,6.960464,8.081999,-0.0967439,-0.3941187,1.53019,0.1722888,0.3521866,1.499301,0.1206866,0.4417646,1.608056,-0.05380241,-0.3725216,1.481169,0.1416207,0.3200527,1.528,0.115607,-0.009360248,1.621117,0.1068214,-0.3369419,1.594865,-0.06660892,0.167467,1.627933,0.01957154,-0.3289194,1.568019,-0.1095335,-0.07319909,1.622704,0.3676701,0.04623263,1.405308,NA,NA,NotTracked,NotTracked,
0.7495117,-0.159668,-0.390625,-0.9482422,0.3330078,-0.05810547,9,0,-1,-1,1,-3,-9,2,0,-3,-1,-1,-1,1,0,-2,-18.1875,-18.1875,-18.1875,0.625,0.625,0.625,1.242666,3.245365,3.16628,7.834947,6.962352,8.081457,-0.09689499,-0.3948371,1.530801,0.1654589,0.35919,1.495276,0.1208206,0.4417522,1.60775,-0.05473909,-0.3658215,1.483676,0.1443454,0.3289405,1.529875,0.1158935,-0.009469968,1.620957,0.1066929,-0.3370374,1.594983,-0.06658764,0.1674939,1.627862,0.01937923,-0.3289846,1.568069,-0.1099598,-0.07216863,1.622545,0.3692352,0.04548533,1.405811,NA,NA,NotTracked,NotTracked,
0.5776367,-0.09472656,-0.3193359,-0.9345703,0.3349609,-0.06298828,-3,1,-4,2,-2,-1,-4,-3,0,1,0,-1,0,0,0,-2,-29.625,-29.625,-29.625,0.875,0.875,0.875,1.407276,3.251348,2.943397,7.82636,6.964307,8.072862,-0.09658764,-0.3985614,1.530263,0.1597354,0.411402,1.492692,0.1209215,0.4418996,1.607404,-0.05472393,-0.3665259,1.483418,0.1780144,0.3956918,1.512344,0.1160679,-0.009468776,1.620921,0.1065856,-0.336975,1.595214,-0.06656054,0.167627,1.627823,0.01925338,-0.3288771,1.568261,-0.1099572,-0.0721554,1.622525,0.3693133,0.04540217,1.406003,NA,NA,NotTracked,Unknown,
0.5087891,-0.1259766,-0.2783203,-0.9453125,0.3383789,-0.07519531,-5,1,1,5,-1,-4,-4,0,0,0,-2,-1,-3,-2,-1,-1,-34.0625,-34.0625,-34.0625,-0.375,-0.375,-0.375,1.543645,3.267941,2.767456,7.824619,6.96435,8.071259,-0.09672958,-0.3981442,1.530267,0.2070728,0.3025563,1.446638,0.1208235,0.4424509,1.607167,-0.05464632,-0.3662821,1.483674,0.1725804,0.2835785,1.494222,0.1163133,-0.009424445,1.620851,0.1065495,-0.3369275,1.595414,-0.0665065,0.1676721,1.627668,0.01918405,-0.3288161,1.568351,-0.1104326,-0.07131616,1.622402,0.369278,0.04371149,1.407401,NA,NA,NotTracked,Unknown,
0.4282227,-0.1455078,-0.1660156,-0.9458008,0.3305664,-0.08300781,11,6,0,-3,-3,-1,-4,1,-1,-1,-1,0,-2,-1,-3,-1,-33.5,-33.5,-33.5,-7.1875,-7.1875,-7.1875,1.869968,3.352283,2.351091,7.823234,6.96511,8.075718,-0.09644052,-0.3978932,1.530151,0.2097802,0.2847571,1.420392,0.1201319,0.4439064,1.60759,-0.05445684,-0.3672824,1.48357,0.1950471,0.2470877,1.431912,0.1164421,-0.009298876,1.620843,0.1065785,-0.3368122,1.595685,-0.06650672,0.1676872,1.627619,0.01918094,-0.3287572,1.568435,-0.1104312,-0.07131516,1.62239,0.3677348,0.03722825,1.412273,NA,NA,NotTracked,Unknown,
0.3945313,-0.168457,-0.09960938,-0.9560547,0.3100586,-0.08496094,-9,-18,-6,-4,-3,-2,-1,-4,0,-2,0,-2,-1,0,-2,-1,-45.5,-45.5,-45.5,-9.8125,-9.8125,-9.8125,2.023048,3.425873,2.141443,7.823221,6.967313,8.086325,-0.09936586,-0.3806637,1.537129,0.2105807,0.263408,1.38622,0.1186327,0.4468855,1.609131,-0.05703064,-0.3506678,1.48925,0.1873076,0.2393438,1.3977,0.1164918,-0.009023993,1.620822,0.1066243,-0.3366593,1.596017,-0.06663075,0.1677244,1.627464,0.01918678,-0.3286578,1.568619,-0.1110602,-0.07041657,1.622278,0.3638738,0.02026088,1.427002,NA,NA,NotTracked,Unknown,
0.2939453,-0.3374023,-0.01513672,-0.934082,0.2988281,-0.078125,4,10,4,0,3,7,0,-1,-1,-2,-2,-1,-1,-2,0,-2,-72,-72,-72,-9.6875,-9.6875,-9.6875,2.239728,3.64846,1.778083,7.822626,6.969328,8.091299,-0.09920432,-0.3849674,1.536323,0.2080122,0.236738,1.34473,0.1166881,0.4502988,1.611741,-0.05619153,-0.3641183,1.486043,0.1821736,0.2181551,1.312667,0.1160071,-0.008820516,1.620677,0.1066756,-0.3363841,1.596426,-0.06721195,0.1678231,1.627425,0.0192635,-0.3284895,1.568851,-0.1109049,-0.0707729,1.622307,0.359187,0.007741734,1.439143,NA,NA,NotTracked,Unknown,
-0.02685547,-0.7319336,0.1411133,-0.9399414,0.3417969,-0.04882813,-15,0,-4,7,16,9,-2,-4,-1,-2,-1,0,-1,-1,-1,-1,-29.3125,-29.3125,-29.3125,1.4375,1.4375,1.4375,2.381844,4.16041,1.430655,7.826704,6.975629,8.098486,-0.09667046,-0.4119923,1.52736,0.2148792,0.1275475,1.270074,0.1147544,0.456037,1.618676,-0.05365223,-0.3912999,1.479525,0.1867462,0.1133729,1.24,0.1121039,-0.01045103,1.62005,0.105802,-0.3386646,1.597138,-0.06988292,0.1673792,1.626616,0.0186177,-0.3307379,1.568917,-0.1111012,-0.07502932,1.621991,0.3490137,-0.01343534,1.456926,NA,NA,NotTracked,Unknown,
0.01611328,-1.191406,0.2167969,-0.940918,0.3461914,-0.05566406,-41,-49,-7,-2,-2,6,6,5,-1,-2,-2,0,-1,1,-1,-2,-31.5625,-31.5625,-31.5625,-3.4375,-3.4375,-3.4375,2.398931,4.56335,1.322711,7.828397,6.97679,8.102399,-0.09774607,-0.4082607,1.530415,0.220323,0.05782587,1.241949,0.1139234,0.4601756,1.624066,-0.0536027,-0.4016919,1.4803,0.2042894,0.0350159,1.207667,0.111184,-0.01001535,1.620021,0.1056696,-0.3383907,1.597293,-0.0712321,0.1670649,1.626207,0.01861986,-0.3307101,1.568922,-0.1115271,-0.0766324,1.621923,0.3484199,-0.02290047,1.458372,NA,NA,NotTracked,Unknown,
0.0625,-0.8662109,0.06298828,-0.9487305,0.3256836,-0.05371094,36,14,8,-1,20,15,-4,-4,0,0,0,0,-2,-2,-1,-1,-6.125,-6.125,-6.125,-7.4375,-7.4375,-7.4375,2.407197,4.76361,1.271535,7.827274,6.978919,8.110054,-0.09816869,-0.4084792,1.530633,0.222579,-0.01646783,1.218623,0.1126444,0.4631758,1.627897,-0.05517956,-0.3703572,1.485462,0.2151978,-0.04755998,1.171875,0.1103004,-0.00956545,1.6198,0.1054794,-0.3381304,1.597447,-0.0723178,0.167192,1.62575,0.01857754,-0.330588,1.568903,-0.1116473,-0.07767729,1.621591,0.3663156,-0.01750161,1.50165,NA,NA,NotTracked,Unknown,
-0.6538086,-1.189453,0.1269531,-0.9418945,0.3198242,-0.05224609,37,11,-2,-3,8,3,5,-3,0,-2,-1,-2,0,0,0,-1,-61.1875,-61.1875,-61.1875,-4.5625,-4.5625,-4.5625,2.383527,5.345613,1.161958,7.822313,6.981382,8.112474,-0.09780432,-0.4091694,1.529891,0.2275859,-0.0863561,1.214467,0.1110852,0.4651115,1.631288,-0.05481527,-0.3768208,1.484251,0.2262456,-0.1216729,1.179143,0.1096251,-0.009227157,1.619625,0.1053877,-0.3379856,1.597541,-0.07338325,0.1671663,1.62552,0.01851469,-0.3304688,1.568734,-0.1123876,-0.08284701,1.621594,0.3939484,-0.03113882,1.481047,NA,NA,NotTracked,Unknown,
-0.71875,-1.344727,-0.005859375,-0.9506836,0.3383789,-0.04492188,12,3,10,4,-2,1,-4,-1,-1,-1,-2,-1,-1,-2,-2,-2,-85,-85,-85,-5.375,-5.375,-5.375,2.329316,5.516694,1.131493,7.817379,6.980749,8.112714,-0.09784141,-0.4119135,1.529651,0.2383783,-0.1560899,1.232455,0.1101322,0.4665395,1.633835,-0.05477953,-0.3786513,1.483833,0.2483287,-0.1925296,1.205778,0.1087522,-0.008812847,1.619229,0.1050868,-0.3377877,1.59749,-0.07445566,0.1673319,1.625173,0.01824474,-0.3301685,1.568286,-0.1129667,-0.08460162,1.62122,0.3821812,-0.03736992,1.50038,NA,NA,NotTracked,Closed,
-0.7617188,-1.492676,-0.01074219,-0.9570313,0.3061523,-0.06445313,2,17,-1,0,2,-7,-10,1,-1,-1,-1,0,-1,-3,0,-1,12.75,12.75,12.75,-9.8125,-9.8125,-9.8125,2.293136,5.833569,1.074263,7.815575,6.981962,8.122072,-0.09698589,-0.4126829,1.528477,0.2472631,-0.2130427,1.257729,0.1090309,0.4677808,1.635803,-0.05378947,-0.4045947,1.478844,0.2676502,-0.2203698,1.215,0.1076541,-0.008419043,1.618645,0.1042241,-0.3376136,1.597202,-0.07564624,0.1672032,1.624705,0.01735359,-0.3298473,1.567358,-0.1129931,-0.08458899,1.621165,0.3724175,-0.05193179,1.505387,NA,NA,NotTracked,Closed,
-0.9140625,-1.023926,-0.03027344,-0.9511719,0.3144531,-0.05859375,21,11,2,-1,-10,-6,2,-1,0,-2,-1,0,-1,-1,-2,0,21.625,21.625,21.625,0.6875,0.6875,0.6875,2.282338,6.110193,1.006953,7.816487,6.983325,8.125472,-0.09712443,-0.4156261,1.526993,0.2505833,-0.2663176,1.280375,0.1082025,0.4684921,1.637283,-0.0547308,-0.4004705,1.478676,0.2723456,-0.2666635,1.2285,0.1069745,-0.008257877,1.618167,0.1037434,-0.3375894,1.597086,-0.0765897,0.1669933,1.6242,0.01681821,-0.3297102,1.566866,-0.1127984,-0.08485685,1.620832,0.3634517,-0.06478049,1.521095,NA,NA,NotTracked,Closed,
