ALX,ALY,ALZ,ARX,ARY,ARZ,EMG0L,EMG1L,EMG2L,EMG3L,EMG4L,EMG5L,EMG6L,EMG7L,EMG0R,EMG1R,EMG2R,EMG3R,EMG4R,EMG5R,EMG6R,EMG7R,GLX,GLY,GLZ,GRX,GRY,GRZ,ORL,OPL,OYL,ORR,OPR,OYR,LHNX,LHNY,LHNZ,RHNX,RHNY,RHNZ,HX,HY,HZ,LTX,LTY,LTZ,RTX,RTY,RTZ,SpineMidX,SpineMidY,SpineMidZ,SpineBaseX,SpineBaseY,SpineBaseZ,ShoulderLeftX,ShoulderLeftY,ShoulderLeftZ,ShoulderRightX,ShoulderRightY,ShoulderRightZ,ElbowLeftX,ElbowLeftY,ElbowLeftZ,ElbowRightX,ElbowRightY,ElbowRightZ,Myo_Pose_left,Myo_Pose_Right,Kinect_pose_left,Kinect_pose_right
0.7021484,0.6987305,0.08642578,0.7753906,-0.7124023,-0.04785156,-4,-1,7,-5,-8,-5,7,7,-6,3,12,10,-7,-14,-11,24,43.75,43.75,43.75,-19.0625,-19.0625,-19.0625,7.381778,4.018398,8.369478,2.443108,3.882439,8.624228,-0.1219778,-0.3835282,1.10943,0.2197575,-0.3608896,1.076531,0.06257744,0.2535869,1.379805,-0.08530257,-0.3791589,1.078056,0.2458119,-0.3740965,1.053765,0.07155427,-0.1497201,1.362567,0.07209538,-0.4416425,1.350681,-0.08845573,0.02101981,1.333128,-0.00454966,-0.4303139,1.321609,-0.1426302,-0.1860916,1.311622,0.2915906,-0.1902332,1.30247,NA,NA,Closed,Closed,
0.7495117,0.6801758,0.02001953,0.8466797,-0.527832,-0.09033203,7,31,23,10,9,3,-12,7,-13,-26,-31,-3,-11,-11,-5,-3,47.3125,47.3125,47.3125,-26.5,-26.5,-26.5,7.465178,3.884501,8.329467,2.375801,3.752847,8.690293,-0.1246553,-0.3975906,1.120631,0.2221747,-0.377428,1.086254,0.06241744,0.253544,1.380453,-0.08785603,-0.3962549,1.099353,0.2311317,-0.3726624,1.048424,0.07140655,-0.150039,1.362861,0.0716029,-0.4424202,1.351079,-0.08856428,0.02014521,1.333085,-0.005039946,-0.4308548,1.32197,-0.1412676,-0.1876157,1.31008,0.2904176,-0.1906224,1.300758,NA,NA,Closed,Closed,
0.8813477,0.6396484,-0.02294922,0.9038086,-0.5166016,-0.1469727,-2,3,0,-2,-6,-1,5,11,9,4,-8,10,0,-12,-8,7,83.6875,83.6875,83.6875,-87.625,-87.625,-87.625,7.629323,3.684985,8.248202,2.242124,3.632345,8.758686,-0.1257633,-0.4107399,1.132129,0.2248805,-0.3930857,1.097429,0.06240476,0.2534702,1.380778,-0.09080594,-0.4122875,1.10225,0.2542463,-0.3965248,1.078708,0.07116196,-0.1504511,1.363132,0.0708554,-0.4435629,1.351501,-0.08861148,0.01952105,1.332829,-0.005733302,-0.4317038,1.32229,-0.1401163,-0.1893816,1.308107,0.2884257,-0.1910841,1.297475,NA,NA,Unknown,Closed,
0.8857422,0.6274414,-0.07568359,0.8256836,-0.6469727,-0.1621094,1,11,2,-1,-8,-4,-12,7,6,2,-5,-28,9,26,13,5,76.125,76.125,76.125,-79.8125,-79.8125,-79.8125,7.691669,3.619873,8.221314,2.093705,3.530358,8.825139,-0.1288533,-0.4218338,1.146782,0.2269412,-0.408406,1.110023,0.06237987,0.2534803,1.380981,-0.09244874,-0.4297376,1.1149,0.2253881,-0.4038015,1.065321,0.07102847,-0.1507887,1.363231,0.0704909,-0.4444654,1.351596,-0.08861006,0.0191145,1.332644,-0.006080783,-0.4324108,1.322336,-0.1393336,-0.1910877,1.306765,0.2863728,-0.1917118,1.294777,NA,NA,Unknown,Closed,
0.9462891,0.6245117,-0.1523438,0.890625,-0.7436523,-0.2075195,-2,-2,0,2,-5,-3,-6,-5,-12,8,-3,-8,-29,-24,2,-2,97.875,97.875,97.875,-22,-22,-22,7.883765,3.459969,8.143402,2.004152,3.465261,8.888062,-0.1350991,-0.4270723,1.183308,0.2345392,-0.4228022,1.142504,0.06248647,0.2534082,1.381223,-0.09698174,-0.4470268,1.166462,0.2441215,-0.4328641,1.0985,0.07080256,-0.1514369,1.363452,0.06985284,-0.4460069,1.351873,-0.08848248,0.01808356,1.33224,-0.006704068,-0.4336317,1.32254,-0.1377566,-0.1935846,1.306064,0.2833668,-0.1929749,1.292386,NA,NA,Unknown,Unknown,
0.8662109,0.7182617,-0.2314453,0.8618164,-0.7338867,-0.1689453,5,5,6,0,8,2,10,11,-27,-14,-20,-14,-16,-15,-4,-11,42.375,42.375,42.375,-8.875,-8.875,-8.875,7.966961,3.399378,8.128118,1.957586,3.417739,8.933299,-0.1361939,-0.4323191,1.195473,0.2360016,-0.4298536,1.155041,0.06250048,0.2534035,1.381228,-0.1002527,-0.4510853,1.169889,0.2619185,-0.4407623,1.128833,0.07077242,-0.151758,1.363482,0.06972701,-0.4465572,1.351908,-0.08849157,0.0177742,1.332129,-0.006816059,-0.4339989,1.32255,-0.1372021,-0.1964176,1.306206,0.2826588,-0.1933409,1.292309,NA,NA,Unknown,Unknown,
0.8432617,0.7504883,-0.2026367,0.7939453,-0.6206055,-0.1801758,-3,-6,-9,-2,12,9,8,5,-26,5,17,-5,-5,-12,-25,-24,15.8125,15.8125,15.8125,-3.1875,-3.1875,-3.1875,7.973433,3.365414,8.163271,1.9505,3.424324,8.943745,-0.1387051,-0.4381837,1.208815,0.2359898,-0.4367765,1.169306,0.06257289,0.2534041,1.381069,-0.1024041,-0.4598875,1.175769,0.2652493,-0.434455,1.15535,0.07069524,-0.1520524,1.363499,0.06950413,-0.4469698,1.352045,-0.08850221,0.01750377,1.331983,-0.007077275,-0.4342948,1.322689,-0.136768,-0.2000519,1.308626,0.2820987,-0.1939265,1.293632,NA,NA,Unknown,Closed,
0.7993164,0.652832,-0.15625,0.8056641,-0.5927734,-0.1459961,-1,-12,-12,-3,-2,-1,18,4,-17,-20,-15,30,-1,1,6,7,-12.75,-12.75,-12.75,-12,-12,-12,7.938968,3.367733,8.191139,1.924948,3.435197,8.959575,-0.1420448,-0.4365172,1.210666,0.2356207,-0.4368825,1.172738,0.06258904,0.2533988,1.38089,-0.1056257,-0.4585519,1.174492,0.2443967,-0.4499803,1.131696,0.07068857,-0.1521526,1.363489,0.06951487,-0.4470751,1.352069,-0.08849778,0.01748082,1.331926,-0.007090954,-0.4343847,1.322726,-0.1370447,-0.200864,1.309781,0.2819793,-0.1942149,1.29456,NA,NA,Unknown,Unknown,
0.7861328,0.6064453,-0.1376953,0.831543,-0.5664063,-0.1347656,5,-6,-20,-5,-6,-7,-10,-29,-13,-23,-37,22,7,11,12,0,-3.625,-3.625,-3.625,-4.5625,-4.5625,-4.5625,7.917109,3.376091,8.20749,1.919656,3.440046,8.964876,-0.1427216,-0.4371296,1.210641,0.2352713,-0.4371059,1.174458,0.06264634,0.2533261,1.380593,-0.1111889,-0.4385264,1.199044,0.2364024,-0.449376,1.12825,0.07059326,-0.1522773,1.363478,0.06920028,-0.4472861,1.352117,-0.08849794,0.01738425,1.331877,-0.007451311,-0.434558,1.32285,-0.1372558,-0.2010296,1.310473,0.2821212,-0.1944177,1.295573,NA,NA,Unknown,Unknown,
0.8139648,0.5498047,-0.1103516,0.8364258,-0.4912109,-0.137207,6,-10,-19,-8,-23,-12,-35,-15,-7,-8,-15,-3,2,8,-1,-1,5.1875,5.1875,5.1875,0.5625,0.5625,0.5625,7.909704,3.387543,8.216511,1.9178,3.448001,8.971209,-0.1448738,-0.4362046,1.209297,0.2351866,-0.4367951,1.17409,0.06274875,0.2532259,1.380254,-0.1278068,-0.3808467,1.217,0.2412828,-0.4488147,1.132127,0.0703829,-0.1524916,1.363481,0.06861169,-0.4476077,1.352282,-0.08844706,0.0173017,1.331803,-0.008113302,-0.4347886,1.323117,-0.1374115,-0.201318,1.310881,0.2823859,-0.1948055,1.296021,NA,NA,Unknown,Unknown,
0.8286133,0.5644531,-0.1064453,0.8515625,-0.4580078,-0.1416016,-13,-11,-6,-6,-9,-9,-13,-6,6,31,67,23,13,11,-5,-5,9.4375,9.4375,9.4375,2.1875,2.1875,2.1875,7.909011,3.393892,8.222209,1.920413,3.451645,8.972506,-0.1466172,-0.4346475,1.208262,0.2348955,-0.4356928,1.173598,0.06279891,0.2532582,1.380049,-0.1087788,-0.4578702,1.181917,0.2346768,-0.4467922,1.126619,0.07033879,-0.1525681,1.363483,0.06848014,-0.4476976,1.35233,-0.08843946,0.01728762,1.331781,-0.008260312,-0.4348797,1.323148,-0.1376843,-0.2017326,1.311437,0.2825117,-0.194863,1.296405,NA,NA,Unknown,Unknown,
0.8466797,0.4941406,-0.1015625,0.8476563,-0.440918,-0.1674805,2,15,8,2,-6,-12,-28,-13,22,12,6,-2,-14,-11,-4,-3,-9.1875,-9.1875,-9.1875,11.0625,11.0625,11.0625,7.876935,3.425014,8.242421,1.932123,3.445494,8.982214,-0.1475529,-0.43354,1.206227,0.233976,-0.4312353,1.168176,0.06300566,0.2531412,1.379603,-0.1183603,-0.4275692,1.194187,0.2599236,-0.4378908,1.14835,0.06996031,-0.1528541,1.363482,0.06733266,-0.448239,1.352482,-0.0884404,0.01707145,1.331706,-0.009472878,-0.4352497,1.323417,-0.138328,-0.2027287,1.311952,0.2826609,-0.1950715,1.296905,NA,NA,Unknown,Unknown,
0.8491211,0.4863281,-0.1049805,0.8334961,-0.4868164,-0.1704102,-2,-5,-2,-7,7,6,-7,-18,17,14,4,1,18,12,1,7,-10.5,-10.5,-10.5,1.9375,1.9375,1.9375,7.858716,3.431903,8.249318,1.931324,3.439215,8.986382,-0.1468434,-0.4337435,1.206043,0.2335407,-0.4292828,1.166878,0.0630184,0.2531482,1.379579,-0.1090277,-0.4578296,1.176273,0.2411161,-0.4419357,1.123682,0.06987102,-0.1528981,1.363474,0.06693996,-0.4482892,1.352454,-0.088452,0.01693446,1.331661,-0.009878626,-0.435255,1.323481,-0.1383855,-0.2027782,1.311974,0.2827037,-0.1950479,1.296959,NA,NA,Unknown,Unknown,
0.8383789,0.4912109,-0.1083984,0.8334961,-0.4941406,-0.1899414,15,4,1,-1,-7,4,-21,-8,-1,4,0,-16,-15,-20,3,5,-5.5,-5.5,-5.5,16.25,16.25,16.25,7.847218,3.4358,8.254818,1.945746,3.434362,8.986841,-0.1457218,-0.4349539,1.205913,0.2314627,-0.4285234,1.165714,0.06304728,0.2531424,1.379579,-0.117843,-0.4218398,1.211334,0.2387735,-0.4413566,1.122552,0.06981415,-0.1529643,1.363475,0.06684075,-0.44838,1.352434,-0.08844407,0.01666674,1.331602,-0.0100063,-0.4353529,1.323513,-0.1385269,-0.2031225,1.312206,0.282792,-0.1951192,1.297078,NA,NA,Unknown,Closed,
0.8427734,0.5102539,-0.1083984,0.8378906,-0.5229492,-0.1865234,-9,-10,-5,-3,-7,-14,-51,-22,-11,-1,8,0,3,6,3,11,-7.25,-7.25,-7.25,5.25,5.25,5.25,7.835338,3.435427,8.259961,1.94967,3.42707,8.99483,-0.1450271,-0.4354538,1.208879,0.2313926,-0.4277469,1.165216,0.06305939,0.2531835,1.379553,-0.1149301,-0.4295669,1.211348,0.2329595,-0.4400336,1.118945,0.0697272,-0.1529843,1.363456,0.06650223,-0.4484121,1.352324,-0.08843224,0.01656208,1.331565,-0.01037472,-0.4353089,1.323478,-0.1385972,-0.203718,1.312606,0.2828241,-0.1951804,1.297356,NA,NA,Unknown,Unknown,
0.8291016,0.5283203,-0.112793,0.8222656,-0.5073242,-0.1899414,0,-8,-4,2,5,4,17,19,1,0,2,0,12,15,6,-5,-4.4375,-4.4375,-4.4375,16.375,16.375,16.375,7.820873,3.433712,8.265938,1.957723,3.424535,9.004649,-0.1451607,-0.4360041,1.209658,0.2309358,-0.4272656,1.165372,0.06305386,0.2532087,1.379564,-0.1152543,-0.430572,1.202253,0.2375446,-0.4384293,1.122653,0.06962325,-0.1530329,1.363426,0.06629998,-0.448434,1.352218,-0.08844353,0.01653628,1.33156,-0.01056001,-0.4352883,1.323429,-0.1387051,-0.2039458,1.31284,0.2828927,-0.19517,1.297387,NA,NA,Unknown,Unknown,
0.8198242,0.5507813,-0.1074219,0.8432617,-0.4907227,-0.1748047,5,-1,-5,-4,1,-1,-1,10,-7,2,2,1,-1,-2,-3,-8,-6.1875,-6.1875,-6.1875,6.6875,6.6875,6.6875,7.816092,3.43329,8.267528,1.957031,3.421264,9.018614,-0.1447185,-0.4359786,1.210508,0.2309026,-0.4283328,1.166229,0.06301704,0.2532369,1.379595,-0.1149157,-0.4380096,1.183688,0.2320759,-0.4375284,1.119693,0.06951873,-0.1530789,1.363444,0.06608395,-0.4484593,1.35222,-0.08847409,0.01647088,1.331569,-0.01076376,-0.4352863,1.323479,-0.1387508,-0.204188,1.313048,0.2829798,-0.1951291,1.297564,NA,NA,Unknown,Unknown,
0.8193359,0.5390625,-0.1015625,0.8369141,-0.519043,-0.1635742,-9,-2,-3,1,-1,-5,-44,-40,1,6,4,-12,3,4,-1,-4,-5.5,-5.5,-5.5,11.5,11.5,11.5,7.808819,3.430773,8.267738,1.95965,3.420852,9.028537,-0.1456811,-0.436817,1.210646,0.2312394,-0.4279958,1.16575,0.06297097,0.2531969,1.379722,-0.1194302,-0.4253874,1.190857,0.2355705,-0.4380596,1.122567,0.06949899,-0.1531143,1.363439,0.06606957,-0.4484746,1.352206,-0.08848071,0.01644312,1.331564,-0.01078212,-0.4352881,1.32347,-0.13885,-0.2043729,1.31347,0.2830755,-0.1951259,1.297721,NA,NA,Unknown,Unknown,
0.8261719,0.5458984,-0.1000977,0.8378906,-0.4853516,-0.1694336,-2,-5,-3,0,-3,-3,-10,-12,4,0,-7,-2,-1,0,-3,0,-5.3125,-5.3125,-5.3125,11.3125,11.3125,11.3125,7.805714,3.427007,8.264998,1.963825,3.419093,9.041886,-0.1469283,-0.4370164,1.211288,0.230802,-0.4278108,1.16665,0.06289862,0.2532085,1.379767,-0.1139793,-0.4466907,1.180333,0.2357315,-0.4372678,1.12304,0.06921657,-0.1532364,1.363468,0.06557397,-0.4486011,1.35223,-0.08858835,0.01619925,1.331492,-0.01127296,-0.4353807,1.323559,-0.1389187,-0.2045725,1.314228,0.2832193,-0.1951766,1.297976,NA,NA,Unknown,Unknown,
0.8237305,0.5527344,-0.09472656,0.8344727,-0.5009766,-0.1542969,-2,0,-1,-1,-3,1,10,8,2,-1,-1,8,-4,-3,-2,-1,-8,-8,-8,8.4375,8.4375,8.4375,7.800693,3.426301,8.254579,1.968764,3.418281,9.04775,-0.1472266,-0.4376364,1.211832,0.2314507,-0.4276051,1.166929,0.06282496,0.2532251,1.37982,-0.1132801,-0.4486021,1.186846,0.2355208,-0.4365459,1.123654,0.06910376,-0.1532863,1.363449,0.06531414,-0.4486767,1.352193,-0.08865438,0.01612295,1.331485,-0.01154319,-0.4354948,1.323571,-0.1390395,-0.2048081,1.314636,0.2833377,-0.1951994,1.298094,NA,NA,Unknown,Unknown,
0.8178711,0.5375977,-0.09716797,0.8447266,-0.484375,-0.144043,1,-1,0,-2,2,-2,-6,-3,-4,-4,-3,0,-1,-4,-2,0,-9.8125,-9.8125,-9.8125,9.4375,9.4375,9.4375,7.798595,3.425824,8.25032,1.976121,3.416023,9.052395,-0.1468252,-0.4381694,1.210902,0.2322811,-0.4280481,1.166846,0.06270305,0.2531935,1.379808,-0.1162117,-0.4346084,1.227846,0.2375226,-0.4384762,1.12328,0.06908977,-0.1532574,1.363433,0.06524408,-0.4486645,1.352156,-0.08867502,0.01610282,1.331493,-0.0115943,-0.4354889,1.32356,-0.1390936,-0.2050232,1.31497,0.2834403,-0.1951347,1.298148,NA,NA,Unknown,Unknown,
0.8334961,0.5410156,-0.08203125,0.8261719,-0.4750977,-0.1635742,1,0,-1,-2,-4,-5,6,9,0,2,3,14,-2,-1,0,1,-11.4375,-11.4375,-11.4375,9.875,9.875,9.875,7.78439,3.421273,8.23489,1.987038,3.413269,9.05413,-0.1488378,-0.4377898,1.2151,0.2335708,-0.4288078,1.167845,0.06254765,0.2532179,1.379908,-0.1216175,-0.426502,1.208629,0.2347596,-0.4372655,1.122581,0.06889994,-0.1532704,1.363509,0.06502292,-0.4486409,1.35228,-0.08872699,0.01615755,1.33154,-0.01184826,-0.4354725,1.323855,-0.1395258,-0.2053148,1.315794,0.2835924,-0.1952206,1.298416,NA,NA,Unknown,Closed,
0.828125,0.5292969,-0.0859375,0.8413086,-0.5390625,-0.1445313,-3,-1,-2,-1,-1,-1,-10,-4,1,-3,-5,-12,-4,0,5,0,-24.0625,-24.0625,-24.0625,9.75,9.75,9.75,7.75951,3.419331,8.226506,1.996302,3.411687,9.057737,-0.1490834,-0.4389829,1.216787,0.2335569,-0.4295116,1.167502,0.06210509,0.2532266,1.380111,-0.1170809,-0.4337959,1.227167,0.2613144,-0.4374361,1.144222,0.06876762,-0.1532792,1.36358,0.06477418,-0.4486247,1.352393,-0.08883929,0.01613215,1.331643,-0.01209998,-0.43549,1.324002,-0.1401794,-0.2054599,1.317049,0.2838722,-0.1951472,1.299039,NA,NA,Unknown,Closed,
0.8300781,0.5244141,-0.07421875,0.8486328,-0.5053711,-0.1337891,0,-2,-1,-2,1,-2,2,3,-1,-3,-2,-4,-1,2,1,-1,-22.3125,-22.3125,-22.3125,13.625,13.625,13.625,7.748245,3.418435,8.224947,2.016148,3.412287,9.053565,-0.1487672,-0.4386379,1.217419,0.2335927,-0.4295577,1.16766,0.06207528,0.2532258,1.380157,-0.116009,-0.4370537,1.229563,0.2351977,-0.4347379,1.122433,0.06870586,-0.1533073,1.363589,0.06475054,-0.4486227,1.35239,-0.08888914,0.0161729,1.331715,-0.01211972,-0.4354772,1.324007,-0.140485,-0.2057539,1.317698,0.2839095,-0.1951429,1.299318,NA,NA,Unknown,Closed,
0.831543,0.5454102,-0.07373047,0.8432617,-0.5009766,-0.144043,9,0,-1,1,2,2,3,2,2,6,4,16,-1,2,-2,-2,-12.5,-12.5,-12.5,11.875,11.875,11.875,7.739755,3.420143,8.216544,2.025609,3.411989,9.050431,-0.1486146,-0.4401789,1.21731,0.2339705,-0.429889,1.167917,0.06193658,0.2531021,1.380319,-0.117616,-0.4350345,1.214494,0.2623535,-0.4372215,1.146765,0.06875088,-0.1533108,1.363588,0.06487953,-0.4487311,1.35232,-0.08894131,0.01613555,1.331756,-0.0119794,-0.4356008,1.323919,-0.1407751,-0.2060347,1.318223,0.2840913,-0.1951494,1.29981,NA,NA,Unknown,Closed,
0.8237305,0.5131836,-0.07373047,0.8320313,-0.5175781,-0.1303711,0,2,1,-2,1,-4,0,0,-1,-2,-1,6,0,2,1,0,-22,-22,-22,9.75,9.75,9.75,7.725339,3.419043,8.207067,2.044531,3.413477,9.04149,-0.1476596,-0.4384744,1.217202,0.2337195,-0.4291981,1.16644,0.06192732,0.2531122,1.380377,-0.1096688,-0.4495707,1.228769,0.2423045,-0.4391289,1.122667,0.06874951,-0.1533125,1.36359,0.06490785,-0.4487181,1.352304,-0.08901004,0.01610536,1.331759,-0.01195254,-0.4355978,1.323913,-0.1409749,-0.2060788,1.318763,0.2842659,-0.1951074,1.300004,NA,NA,Unknown,Closed,
0.8398438,0.5507813,-0.09130859,0.8481445,-0.4995117,-0.1362305,9,7,3,0,-3,0,1,2,-1,-2,0,3,1,0,-2,0,-20.1875,-20.1875,-20.1875,13.4375,13.4375,13.4375,7.720778,3.417531,8.186234,2.068662,3.415513,9.03047,-0.1468828,-0.439455,1.218074,0.2337958,-0.4297151,1.166448,0.06194155,0.2532043,1.380489,-0.1143605,-0.4347322,1.21569,0.24184,-0.437411,1.122393,0.06885916,-0.1531887,1.363575,0.06499418,-0.4486292,1.352251,-0.08900302,0.01624804,1.331788,-0.01186585,-0.4355151,1.323875,-0.1411805,-0.2061351,1.319394,0.284438,-0.1950611,1.300149,NA,NA,Unknown,Closed,
0.8320313,0.550293,-0.09033203,0.8354492,-0.4902344,-0.1362305,-4,1,-2,2,4,1,0,0,-1,0,-2,-8,-3,-3,-1,-2,-36.6875,-36.6875,-36.6875,8.75,8.75,8.75,7.708216,3.418833,8.159794,2.105125,3.414519,9.006647,-0.1459009,-0.4407448,1.218433,0.2341811,-0.4309903,1.167763,0.06195409,0.2532764,1.380627,-0.1108313,-0.4423314,1.224295,0.2468047,-0.439271,1.127806,0.06885921,-0.1531885,1.363575,0.06502011,-0.4486073,1.352234,-0.08900268,0.01625535,1.331788,-0.01185089,-0.4355106,1.32386,-0.1416037,-0.2061089,1.320162,0.2844766,-0.1950731,1.300367,NA,NA,Unknown,Closed,
0.8354492,0.5385742,-0.05908203,0.8466797,-0.4956055,-0.1235352,-2,-1,-1,0,-3,0,-1,0,1,3,0,1,-1,0,0,-2,-51.5,-51.5,-51.5,7.1875,7.1875,7.1875,7.678353,3.416062,8.132738,2.124878,3.413725,8.994244,-0.1435689,-0.4439599,1.22044,0.2360366,-0.4325693,1.167337,0.06200027,0.2534211,1.381125,-0.1027688,-0.4496848,1.220111,0.246651,-0.439588,1.126967,0.06883878,-0.1532053,1.363594,0.06513365,-0.4486139,1.35218,-0.08901287,0.01624801,1.331834,-0.01172108,-0.4355448,1.323837,-0.1425787,-0.2063156,1.322129,0.2851027,-0.195957,1.301735,NA,NA,Unknown,Closed,
0.8398438,0.5,-0.06005859,0.8295898,-0.5087891,-0.1132813,-2,-1,1,-3,-2,0,-1,-2,0,-4,-1,1,-2,0,-2,-1,-39.5,-39.5,-39.5,9.5,9.5,9.5,7.642692,3.407445,8.084132,2.143385,3.410938,8.988717,-0.1441555,-0.4453466,1.220571,0.237345,-0.434877,1.166974,0.06200231,0.2534846,1.381353,-0.1045592,-0.4475956,1.219846,0.2523345,-0.4431705,1.128883,0.06893696,-0.1531687,1.363592,0.06528112,-0.4486474,1.352126,-0.08902009,0.01624082,1.331877,-0.01156905,-0.4355915,1.32377,-0.1430759,-0.2064538,1.32297,0.285658,-0.1968321,1.302611,NA,NA,Unknown,Closed,
0.8417969,0.5341797,-0.05126953,0.8305664,-0.5087891,-0.1040039,0,-1,-1,-1,-3,1,0,-1,-1,-2,0,-5,-1,0,-1,0,-36.75,-36.75,-36.75,11.6875,11.6875,11.6875,7.632236,3.404009,8.048541,2.148083,3.408325,8.991029,-0.1453232,-0.4474214,1.222808,0.2419153,-0.4377906,1.166954,0.06208378,0.2535136,1.381901,-0.1062776,-0.4459824,1.214098,0.2568602,-0.4462398,1.126191,0.06917886,-0.1530835,1.363575,0.06566666,-0.448753,1.351981,-0.0890581,0.0162086,1.331933,-0.01116457,-0.4357223,1.323633,-0.144428,-0.2065537,1.325539,0.2865962,-0.1996629,1.304253,NA,NA,Unknown,Unknown,
0.8276367,0.5249023,-0.04785156,0.8276367,-0.5063477,-0.08154297,0,-2,-1,-1,-1,-2,-1,-1,0,3,0,-2,0,0,0,-1,-32,-32,-32,22.0625,22.0625,22.0625,7.62356,3.399181,8.01418,2.165802,3.397168,9.011104,-0.1461974,-0.4483438,1.225026,0.2453966,-0.4405852,1.167099,0.0621923,0.2535338,1.382106,-0.1061996,-0.4464774,1.219085,0.2496668,-0.4435714,1.123075,0.06935387,-0.1529902,1.363563,0.06585982,-0.4487241,1.351877,-0.08890878,0.01645764,1.331888,-0.01094232,-0.4357253,1.323507,-0.1451942,-0.2062892,1.327135,0.2870814,-0.2006116,1.304838,NA,NA,Unknown,Unknown,
0.8408203,0.5332031,-0.01660156,0.8359375,-0.4980469,-0.07373047,-1,-2,-2,-2,1,-2,-1,-3,0,2,2,-4,0,-1,-2,1,-19.6875,-19.6875,-19.6875,23.375,23.375,23.375,7.624522,3.393412,7.982217,2.169803,3.392338,9.022495,-0.1476775,-0.4482478,1.227799,0.2479223,-0.4426039,1.167922,0.06243882,0.2536177,1.38253,-0.1098291,-0.4456258,1.241853,0.247867,-0.4410173,1.122556,0.06943963,-0.1529871,1.363564,0.06621013,-0.4486598,1.351747,-0.08869241,0.01697854,1.331984,-0.01057078,-0.435732,1.323353,-0.1458928,-0.2064909,1.32825,0.2875243,-0.2017727,1.305537,NA,NA,Unknown,Unknown,
0.828125,0.5380859,-0.008300781,0.828125,-0.5009766,-0.05859375,-2,-1,0,0,0,-1,-2,0,-2,0,0,1,1,-1,0,-2,-19.625,-19.625,-19.625,31,31,31,7.627804,3.388351,7.951893,2.180691,3.382177,9.049671,-0.1485491,-0.4495447,1.230195,0.2513269,-0.4433648,1.168577,0.0624949,0.2536382,1.382914,-0.1103059,-0.4493141,1.241468,0.2593712,-0.4448478,1.124423,0.06949019,-0.1529782,1.363573,0.06664589,-0.4485979,1.351661,-0.08870035,0.01697773,1.331988,-0.01010975,-0.4357788,1.323204,-0.1464849,-0.2067525,1.329565,0.2880428,-0.2027687,1.306258,NA,NA,Unknown,Closed,
0.8237305,0.5258789,0.001953125,0.8286133,-0.5083008,-0.05712891,0,-2,0,-1,-1,-1,0,-2,-1,0,0,-2,0,-2,-2,-1,-24.125,-24.125,-24.125,36,36,36,7.630639,3.383013,7.916399,2.188938,3.374088,9.087497,-0.1496823,-0.4505668,1.232975,0.2550958,-0.4446149,1.169546,0.06253935,0.2536927,1.383236,-0.1152263,-0.4435326,1.253292,0.2545256,-0.4426658,1.125235,0.06954551,-0.1529815,1.363575,0.06704246,-0.4485424,1.351502,-0.08875994,0.01731685,1.332096,-0.00965052,-0.4358195,1.322912,-0.1469224,-0.2069942,1.330738,0.2886696,-0.2040999,1.307117,NA,NA,Unknown,Closed,
0.8300781,0.5229492,0.008300781,0.8276367,-0.565918,-0.01757813,-2,-2,-1,-1,-1,-1,-1,-1,0,0,-1,-2,-1,0,-2,-1,-28.1875,-28.1875,-28.1875,61.9375,61.9375,61.9375,7.630234,3.379961,7.897259,2.207845,3.371856,9.138144,-0.1515296,-0.4519271,1.234979,0.2584324,-0.4459622,1.171293,0.06283862,0.2538295,1.383737,-0.1156917,-0.4434713,1.250758,0.256318,-0.441967,1.126457,0.06985702,-0.1527781,1.363619,0.06762971,-0.448415,1.351431,-0.08875873,0.01733885,1.33213,-0.009039382,-0.4357561,1.32284,-0.1474293,-0.2071269,1.332147,0.2890704,-0.2051339,1.307721,NA,NA,Unknown,Closed,
0.8242188,0.472168,0.02685547,0.8222656,-0.5454102,-0.02734375,-1,-1,0,-2,-1,0,0,-1,0,1,-1,1,-1,-2,-1,0,-43.875,-43.875,-43.875,106.0625,106.0625,106.0625,7.610166,3.365144,7.839035,2.251644,3.364048,9.213455,-0.1547792,-0.4536197,1.236895,0.2660418,-0.4494015,1.173926,0.06305919,0.2543577,1.3847,-0.1238514,-0.4421052,1.263368,0.2648233,-0.4453333,1.129043,0.07022269,-0.1525622,1.363654,0.06838349,-0.4482681,1.351277,-0.0886401,0.0176833,1.332196,-0.008148763,-0.4358083,1.322545,-0.1478494,-0.2073641,1.333851,0.2897396,-0.2068516,1.308294,NA,NA,NotTracked,Unknown,
0.828125,0.4667969,-0.02685547,0.8540039,-0.4443359,-0.1005859,-1,-1,0,2,0,0,-1,-1,0,1,-2,-7,-2,-2,-3,-2,-30.4375,-30.4375,-30.4375,110.125,110.125,110.125,7.627416,3.334579,7.746665,2.328341,3.342135,9.351677,-0.1579464,-0.4572409,1.236831,0.2698975,-0.4519833,1.17556,0.06308188,0.2543187,1.385044,-0.1251866,-0.44978,1.257207,0.2702172,-0.4474466,1.13144,0.0703079,-0.1525814,1.363666,0.06868826,-0.4482994,1.35118,-0.08871186,0.01763498,1.332304,-0.007735346,-0.4359692,1.322348,-0.1476597,-0.2085004,1.33469,0.2898706,-0.2085096,1.308416,NA,NA,NotTracked,Unknown,
0.8364258,0.4804688,-0.06201172,0.9199219,-0.4575195,-0.07617188,-1,-2,-1,-3,-2,-1,0,-1,-1,-2,-5,-10,-2,1,-1,-2,-19.375,-19.375,-19.375,28.125,28.125,28.125,7.64621,3.321876,7.713431,2.326106,3.322645,9.454369,-0.1617408,-0.4607923,1.237871,0.2763138,-0.4579705,1.182399,0.06322634,0.254319,1.385938,-0.1324036,-0.450454,1.265428,0.2754649,-0.4571767,1.137273,0.07036556,-0.1526135,1.363696,0.06918496,-0.4484073,1.351033,-0.08864965,0.01767912,1.332387,-0.007086264,-0.4362751,1.322175,-0.1466932,-0.211808,1.336131,0.2897164,-0.2105865,1.308564,NA,NA,NotTracked,Unknown,
0.9052734,0.5,-0.08154297,0.8745117,-0.5097656,-0.06933594,-1,-3,0,-2,-1,-2,-2,-2,0,1,6,1,1,1,-1,1,0.125,0.125,0.125,3.5,3.5,3.5,7.723035,3.286187,7.617423,2.314917,3.322701,9.47625,-0.1616753,-0.4630878,1.237901,0.2791405,-0.4601227,1.186048,0.06314139,0.2544179,1.386424,-0.1209725,-0.4796794,1.221486,0.2754461,-0.4561403,1.141786,0.07042153,-0.1525953,1.363698,0.06945497,-0.448385,1.350928,-0.08863325,0.01771288,1.332435,-0.006745128,-0.4363075,1.322034,-0.1461645,-0.2130342,1.33676,0.289659,-0.2112534,1.308611,NA,NA,NotTracked,Unknown,
0.9008789,0.4770508,-0.09912109,0.8632813,-0.5009766,-0.04833984,-1,-2,0,-1,-1,-1,0,1,-8,-5,-2,-6,-2,-4,-2,-2,13.25,13.25,13.25,3.75,3.75,3.75,7.778605,3.270772,7.567136,2.31265,3.324789,9.481359,-0.1617975,-0.4623804,1.240114,0.2787278,-0.4626063,1.189158,0.06317263,0.2546277,1.386769,-0.1213253,-0.4788101,1.221711,0.2769919,-0.4623487,1.146214,0.07051698,-0.1525467,1.363733,0.06978375,-0.4483151,1.350899,-0.08863895,0.01768269,1.332507,-0.006391218,-0.4363308,1.322033,-0.1458252,-0.2138439,1.337183,0.289569,-0.2117127,1.308553,NA,NA,NotTracked,Unknown,
0.8969727,0.4975586,-0.1015625,0.831543,-0.4951172,-0.02880859,-1,-2,-1,-1,-2,0,0,1,-4,-16,-11,-2,-3,-1,-1,-1,17.25,17.25,17.25,7.75,7.75,7.75,7.803831,3.26751,7.550031,2.302475,3.330855,9.505701,-0.1625728,-0.4619161,1.241244,0.2815959,-0.4626282,1.191627,0.06312414,0.2547353,1.387108,-0.121082,-0.4790453,1.222428,0.2940741,-0.4655695,1.153424,0.07057175,-0.1525274,1.363733,0.06998535,-0.4482755,1.350816,-0.08865146,0.01771731,1.332614,-0.006182756,-0.4363277,1.321966,-0.1454026,-0.2147158,1.337717,0.289385,-0.2126433,1.308477,NA,NA,NotTracked,Unknown,
0.8798828,0.5009766,-0.08837891,0.8413086,-0.5009766,-0.04638672,-2,0,0,-1,-2,-1,-1,0,-3,-10,-12,0,-2,-1,-1,-1,4.75,4.75,4.75,10,10,10,7.835486,3.266804,7.524827,2.299851,3.332608,9.515491,-0.1640712,-0.4588322,1.244178,0.2856829,-0.4633536,1.194084,0.06305639,0.2548211,1.387658,-0.1204878,-0.48133,1.229021,0.2992559,-0.4716007,1.155046,0.07064593,-0.1524892,1.363737,0.07042948,-0.448121,1.350634,-0.08850258,0.01800081,1.332748,-0.005692526,-0.4362533,1.321738,-0.1450635,-0.215219,1.338521,0.2892708,-0.2141567,1.308242,NA,NA,NotTracked,Unknown,
0.8828125,0.46875,-0.05517578,0.871582,-0.4760742,-0.008789063,-1,0,-1,-2,-2,-1,-1,0,-3,0,1,1,0,0,-1,-2,-12.6875,-12.6875,-12.6875,8.6875,8.6875,8.6875,7.844511,3.267784,7.498446,2.300049,3.336039,9.52599,-0.1637668,-0.4579972,1.245894,0.2870638,-0.4644493,1.193196,0.06305276,0.2548431,1.387753,-0.121127,-0.4795532,1.225449,0.3222588,-0.4546247,1.1875,0.07082779,-0.1523673,1.363705,0.07055567,-0.4481065,1.350579,-0.08847202,0.01807115,1.332847,-0.005558423,-0.4362573,1.32167,-0.1449468,-0.2153877,1.338923,0.2893951,-0.2150078,1.308079,NA,NA,NotTracked,Unknown,
0.8881836,0.4360352,-0.08349609,0.8671875,-0.4467773,-0.02050781,-2,-1,-1,-1,-1,-2,-3,-3,-1,-3,8,4,1,2,1,1,-18.3125,-18.3125,-18.3125,17.9375,17.9375,17.9375,7.838476,3.270057,7.470235,2.315278,3.333842,9.537398,-0.1640317,-0.4572578,1.247561,0.2890325,-0.4643972,1.193745,0.06304951,0.254847,1.387883,-0.1279381,-0.4651416,1.26455,0.2771809,-0.5074512,1.214,0.07096966,-0.152299,1.363691,0.07077082,-0.4481012,1.350509,-0.08850315,0.01795724,1.332954,-0.005348981,-0.436276,1.321652,-0.1448523,-0.2158087,1.33934,0.2895574,-0.2157468,1.307947,NA,NA,NotTracked,Unknown,
0.8881836,0.434082,-0.08740234,0.8603516,-0.4482422,-0.05126953,-2,-1,-2,1,-1,0,0,0,1,3,4,5,0,-3,-1,1,-16.625,-16.625,-16.625,9.3125,9.3125,9.3125,7.836907,3.26951,7.461499,2.321613,3.328859,9.546227,-0.1631016,-0.4544186,1.252251,0.2898667,-0.4652242,1.192888,0.06295294,0.2550163,1.388251,-0.1164517,-0.4797243,1.235905,0.2724391,-0.5080515,1.203875,0.07144152,-0.1520872,1.363677,0.07134573,-0.448119,1.350368,-0.0884399,0.01802572,1.333067,-0.004774953,-0.4363892,1.321548,-0.1445849,-0.2160816,1.34001,0.2894463,-0.2166899,1.307774,NA,NA,NotTracked,Unknown,
0.8798828,0.4301758,-0.07910156,0.8515625,-0.5463867,-0.04833984,2,-1,0,-2,0,-2,-1,0,-7,-32,-16,2,-3,-1,-1,-2,-11.125,-11.125,-11.125,2.125,2.125,2.125,7.826655,3.266199,7.446189,2.322532,3.328709,9.549732,-0.1619511,-0.4531289,1.254629,0.2892509,-0.4659466,1.193248,0.06286648,0.2550983,1.388997,-0.1287332,-0.4640246,1.27131,0.3294133,-0.4565617,1.188875,0.07161705,-0.152066,1.363679,0.07219893,-0.4480872,1.350134,-0.08846967,0.01785715,1.333179,-0.003947416,-0.436424,1.321391,-0.1440675,-0.2166131,1.340626,0.2895503,-0.2174185,1.307647,NA,NA,NotTracked,Unknown,
0.8803711,0.4506836,-0.09228516,0.8720703,-0.5229492,-0.03320313,-1,-2,-1,-1,-1,-2,-1,-2,-2,-1,3,3,1,2,1,-2,-0.1875,-0.1875,-0.1875,-0.25,-0.25,-0.25,7.826113,3.262221,7.441345,2.331697,3.343633,9.543367,-0.1614098,-0.4530326,1.254992,0.2902748,-0.4645483,1.194239,0.06276029,0.2551996,1.389304,-0.1168174,-0.4754524,1.235917,0.2860452,-0.4607599,1.1505,0.07170317,-0.1520445,1.363679,0.07255997,-0.4480343,1.35004,-0.08846823,0.01783149,1.333233,-0.003597249,-0.4364057,1.321307,-0.1437823,-0.2166632,1.341033,0.2894795,-0.2177818,1.307592,NA,NA,NotTracked,Unknown,
0.8720703,0.4677734,-0.08740234,0.8603516,-0.4951172,-0.04638672,-2,-1,0,-1,-1,0,0,-1,0,5,1,1,-2,-3,-2,-1,-6.5,-6.5,-6.5,-5.875,-5.875,-5.875,7.82221,3.260459,7.440057,2.334979,3.352662,9.535344,-0.1610566,-0.4525234,1.2543,0.2889188,-0.4660055,1.194183,0.06261812,0.2554349,1.390037,-0.1156111,-0.4757755,1.23495,0.2858536,-0.4612375,1.150549,0.07200411,-0.1518856,1.363702,0.07288115,-0.4479437,1.349962,-0.08837391,0.01788635,1.333311,-0.003276427,-0.4363549,1.321238,-0.1436325,-0.2166491,1.341335,0.2895069,-0.2178422,1.30757,NA,NA,NotTracked,Unknown,
0.8642578,0.4599609,-0.09472656,0.8730469,-0.4907227,-0.03027344,1,-1,-1,0,0,-2,-1,0,6,30,10,2,-2,-1,0,-1,-9.5625,-9.5625,-9.5625,-6.875,-6.875,-6.875,7.817822,3.259334,7.439221,2.336214,3.361732,9.525111,-0.1618743,-0.4503965,1.253543,0.2891837,-0.465587,1.194622,0.06250498,0.2556077,1.390597,-0.1239873,-0.4613945,1.229141,0.2864133,-0.4609031,1.150366,0.07219879,-0.1517595,1.363687,0.0731483,-0.4478726,1.34982,-0.08835606,0.01784795,1.333325,-0.003035194,-0.4363429,1.321153,-0.1434378,-0.2165345,1.341435,0.2894829,-0.218191,1.307438,NA,NA,NotTracked,Unknown,
0.8549805,0.4462891,-0.08544922,0.8505859,-0.4667969,-0.03271484,0,-2,0,0,0,-1,0,-1,-10,14,0,-4,-5,-5,-3,-2,-7.375,-7.375,-7.375,-8.3125,-8.3125,-8.3125,7.806251,3.254796,7.436016,2.3376,3.363784,9.518469,-0.1617057,-0.4500218,1.253415,0.2907693,-0.4653663,1.195181,0.06211599,0.2558942,1.391544,-0.1318821,-0.4559302,1.27796,0.2861218,-0.4606665,1.151061,0.07232701,-0.1516319,1.363706,0.07326885,-0.4477796,1.349726,-0.08833511,0.01787865,1.333405,-0.002905001,-0.4362856,1.321064,-0.1433311,-0.2166681,1.341692,0.2895395,-0.2183472,1.307412,NA,NA,NotTracked,Unknown,
0.8837891,0.449707,-0.06982422,0.8198242,-0.4956055,-0.01611328,1,-2,-1,-1,-2,-2,1,1,1,-2,0,-1,-2,0,0,-1,-4.5625,-4.5625,-4.5625,-15.1875,-15.1875,-15.1875,7.803148,3.249922,7.433,2.329247,3.365322,9.502487,-0.1607696,-0.4493715,1.251792,0.2909076,-0.4667943,1.193961,0.06023528,0.2575091,1.396745,-0.1326899,-0.4437009,1.280333,0.311595,-0.4679516,1.157938,0.07287665,-0.1511363,1.363647,0.07404106,-0.4474495,1.349332,-0.08824861,0.01786983,1.333574,-0.002116521,-0.4361012,1.32077,-0.1428986,-0.2165309,1.342191,0.2898716,-0.2193017,1.307036,NA,NA,NotTracked,Unknown,
0.887207,0.4624023,-0.07275391,0.8134766,-0.5048828,-0.02294922,0,2,0,-1,0,-2,-2,-3,1,1,0,6,1,0,1,0,-5.1875,-5.1875,-5.1875,-15.625,-15.625,-15.625,7.802503,3.24738,7.429881,2.314272,3.360595,9.502656,-0.1602424,-0.4489925,1.25229,0.2915554,-0.4669795,1.195797,0.05859673,0.2592353,1.400916,-0.1172341,-0.4653551,1.261947,0.3336665,-0.4596444,1.1984,0.07311146,-0.1507994,1.363644,0.07449017,-0.4471197,1.349128,-0.08826228,0.01794371,1.333781,-0.001639927,-0.4358392,1.32066,-0.1427458,-0.2165065,1.342284,0.2900329,-0.2193942,1.306973,NA,NA,NotTracked,Unknown,
0.9345703,0.4448242,-0.06396484,0.8232422,-0.5073242,-0.03857422,2,0,-2,-1,-3,-1,0,-2,0,-1,-6,-1,0,-1,-3,-4,-0.9375,-0.9375,-0.9375,-18.75,-18.75,-18.75,7.806047,3.233348,7.416633,2.303458,3.358253,9.503667,-0.1595227,-0.4496096,1.252467,0.2911794,-0.4671923,1.195953,0.05701024,0.2606891,1.405654,-0.1174191,-0.4241811,1.28575,0.3026561,-0.4697613,1.155731,0.07329728,-0.1502113,1.363715,0.07483927,-0.4466892,1.348992,-0.08830988,0.01806286,1.334107,-0.00115,-0.4355292,1.321038,-0.142666,-0.2164581,1.342354,0.2902907,-0.2197923,1.306664,NA,NA,NotTracked,Unknown,
0.8730469,0.4433594,-0.07373047,0.9106445,-0.5180664,-0.06054688,-2,-1,-2,-2,-2,0,0,-2,11,17,7,3,0,0,2,2,13.1875,13.1875,13.1875,-19.5625,-19.5625,-19.5625,7.834996,3.223516,7.39979,2.277233,3.359011,9.49368,-0.1585101,-0.4469527,1.252753,0.2920365,-0.4681767,1.19621,0.05517391,0.2637371,1.416335,-0.121729,-0.4197027,1.288624,0.3029759,-0.4741865,1.154926,0.07349926,-0.1492908,1.363684,0.07513724,-0.4461237,1.348527,-0.08863154,0.01819771,1.335192,-0.0008104969,-0.4350971,1.321392,-0.1421663,-0.2164326,1.342137,0.29072,-0.2212403,1.305193,NA,NA,NotTracked,Closed,
0.8491211,0.4487305,-0.07226563,0.8754883,-0.5004883,-0.07373047,-2,-1,0,1,-1,-1,0,0,-3,5,4,5,-1,0,1,0,2,2,2,-9.625,-9.625,-9.625,7.852439,3.229236,7.393165,2.287163,3.374879,9.456151,-0.1572006,-0.4470465,1.250493,0.2909737,-0.4672679,1.193655,0.05590219,0.2642236,1.420608,-0.1135425,-0.4154194,1.284194,0.3019991,-0.474002,1.154055,0.07361218,-0.1486071,1.363718,0.07538297,-0.4454321,1.348177,-0.08855129,0.01827683,1.335452,-0.0004453929,-0.4345748,1.321669,-0.1418916,-0.2168011,1.341786,0.2910323,-0.2219238,1.304264,NA,NA,NotTracked,Closed,
0.8974609,0.4492188,-0.07080078,0.84375,-0.4731445,-0.08837891,0,-1,-2,0,-2,-1,-2,1,-2,-5,1,6,0,-1,-1,-1,-6,-6,-6,-2.9375,-2.9375,-2.9375,7.843455,3.236587,7.396618,2.308352,3.388551,9.424696,-0.1562082,-0.4455958,1.24849,0.2908252,-0.4668694,1.191455,0.06405668,0.2628998,1.424224,-0.1206838,-0.4227233,1.285212,0.3002307,-0.4737015,1.149167,0.07392319,-0.1477354,1.363893,0.07566749,-0.4450109,1.347744,-0.08833455,0.01917155,1.336594,-0.000104686,-0.4342567,1.321525,-0.1416498,-0.2176906,1.341446,0.2913541,-0.2226712,1.302557,NA,NA,NotTracked,Unknown,
0.909668,0.4453125,-0.07958984,0.8076172,-0.4946289,-0.07666016,-2,0,-2,-1,-1,-2,-1,-2,-2,-12,-13,-9,-2,-1,-2,-2,-8.25,-8.25,-8.25,0.5,0.5,0.5,7.835479,3.241158,7.400476,2.323801,3.398718,9.404675,-0.1557547,-0.4458973,1.247559,0.2899165,-0.4685656,1.188248,0.06721631,0.262917,1.424271,-0.1218967,-0.422837,1.285737,0.2987207,-0.4716625,1.144643,0.07529096,-0.1474376,1.369696,0.07786626,-0.4457266,1.367737,-0.08817408,0.02015573,1.33795,0.003366217,-0.4352539,1.343562,-0.1416164,-0.2178634,1.341465,0.2913419,-0.2231729,1.301397,NA,NA,NotTracked,Unknown,
0.9199219,0.4526367,-0.09814453,0.7924805,-0.5219727,-0.06396484,0,-1,-1,-2,-3,-3,-2,-1,-4,-18,-5,-1,0,1,-1,-1,-17.5625,-17.5625,-17.5625,3.625,3.625,3.625,7.787744,3.260118,7.426919,2.323885,3.402323,9.407861,-0.156938,-0.4436487,1.246845,0.2892799,-0.4680114,1.184476,0.07111014,0.2606198,1.424767,-0.1289973,-0.4307084,1.2752,0.3039516,-0.4739261,1.147478,0.07615129,-0.1506083,1.369414,0.07970814,-0.455351,1.360836,-0.08794744,0.01991997,1.339129,0.003967648,-0.4486246,1.334792,-0.1443248,-0.2281817,1.338851,0.2944564,-0.2387663,1.292373,NA,NA,Unknown,Unknown,
0.894043,0.4584961,-0.09375,0.828125,-0.5634766,-0.04589844,0,0,-2,-1,-1,0,-1,0,-9,7,5,0,-2,0,-3,-4,-23.6875,-23.6875,-23.6875,9.25,9.25,9.25,7.735427,3.274716,7.459233,2.305407,3.399241,9.445679,-0.1578316,-0.4440208,1.249319,0.2883654,-0.4663217,1.181149,0.07199384,0.2609689,1.424654,-0.1253562,-0.4389865,1.273333,0.2868298,-0.4671668,1.13475,0.07624154,-0.1501302,1.36858,0.07804297,-0.4515379,1.353182,-0.08809221,0.02027297,1.34013,0.002441214,-0.4429629,1.327678,-0.1440279,-0.2273601,1.339776,0.2934933,-0.2358716,1.292835,NA,NA,Unknown,Unknown,
0.8847656,0.4545898,-0.07666016,0.8344727,-0.5605469,-0.05126953,-2,-2,-2,-2,-2,-3,-1,1,0,9,2,-6,0,0,-1,0,-25.5,-25.5,-25.5,10.6875,10.6875,10.6875,7.706032,3.281619,7.477043,2.299061,3.398561,9.460809,-0.1590003,-0.4447336,1.250594,0.285078,-0.4653349,1.17391,0.07442202,0.2607182,1.424798,-0.124531,-0.4437424,1.266571,0.28524,-0.4586731,1.130393,0.07670029,-0.1507388,1.371132,0.07737248,-0.4521699,1.36125,-0.08950196,0.0223787,1.350838,0.00265042,-0.4482511,1.335597,-0.1446058,-0.2320066,1.339457,0.2943863,-0.2372013,1.291315,NA,NA,Unknown,Unknown,
0.8461914,0.4394531,-0.03759766,0.8486328,-0.5454102,-0.03027344,-3,-3,-1,-2,-1,-1,-2,-1,0,-12,-4,0,0,0,0,0,-16.5625,-16.5625,-16.5625,10.1875,10.1875,10.1875,7.632569,3.298198,7.520221,2.29104,3.398396,9.4852,-0.1603967,-0.4446858,1.252719,0.2861273,-0.4629469,1.173024,0.0749242,0.2615773,1.424805,-0.1255917,-0.447212,1.269765,0.2862167,-0.4595677,1.12736,0.07663298,-0.1503372,1.369596,0.07595166,-0.4485989,1.352168,-0.08980596,0.02284485,1.352313,0.001026723,-0.4417946,1.3275,-0.1437262,-0.2303641,1.340771,0.2932318,-0.2334808,1.29242,NA,NA,Unknown,Unknown,
0.8481445,0.4536133,-0.04003906,0.8505859,-0.515625,-0.01464844,-1,-1,-3,0,0,-1,1,-1,-1,4,-2,-2,-2,-4,-3,-1,-0.3125,-0.3125,-0.3125,10.875,10.875,10.875,7.618502,3.304252,7.528414,2.302913,3.402632,9.496634,-0.1618182,-0.4453681,1.252579,0.2832062,-0.4636748,1.169069,0.07557432,0.2626395,1.424261,-0.1232197,-0.4560998,1.229038,0.282824,-0.4560889,1.125193,0.07648883,-0.1493431,1.367554,0.07476323,-0.4463322,1.347139,-0.08990985,0.02314644,1.354209,-6.895402E-05,-0.4379642,1.323531,-0.1429366,-0.2286698,1.342854,0.2920696,-0.230673,1.292915,NA,NA,Unknown,Unknown,
0.8662109,0.4453125,-0.04785156,0.8266602,-0.5229492,-0.02197266,-1,-2,-1,-1,0,-1,0,-1,-3,1,2,1,-2,1,1,-3,4.4375,4.4375,4.4375,4.875,4.875,4.875,7.629347,3.301918,7.520807,2.320683,3.407162,9.491922,-0.1610743,-0.4443119,1.252851,0.2838291,-0.4647332,1.169157,0.07633553,0.2632652,1.423435,-0.1250905,-0.4307908,1.282667,0.2847461,-0.458738,1.125131,0.07648849,-0.149263,1.366769,0.07471681,-0.4460131,1.345566,-0.0899558,0.0232038,1.354806,-0.0001941551,-0.4370582,1.32154,-0.1430521,-0.2278727,1.343736,0.2916889,-0.2299874,1.292715,NA,NA,Unknown,Unknown,
0.871582,0.4541016,-0.04833984,0.8168945,-0.5327148,-0.03369141,0,-1,0,-1,0,0,-1,-1,-2,-5,-5,0,-2,0,-1,-1,4.5625,4.5625,4.5625,3.75,3.75,3.75,7.636762,3.299833,7.515224,2.324633,3.408911,9.490659,-0.1608842,-0.4447312,1.252243,0.2853013,-0.4640679,1.169078,0.07659198,0.2639202,1.422667,-0.1242536,-0.4311269,1.281981,0.2855232,-0.4574254,1.126342,0.07686187,-0.1490262,1.369696,0.07579282,-0.4451711,1.362319,-0.08997336,0.02331179,1.355492,0.001897577,-0.4350417,1.342042,-0.142909,-0.2275161,1.344144,0.2914501,-0.2292286,1.292541,NA,NA,Unknown,Unknown,
0.8818359,0.4707031,-0.04736328,0.8212891,-0.5390625,-0.03759766,-1,-2,-1,-1,-1,-1,-1,-2,6,22,7,6,0,-3,-2,-1,-3.4375,-3.4375,-3.4375,3.8125,3.8125,3.8125,7.645809,3.294938,7.50468,2.330551,3.412408,9.489502,-0.160583,-0.4450976,1.252128,0.2848506,-0.4647313,1.16832,0.07721607,0.2631691,1.422061,-0.1300513,-0.4209247,1.285231,0.2830252,-0.4682074,1.120278,0.07681832,-0.150212,1.369328,0.07584931,-0.4493816,1.358324,-0.08971807,0.02324172,1.356069,0.001775183,-0.4475591,1.332015,-0.1438064,-0.231828,1.343417,0.2937072,-0.2342886,1.289298,NA,NA,Unknown,Unknown,
0.8779297,0.4658203,-0.04882813,0.8237305,-0.5527344,-0.03955078,-3,-2,1,-1,-2,-1,-2,0,0,-5,-3,0,-1,1,0,0,-6.5,-6.5,-6.5,1.125,1.125,1.125,7.646929,3.291994,7.498519,2.332544,3.415332,9.490919,-0.1601358,-0.4453788,1.252401,0.2873793,-0.4645124,1.169577,0.07743323,0.2638272,1.420943,-0.1269495,-0.4277201,1.282952,0.2862218,-0.4608806,1.126492,0.07712963,-0.1498491,1.370941,0.07648519,-0.4475349,1.363308,-0.08970003,0.02330968,1.356334,0.00304501,-0.4406258,1.34238,-0.1435127,-0.2301595,1.344438,0.2930744,-0.2323737,1.289705,NA,NA,Unknown,Unknown,
0.8671875,0.4902344,-0.04980469,0.8364258,-0.5625,-0.04736328,1,0,0,-2,-2,-2,1,-3,-1,0,-6,1,-1,-1,-3,-1,-12.25,-12.25,-12.25,2.125,2.125,2.125,7.645099,3.286173,7.48097,2.332743,3.418771,9.493645,-0.1554278,-0.462559,1.248422,0.2852757,-0.4667576,1.169175,0.07844313,0.2623572,1.419529,-0.1150875,-0.4703175,1.229512,0.2861185,-0.4638324,1.124983,0.07706556,-0.1509765,1.370032,0.07618269,-0.4511786,1.357667,-0.08937807,0.0232764,1.356956,0.002305852,-0.4493996,1.331881,-0.1437954,-0.2329821,1.343781,0.2941627,-0.2355773,1.287984,NA,NA,Unknown,Unknown,
0.8671875,0.4902344,-0.04980469,0.8310547,-0.5605469,-0.03076172,-1,0,-1,0,-3,-1,0,-1,-10,-1,1,0,0,0,-2,-2,-12.25,-12.25,-12.25,2.4375,2.4375,2.4375,7.645099,3.286173,7.48097,2.334552,3.422639,9.495815,-0.1608297,-0.4457052,1.251758,0.2868114,-0.467723,1.170463,0.07868098,0.2626281,1.418968,-0.1225016,-0.4183052,1.284572,0.2957985,-0.4716009,1.12629,0.07689676,-0.1502275,1.36764,0.07504225,-0.4468009,1.34695,-0.08942968,0.02318749,1.357242,0.0007702682,-0.4408518,1.324181,-0.1433102,-0.2317497,1.344434,0.2938493,-0.2346199,1.288475,NA,NA,Unknown,Unknown,
