ALX,ALY,ALZ,ARX,ARY,ARZ,EMG0L,EMG1L,EMG2L,EMG3L,EMG4L,EMG5L,EMG6L,EMG7L,EMG0R,EMG1R,EMG2R,EMG3R,EMG4R,EMG5R,EMG6R,EMG7R,GLX,GLY,GLZ,GRX,GRY,GRZ,ORL,OPL,OYL,ORR,OPR,OYR,LHNX,LHNY,LHNZ,RHNX,RHNY,RHNZ,HX,HY,HZ,LTX,LTY,LTZ,RTX,RTY,RTZ,SpineMidX,SpineMidY,SpineMidZ,SpineBaseX,SpineBaseY,SpineBaseZ,ShoulderLeftX,ShoulderLeftY,ShoulderLeftZ,ShoulderRightX,ShoulderRightY,ShoulderRightZ,ElbowLeftX,ElbowLeftY,ElbowLeftZ,ElbowRightX,ElbowRightY,ElbowRightZ,Myo_Pose_left,Myo_Pose_Right,Kinect_pose_left,Kinect_pose_right
-0.4355469,0.8881836,-0.1386719,0.8950195,-0.3813477,-0.1054688,6,-1,-20,-10,-13,-3,-3,-10,0,-3,-6,-3,-1,1,0,-1,14.9375,14.9375,14.9375,16.6875,16.6875,16.6875,7.682797,5.823707,3.697963,1.904907,3.144635,0.6550245,-0.1463084,-0.4595598,1.279066,-0.01202959,0.03568394,1.25587,0.09817415,0.2639938,1.385423,-0.09821267,-0.4317771,1.27425,-0.04634723,0.01211435,1.232656,0.07271156,-0.1461241,1.368996,0.07196229,-0.4306319,1.357176,-0.06753722,0.02847398,1.317975,-0.001594759,-0.4201047,1.328387,-0.1416422,-0.2262615,1.330037,0.2208941,-0.1239041,1.154808,NA,NA,NotTracked,NotTracked,
-0.4985352,0.8896484,-0.140625,0.890625,-0.3984375,-0.07275391,-10,-10,-25,20,15,4,0,-5,-1,-1,1,1,-2,0,-2,0,9.0625,9.0625,9.0625,13.875,13.875,13.875,7.702357,5.823315,3.712256,1.910915,3.141961,0.6773451,-0.1462013,-0.4590093,1.279704,-0.01271829,0.03404637,1.257741,0.09815474,0.2640439,1.385526,-0.09866741,-0.4357717,1.272231,-0.04053333,0.01271768,1.231416,0.07272532,-0.145938,1.368909,0.07197029,-0.4305605,1.356984,-0.06752672,0.02851454,1.318117,-0.001596947,-0.4201067,1.328383,-0.1417225,-0.2263515,1.330085,0.2195452,-0.123802,1.154239,NA,NA,NotTracked,NotTracked,
-0.4985352,0.8896484,-0.140625,0.8964844,-0.3886719,-0.06103516,38,22,-3,16,9,17,4,4,2,-1,-3,-1,-2,-2,-3,0,9.0625,9.0625,9.0625,7.0625,7.0625,7.0625,7.702357,5.823315,3.712256,1.914065,3.141433,0.687454,-0.1472944,-0.4598064,1.282401,-0.009107935,0.03209503,1.2605,0.0981176,0.2642406,1.385817,-0.1065264,-0.4523792,1.280212,-0.06149903,0.01088999,1.251409,0.07270063,-0.14575,1.368935,0.07190452,-0.4305165,1.356971,-0.06752101,0.02869231,1.31854,-0.001699304,-0.4200895,1.328497,-0.1418841,-0.2265825,1.33033,0.2186841,-0.1237273,1.153942,NA,NA,NotTracked,NotTracked,
-0.4936523,0.8701172,-0.1391602,0.9282227,-0.3696289,-0.09326172,22,6,4,-11,-10,-8,-9,-8,-1,-2,-4,-2,0,1,-3,-2,-1.25,-1.25,-1.25,4.3125,4.3125,4.3125,7.734731,5.799601,3.744134,1.92197,3.14259,0.6872322,-0.1469678,-0.4616556,1.28083,-0.01313381,0.02814121,1.262247,0.09798438,0.2644171,1.386494,-0.09906343,-0.441424,1.271638,-0.07754478,-0.003360495,1.260036,0.07269498,-0.1454558,1.368888,0.07180594,-0.430382,1.356726,-0.06773695,0.0289362,1.319419,-0.001748913,-0.4200804,1.32852,-0.142147,-0.2265751,1.330526,0.2171576,-0.1234444,1.153083,NA,NA,NotTracked,NotTracked,
-0.4936523,0.8701172,-0.1391602,0.9057617,-0.3388672,-0.09472656,-3,-13,-3,-17,-11,-18,8,8,-2,-3,-1,-1,1,-1,-1,0,-1.25,-1.25,-1.25,-9.3125,-9.3125,-9.3125,7.734731,5.799601,3.744134,1.935548,3.142236,0.6665165,-0.1474064,-0.4615425,1.281097,-0.01442496,0.02554991,1.262995,0.0978139,0.2645731,1.387127,-0.09823871,-0.4336721,1.272517,-0.06932014,-0.007107138,1.256579,0.07266473,-0.1453009,1.368903,0.07174282,-0.4302809,1.356656,-0.06784534,0.02900186,1.319774,-0.001795079,-0.4200348,1.328562,-0.1422516,-0.2266735,1.33055,0.2164197,-0.1231195,1.152536,NA,NA,NotTracked,NotTracked,
-0.4648438,0.8442383,-0.2158203,0.9072266,-0.3759766,-0.09863281,5,-1,-22,39,24,-5,-2,0,0,-2,-3,-3,-2,-2,-1,0,-21,-21,-21,-16.0625,-16.0625,-16.0625,7.727529,5.782613,3.756222,1.943844,3.1449,0.6394117,-0.146446,-0.4613309,1.279825,-0.01375531,0.02439881,1.262336,0.09767414,0.2647542,1.38755,-0.0992783,-0.4377022,1.272925,-0.06931165,-0.007407173,1.25531,0.07265586,-0.1452312,1.368895,0.07171458,-0.4302646,1.356544,-0.06792293,0.02906509,1.320145,-0.001815418,-0.420035,1.328585,-0.1423382,-0.2266353,1.330526,0.2166467,-0.1238517,1.152006,NA,NA,NotTracked,NotTracked,
-0.4516602,0.8969727,-0.06689453,0.9213867,-0.3681641,-0.105957,77,16,10,17,2,1,-17,17,0,0,0,0,1,0,-2,-2,-2.875,-2.875,-2.875,-12.0625,-12.0625,-12.0625,7.692026,5.739428,3.759722,1.947122,3.14534,0.6288416,-0.1465458,-0.4612048,1.278932,-0.01289008,0.02404161,1.262877,0.09734552,0.2648915,1.388025,-0.1076039,-0.4558392,1.278643,-0.07265972,-0.01111481,1.259368,0.07268392,-0.1451735,1.368887,0.07176738,-0.4302498,1.356471,-0.06817672,0.02900465,1.320665,-0.001779033,-0.420072,1.328642,-0.1423606,-0.226636,1.330537,0.2163792,-0.1235636,1.151728,NA,NA,NotTracked,NotTracked,
-0.4370117,0.8793945,-0.1132813,0.902832,-0.3720703,-0.1123047,-24,4,-1,-30,1,28,16,-4,-2,-1,-2,-1,-3,0,0,-1,-0.375,-0.375,-0.375,-17.3125,-17.3125,-17.3125,7.703485,5.742843,3.757047,1.933681,3.145381,0.6150317,-0.1459249,-0.4609075,1.277906,-0.01590724,0.02605598,1.26402,0.09727356,0.2649707,1.38843,-0.09821086,-0.4330086,1.272595,-0.07944016,-0.008107244,1.26675,0.07269699,-0.1450024,1.36889,0.07177041,-0.4301492,1.356393,-0.06842505,0.02891597,1.321024,-0.00177936,-0.4200577,1.328666,-0.1423951,-0.2266064,1.330521,0.2141631,-0.1222888,1.150767,NA,NA,NotTracked,NotTracked,
-0.4155273,0.8813477,-0.08447266,0.9057617,-0.3588867,-0.1254883,32,-2,-10,-34,-31,-20,9,11,-3,-2,0,-1,1,-1,0,-1,-1.5,-1.5,-1.5,-7,-7,-7,7.700644,5.740903,3.755185,1.932051,3.147785,0.6049845,-0.1457238,-0.4610209,1.277349,-0.01583535,0.0267544,1.264002,0.09713282,0.2650654,1.388953,-0.09776799,-0.430113,1.271711,-0.0766473,-0.00602639,1.263318,0.07268771,-0.1449689,1.368884,0.07174054,-0.4301592,1.356302,-0.06842621,0.02894856,1.321152,-0.001805876,-0.4200784,1.328676,-0.1424258,-0.2265816,1.330467,0.2135459,-0.1225716,1.150401,NA,NA,NotTracked,NotTracked,
-0.4155273,0.8813477,-0.08447266,0.9057617,-0.3588867,-0.1254883,-11,-14,-14,40,21,8,-13,-11,-3,-2,0,-1,1,-1,0,-1,-1.5,-1.5,-1.5,-7,-7,-7,7.700644,5.740903,3.755185,1.932051,3.147785,0.6049845,-0.1459518,-0.4606636,1.276576,-0.01901454,0.02625849,1.264496,0.09696162,0.265204,1.389395,-0.09845499,-0.448269,1.270118,-0.07786781,-0.006388822,1.262802,0.07263088,-0.1448458,1.3689,0.07165515,-0.4300876,1.356232,-0.06859542,0.02887733,1.321419,-0.001881735,-0.4200534,1.328715,-0.1425941,-0.2264162,1.330282,0.2126966,-0.122331,1.150143,NA,NA,NotTracked,NotTracked,
-0.4135742,0.8725586,-0.08837891,0.909668,-0.3349609,-0.1318359,10,3,-35,-24,-16,-6,0,0,-1,0,-2,1,-2,-1,-1,0,3.875,3.875,3.875,-4.125,-4.125,-4.125,7.701007,5.740223,3.752834,1.932579,3.147688,0.5988755,-0.1453003,-0.4585532,1.276288,-0.01915195,0.02640679,1.26387,0.09665866,0.2652824,1.390057,-0.1004264,-0.4408575,1.273542,-0.07717102,-0.005964804,1.262583,0.07258969,-0.1447172,1.368913,0.07157267,-0.4299946,1.356158,-0.06865869,0.02892661,1.32157,-0.001956864,-0.420005,1.328731,-0.1426857,-0.2263366,1.330052,0.2120686,-0.1219658,1.149833,NA,NA,NotTracked,NotTracked,
-0.4135742,0.8725586,-0.08837891,0.902832,-0.3427734,-0.1435547,-13,-17,-23,-13,-2,2,1,-4,-4,-5,-2,-1,-1,-1,1,-1,3.875,3.875,3.875,-0.9375,-0.9375,-0.9375,7.701007,5.740223,3.752834,1.924752,3.146413,0.6032149,-0.1455653,-0.4591663,1.27657,-0.01913106,0.02631056,1.262748,0.09609558,0.2658906,1.391207,-0.09870122,-0.4404087,1.271667,-0.08095835,-0.006219208,1.267531,0.07250402,-0.1445452,1.368948,0.07149846,-0.4299306,1.356069,-0.06872126,0.02902507,1.321824,-0.002017322,-0.4199807,1.328728,-0.1428311,-0.2262494,1.329851,0.2120041,-0.1220969,1.149889,NA,NA,NotTracked,NotTracked,
-0.4262695,0.8759766,-0.109375,0.894043,-0.3657227,-0.1220703,-9,-2,11,-4,-5,-2,-4,-1,2,1,-1,0,-1,0,-1,-1,3.875,3.875,3.875,3.8125,3.8125,3.8125,7.706594,5.742551,3.74007,1.915755,3.143913,0.6159503,-0.1454307,-0.4588377,1.276479,-0.02097656,0.0287845,1.261614,0.09579553,0.2659594,1.39163,-0.09969586,-0.441114,1.272613,-0.08429533,-0.005462337,1.262121,0.07249475,-0.1444552,1.368949,0.07150998,-0.4298671,1.356001,-0.06870697,0.02903941,1.321829,-0.002008406,-0.4199606,1.328684,-0.1429381,-0.2261478,1.329744,0.2121567,-0.1219006,1.150186,NA,NA,NotTracked,NotTracked,
-0.4262695,0.8759766,-0.109375,0.9135742,-0.3769531,-0.09863281,13,8,11,-1,-2,-4,-2,-1,-1,1,4,0,-1,0,-1,0,3.875,3.875,3.875,3.9375,3.9375,3.9375,7.706594,5.742551,3.74007,1.91693,3.143987,0.62075,-0.1459869,-0.4605261,1.277666,-0.02190536,0.03269701,1.25378,0.09534413,0.2662639,1.392351,-0.09761076,-0.4375469,1.270919,-0.08923474,-0.0005707457,1.263333,0.07250029,-0.1443903,1.368961,0.07149994,-0.4298992,1.355919,-0.06841704,0.02924065,1.321506,-0.00207789,-0.4201224,1.328233,-0.1431059,-0.2261342,1.329669,0.2156949,-0.1236297,1.152798,NA,NA,NotTracked,NotTracked,
-0.4697266,0.8798828,-0.1333008,0.8901367,-0.3764648,-0.1083984,-9,-13,-9,-7,-4,-4,0,-4,-1,-1,-3,-4,-2,-1,-2,-1,7.5625,7.5625,7.5625,3.5,3.5,3.5,7.678874,5.797112,3.649793,1.923137,3.148401,0.6196431,-0.1462166,-0.4607861,1.278076,-0.0007649011,0.04595843,1.2407,0.09521204,0.2665273,1.392819,-0.09760331,-0.4303722,1.271919,-0.02612585,0.0349604,1.206039,0.07246137,-0.144344,1.368977,0.07145297,-0.42991,1.355883,-0.06779402,0.02969269,1.320626,-0.002211904,-0.4201831,1.327919,-0.1431792,-0.2260629,1.329684,0.2180772,-0.1243444,1.154724,NA,NA,NotTracked,NotTracked,
-0.2875977,0.8232422,-0.1826172,0.8994141,-0.3754883,-0.09960938,-8,-1,4,1,-13,-20,-3,-1,0,1,-1,0,0,-1,-1,-2,-27.3125,-27.3125,-27.3125,2.6875,2.6875,2.6875,7.565248,5.840238,3.42614,1.960631,3.163434,0.5831314,-0.1472407,-0.4598415,1.280112,0.009777432,0.02530308,1.2169,0.09507849,0.2666704,1.393328,-0.09871168,-0.4279093,1.274814,-0.01750474,0.03114182,1.172718,0.07244343,-0.1443691,1.36901,0.07133522,-0.4303085,1.355841,-0.06599154,0.03012627,1.317524,-0.002475471,-0.4206847,1.327382,-0.1435123,-0.225929,1.330287,0.2356295,-0.1353109,1.168793,NA,NA,NotTracked,Unknown,
-0.2875977,0.8232422,-0.1826172,0.8964844,-0.3774414,-0.1142578,2,1,-4,2,3,6,0,-1,0,1,0,0,0,-1,-1,0,-27.3125,-27.3125,-27.3125,7.6875,7.6875,7.6875,7.565248,5.840238,3.42614,1.974564,3.168776,0.5730076,-0.1473875,-0.4591242,1.27971,0.01547857,0.01358663,1.200258,0.09483262,0.266665,1.393705,-0.1076959,-0.466132,1.277254,-0.006043701,0.01836946,1.150265,0.07244204,-0.1443746,1.369039,0.07127976,-0.430415,1.355844,-0.0660023,0.03014569,1.317527,-0.002548396,-0.4208152,1.327407,-0.1439065,-0.225719,1.330832,0.2446797,-0.1380232,1.173931,NA,NA,NotTracked,Unknown,
-0.2392578,0.5180664,0.1108398,0.9013672,-0.3808594,-0.09667969,-22,-1,14,3,-5,-4,-2,-5,-1,-4,-5,-3,-2,-1,-2,-2,-16,-16,-16,22.3125,22.3125,22.3125,7.185414,5.672771,2.770313,2.031268,3.178854,0.5436132,-0.1485183,-0.4601852,1.279029,0.03271301,-0.01855075,1.140839,0.0933296,0.2662627,1.394715,-0.1034789,-0.4828531,1.274167,0.05092205,-0.008251009,1.10875,0.07235172,-0.1443084,1.369146,0.07092919,-0.4301955,1.355836,-0.07143904,0.03117262,1.323447,-0.002861673,-0.4205403,1.327489,-0.1446236,-0.2258415,1.331916,0.2701652,-0.1428299,1.187323,NA,NA,NotTracked,Unknown,
-0.1108398,0.5366211,0.2314453,0.9033203,-0.355957,-0.08642578,1,-5,-18,-3,-2,-1,-2,-1,0,0,1,-1,-1,0,0,0,-2.3125,-2.3125,-2.3125,18.6875,18.6875,18.6875,7.080571,5.505291,2.49486,2.07471,3.180493,0.5215044,-0.1486057,-0.4597499,1.278265,0.05777808,-0.05913147,1.115014,0.09200507,0.2660181,1.395239,-0.1001948,-0.455671,1.268722,0.01918466,-0.09031904,1.1355,0.07223941,-0.1441595,1.369306,0.07055344,-0.4294566,1.355939,-0.0735349,0.03052335,1.325793,-0.003092889,-0.4197394,1.327726,-0.1452566,-0.2264306,1.332653,0.297659,-0.1422858,1.199254,NA,NA,NotTracked,Unknown,
-0.1166992,0.6367188,0.3232422,0.8950195,-0.4125977,-0.0859375,-7,1,5,5,0,-2,2,0,-2,-3,0,-5,-1,0,-1,0,-26.4375,-26.4375,-26.4375,-6.4375,-6.4375,-6.4375,6.995674,5.26397,2.245733,2.089432,3.176954,0.5090508,-0.1485205,-0.4592249,1.279426,0.08450684,-0.1059857,1.096132,0.09095666,0.2657644,1.395708,-0.1008681,-0.4319471,1.27425,0.08229699,-0.06742668,1.1744,0.07217126,-0.1442239,1.369369,0.07053109,-0.4295684,1.355912,-0.07444692,0.0299407,1.327058,-0.003145382,-0.4198979,1.327458,-0.1462401,-0.2269949,1.333733,0.2875244,-0.1571488,1.215893,NA,NA,NotTracked,Unknown,
-0.1166992,0.6367188,0.3232422,0.8950195,-0.4125977,-0.0859375,2,-3,0,-4,-2,0,-1,2,-2,-3,0,-5,-1,0,-1,0,-26.4375,-26.4375,-26.4375,-6.4375,-6.4375,-6.4375,6.995674,5.26397,2.245733,2.089432,3.176954,0.5090508,-0.149347,-0.4601612,1.280387,0.09981662,-0.1597949,1.067829,0.09005444,0.2654203,1.395876,-0.1009995,-0.4390685,1.273678,0.049534,-0.1665832,1.1034,0.0714964,-0.1445521,1.369503,0.07030848,-0.4298791,1.355832,-0.07552829,0.02911069,1.328342,-0.003425713,-0.4202124,1.327582,-0.1470595,-0.2277182,1.334563,0.3050351,-0.162774,1.222445,NA,NA,NotTracked,Unknown,
0.1191406,0.8491211,0.5532227,0.8886719,-0.4472656,-0.06445313,-5,-13,-31,-9,-1,-8,-4,-4,-4,-3,-3,2,-1,-3,0,-1,-58.625,-58.625,-58.625,-7.6875,-7.6875,-7.6875,6.895951,4.798794,1.920774,2.084095,3.176346,0.5113785,-0.149387,-0.45933,1.280844,0.128226,-0.2171586,1.063551,0.08957924,0.2652113,1.395836,-0.1020212,-0.4309557,1.27547,0.08290559,-0.2332305,1.1166,0.07102282,-0.14461,1.369656,0.06972515,-0.4301588,1.35587,-0.07650295,0.02873386,1.329334,-0.003880111,-0.4204292,1.327537,-0.1474674,-0.2278629,1.33521,0.3131071,-0.1677664,1.228895,NA,NA,NotTracked,Unknown,
0.5327148,0.8310547,0.543457,0.8950195,-0.40625,-0.06835938,1,2,-6,5,-1,-3,1,0,0,-1,-2,1,0,0,1,0,-46.8125,-46.8125,-46.8125,-5.375,-5.375,-5.375,6.884953,4.483984,1.724497,2.067073,3.173687,0.526281,-0.1501769,-0.4590517,1.282677,0.1615756,-0.2727494,1.062977,0.08914737,0.2649814,1.395707,-0.1025634,-0.4328771,1.276458,0.1201992,-0.2882054,1.105667,0.06987207,-0.1452352,1.36948,0.06712229,-0.4322669,1.355005,-0.07751591,0.02846609,1.330217,-0.0066079,-0.4223941,1.326088,-0.1479873,-0.2282189,1.33646,0.3426171,-0.1565502,1.300887,NA,NA,NotTracked,Unknown,
0.6772461,1.017578,0.4589844,0.8901367,-0.4033203,-0.06542969,2,2,-5,-4,-3,1,0,0,-1,0,-1,-2,0,0,0,0,-45.8125,-45.8125,-45.8125,-11.3125,-11.3125,-11.3125,6.912136,4.191969,1.543095,2.049426,3.172897,0.5342605,-0.1511904,-0.4611071,1.284553,0.1887641,-0.319227,1.068264,0.0886833,0.264864,1.395541,-0.1004068,-0.4288728,1.276451,0.1474116,-0.3453929,1.08325,0.0688609,-0.1452837,1.369354,0.06535541,-0.4323287,1.354467,-0.0778583,0.02851251,1.330563,-0.008631201,-0.4217875,1.325544,-0.1488296,-0.2281419,1.337466,0.3361904,-0.1610758,1.295271,NA,NA,NotTracked,Unknown,
0.8652344,0.809082,0.5087891,0.8964844,-0.4145508,-0.06787109,0,-1,-4,1,1,-3,-2,-1,-1,-2,1,2,-1,-2,-2,-2,-46.75,-46.75,-46.75,-6.0625,-6.0625,-6.0625,6.951306,3.929547,1.3596,2.034521,3.173383,0.5422993,-0.15156,-0.4609088,1.284361,0.2102041,-0.3661163,1.074654,0.08831261,0.2647328,1.395041,-0.1011502,-0.4333847,1.275153,0.1875028,-0.4086661,1.092,0.06833469,-0.145627,1.369189,0.06465803,-0.433371,1.354089,-0.07811083,0.02852133,1.330691,-0.009513631,-0.4224531,1.325088,-0.1496555,-0.2283362,1.338074,0.28273,-0.1842169,1.303085,NA,NA,NotTracked,Unknown,
0.8730469,0.7416992,0.4033203,0.8896484,-0.3911133,-0.06494141,-2,0,1,1,-3,-2,-2,-2,1,-1,1,-4,-2,-1,-1,2,15.75,15.75,15.75,1.0625,1.0625,1.0625,7.087191,3.704044,1.156787,2.027354,3.172691,0.5530611,-0.15254,-0.469217,1.283234,0.2321,-0.3982135,1.096354,0.08800428,0.2646462,1.394481,-0.107661,-0.452884,1.279555,0.2245572,-0.4437774,1.120375,0.06813631,-0.1459693,1.369138,0.06483731,-0.4342634,1.354144,-0.07849091,0.02846,1.330933,-0.009478661,-0.4229656,1.324978,-0.1501556,-0.228201,1.338645,0.2837858,-0.1910712,1.302284,NA,NA,NotTracked,Unknown,
0.9995117,0.5976563,0.1123047,0.90625,-0.4018555,-0.06005859,0,-1,-1,-2,-3,-2,-1,-2,-1,-4,-4,0,-1,-1,-1,-2,70.8125,70.8125,70.8125,-6.0625,-6.0625,-6.0625,7.50563,3.426293,0.7406709,2.014001,3.172014,0.5633844,-0.1535959,-0.4683893,1.284083,0.2689229,-0.4509644,1.143486,0.08769874,0.2641788,1.393036,-0.1055039,-0.4450556,1.277857,0.2475479,-0.4702586,1.155619,0.06841139,-0.1467326,1.369133,0.06737826,-0.4368151,1.354711,-0.07883284,0.02834717,1.33113,-0.007299728,-0.4250818,1.325136,-0.150839,-0.2283815,1.339104,0.2872149,-0.2147766,1.300925,NA,NA,NotTracked,Unknown,
1.182129,0.5961914,-0.01806641,0.9267578,-0.4067383,-0.08056641,-2,-2,-2,-1,-2,-3,-2,-1,-8,-4,-3,-1,-2,-1,0,-4,70.1875,70.1875,70.1875,-2.4375,-2.4375,-2.4375,7.909471,3.309164,0.3617391,2.011726,3.175866,0.5629222,-0.1533268,-0.4684466,1.282778,0.2863943,-0.4667874,1.17053,0.08764258,0.2638755,1.391917,-0.1048641,-0.4447361,1.276969,0.2484299,-0.4675729,1.17575,0.06871934,-0.1470684,1.369082,0.06854864,-0.4376538,1.354828,-0.07925181,0.02814236,1.331342,-0.006160575,-0.4259067,1.325174,-0.1509702,-0.2285205,1.339144,0.2872256,-0.2185241,1.300443,NA,NA,NotTracked,Unknown,
1.182129,0.5961914,-0.01806641,0.9267578,-0.4067383,-0.08056641,-2,-2,-2,-1,-2,-3,-2,-1,-8,-4,-3,-1,-2,-1,0,-4,70.1875,70.1875,70.1875,-2.4375,-2.4375,-2.4375,7.909471,3.309164,0.3617391,2.011726,3.175866,0.5629222,-0.1528558,-0.4679933,1.281311,0.3006332,-0.4797567,1.196678,0.08759776,0.2634985,1.390369,-0.1063505,-0.4480279,1.27722,0.2622132,-0.4965319,1.177556,0.0690209,-0.1473878,1.369036,0.06992782,-0.4384053,1.354924,-0.07928772,0.02811144,1.331341,-0.004830272,-0.4266111,1.325113,-0.1510614,-0.2285414,1.339128,0.2873053,-0.2231748,1.300637,NA,NA,NotTracked,Unknown,
1.115723,0.6489258,-0.168457,0.9194336,-0.394043,-0.1157227,-2,0,-2,0,-1,-2,0,-1,-2,-2,-3,-1,-3,0,-2,0,30.8125,30.8125,30.8125,2.5625,2.5625,2.5625,8.256777,3.245976,0.02067855,2.024367,3.183284,0.5520889,-0.1523051,-0.4683272,1.279461,0.3102435,-0.4877613,1.219537,0.08750071,0.2631555,1.389014,-0.1062806,-0.4484789,1.276073,0.2725136,-0.4986713,1.212572,0.06922258,-0.1476336,1.368897,0.07064039,-0.4388417,1.354789,-0.07936101,0.02805167,1.331319,-0.004191617,-0.4269731,1.324951,-0.1510874,-0.2285097,1.339015,0.2878241,-0.2266089,1.302085,NA,NA,NotTracked,Unknown,
0.9897461,0.6279297,-0.2724609,0.8764648,-0.3891602,-0.1025391,0,0,0,0,1,-4,-1,-3,3,4,0,0,0,-2,-1,1,-30.5,-30.5,-30.5,11.4375,11.4375,11.4375,8.461944,3.212429,9.772932,2.073532,3.19821,0.5118316,-0.1513336,-0.4682846,1.277859,0.3170669,-0.4900751,1.238633,0.08761383,0.2629992,1.387486,-0.1062923,-0.4481853,1.276133,0.273139,-0.4869327,1.247755,0.06930738,-0.1480837,1.368768,0.07128629,-0.4392684,1.354672,-0.07956827,0.02770712,1.331275,-0.003575452,-0.4273885,1.324922,-0.1510942,-0.2284394,1.338903,0.288725,-0.2294314,1.304165,NA,NA,NotTracked,Unknown,
0.9819336,0.5620117,-0.2314453,0.8564453,-0.3798828,-0.09521484,1,-3,0,1,-2,1,-1,-3,5,5,-2,-1,-4,0,1,0,-55.375,-55.375,-55.375,10.125,10.125,10.125,8.45824,3.208503,9.740886,2.111437,3.207285,0.4845001,-0.1498455,-0.4677804,1.273129,0.3177146,-0.4878794,1.258358,0.0876912,0.2629377,1.38521,-0.1063001,-0.4469499,1.275894,0.2709367,-0.4885251,1.2594,0.06954528,-0.1485183,1.368546,0.07218906,-0.439718,1.354482,-0.07959817,0.02765525,1.331183,-0.002667003,-0.4278887,1.324716,-0.1509709,-0.2282294,1.338665,0.2913564,-0.232316,1.311813,NA,NA,NotTracked,NotTracked,
0.9428711,0.3779297,-0.07763672,0.8623047,-0.3930664,-0.07275391,0,-2,-2,-2,-2,-3,-2,-1,-1,-4,-5,-7,-1,1,0,0,-50.8125,-50.8125,-50.8125,1.5625,1.5625,1.5625,8.357224,3.193172,9.732908,2.122991,3.211485,0.4768319,-0.1494749,-0.4677618,1.271593,0.3169668,-0.4860738,1.259514,0.08770555,0.2627757,1.38397,-0.1057992,-0.4479899,1.273901,0.2600073,-0.4840394,1.234667,0.06987829,-0.1487358,1.368343,0.07284436,-0.4399801,1.354296,-0.07961918,0.02761398,1.331106,-0.001987276,-0.4282462,1.324424,-0.1509525,-0.2279949,1.338532,0.2926757,-0.2330913,1.315821,NA,NA,NotTracked,NotTracked,
0.8911133,0.4223633,-0.02734375,0.8950195,-0.3842773,-0.08740234,0,-1,1,1,-1,0,-2,-2,0,-2,-3,0,-2,-1,0,-1,-19.125,-19.125,-19.125,-4,-4,-4,8.259251,3.190586,9.802955,2.108983,3.207205,0.4900095,-0.1494555,-0.4680506,1.271124,0.3165239,-0.486543,1.258082,0.08792074,0.2626307,1.383067,-0.1056906,-0.4459763,1.275267,0.2755557,-0.4754771,1.272316,0.06995922,-0.1490132,1.368186,0.07311562,-0.4401357,1.354187,-0.07962307,0.02760032,1.33109,-0.001722277,-0.4284634,1.324298,-0.1508781,-0.2279512,1.33837,0.2947145,-0.2338495,1.319973,NA,NA,NotTracked,NotTracked,
0.8583984,0.4951172,-0.02978516,0.9116211,-0.4072266,-0.0859375,-2,-1,-1,-1,-2,-2,-2,0,-3,-3,-2,-1,0,0,-3,-2,-5,-5,-5,-12.625,-12.625,-12.625,8.1593,3.202471,9.898022,2.079118,3.198515,0.5096838,-0.1496267,-0.4682255,1.271933,0.3160334,-0.4842037,1.254837,0.0880292,0.2626424,1.38261,-0.1057965,-0.4457035,1.275975,0.2727205,-0.480429,1.264693,0.07014024,-0.1491356,1.368096,0.07338673,-0.4402364,1.354128,-0.07961503,0.02758406,1.331055,-0.001474191,-0.4285676,1.324229,-0.1507344,-0.2277349,1.338169,0.2957931,-0.2333478,1.323705,NA,NA,NotTracked,NotTracked,
0.8359375,0.5483398,-0.05908203,0.9125977,-0.4082031,-0.09570313,2,0,0,0,0,0,1,-1,-1,-1,1,3,0,0,-1,0,-13.375,-13.375,-13.375,-6.4375,-6.4375,-6.4375,8.06874,3.226862,9.980962,2.059924,3.19148,0.5216193,-0.1496517,-0.4688736,1.271535,0.3158838,-0.480167,1.243144,0.08826333,0.262481,1.381895,-0.1040394,-0.4392247,1.271581,0.2659171,-0.4730693,1.233667,0.07021391,-0.1494532,1.367927,0.07380134,-0.4404094,1.353947,-0.07960159,0.02756565,1.331009,-0.001028362,-0.4287725,1.323864,-0.1502776,-0.227938,1.337375,0.296722,-0.2331406,1.326599,NA,NA,NotTracked,NotTracked,
0.8842773,0.4580078,-0.07861328,0.9008789,-0.4160156,-0.1044922,1,-2,-3,-1,0,-3,-1,2,5,-1,-1,2,0,-1,2,0,-41.8125,-41.8125,-41.8125,-0.0625,-0.0625,-0.0625,7.935617,3.267688,0.06235554,2.055893,3.191521,0.523392,-0.1494327,-0.4685295,1.27083,0.3131229,-0.4789203,1.2365,0.08844864,0.2624511,1.381453,-0.1032855,-0.442276,1.270565,0.2618054,-0.4732068,1.219667,0.07028294,-0.1495976,1.3678,0.07409586,-0.4404863,1.353743,-0.07956935,0.02756148,1.330948,-0.0007070439,-0.4288419,1.323545,-0.1499176,-0.2278733,1.336707,0.2968412,-0.233165,1.326702,NA,NA,NotTracked,NotTracked,
0.8842773,0.4580078,-0.07861328,0.9008789,-0.4160156,-0.1044922,1,-2,-3,-1,0,-3,-1,2,5,-1,-1,2,0,-1,2,0,-41.8125,-41.8125,-41.8125,-0.0625,-0.0625,-0.0625,7.935617,3.267688,0.06235554,2.055893,3.191521,0.523392,-0.1485231,-0.4687142,1.270971,0.3116875,-0.4771629,1.229834,0.08864745,0.2623811,1.381206,-0.1065031,-0.4471496,1.273494,0.2779901,-0.4694783,1.269,0.07036878,-0.1497377,1.367683,0.07438502,-0.4405435,1.353567,-0.07951535,0.02750634,1.330875,-0.0004225736,-0.4288862,1.32338,-0.1496504,-0.2280631,1.336331,0.2968413,-0.2331652,1.326701,NA,NA,NotTracked,NotTracked,
0.9248047,0.4223633,-0.1054688,0.8925781,-0.4042969,-0.08642578,-2,-3,0,-1,-2,-2,-1,-2,3,5,0,0,2,2,2,-1,-41.25,-41.25,-41.25,5.5625,5.5625,5.5625,7.826519,3.296548,0.1080506,2.070463,3.196243,0.5136025,-0.1488845,-0.4681943,1.270318,0.3088085,-0.476485,1.223477,0.08883431,0.2623561,1.381041,-0.1053955,-0.4452974,1.273854,0.2729428,-0.4757952,1.258727,0.07047807,-0.1498518,1.367609,0.0747851,-0.4405603,1.353431,-0.07951035,0.02750066,1.330867,1.538784E-05,-0.4288912,1.323146,-0.1495274,-0.2279514,1.336061,0.2966111,-0.2330853,1.326434,NA,NA,NotTracked,NotTracked,
0.9208984,0.4511719,-0.1064453,0.894043,-0.3925781,-0.1000977,0,0,-2,-1,-1,0,0,-2,-2,-1,9,1,-1,0,0,-1,-53.4375,-53.4375,-53.4375,6.75,6.75,6.75,7.788433,3.308527,0.1181477,2.081097,3.200151,0.5094054,-0.1484163,-0.4673277,1.269703,0.3078716,-0.4743097,1.21703,0.08888789,0.2623273,1.381015,-0.1054167,-0.4458283,1.273598,0.2732111,-0.4681613,1.253633,0.07071387,-0.1498772,1.36745,0.07505474,-0.4405819,1.353199,-0.07950903,0.02749847,1.330861,0.0003008335,-0.4289236,1.322818,-0.1493783,-0.2278512,1.335819,0.2960972,-0.2326263,1.325576,NA,NA,NotTracked,NotTracked,
0.9101563,0.4453125,-0.1230469,0.8989258,-0.3842773,-0.09619141,-2,-2,-2,-2,0,-1,-1,-1,-10,-7,-5,-2,-1,-1,-3,-2,-66,-66,-66,12.125,12.125,12.125,7.744838,3.318459,0.1271729,2.098217,3.203387,0.5042152,-0.1484712,-0.4680812,1.269504,0.3052805,-0.4723383,1.211377,0.08901019,0.2623104,1.380922,-0.105441,-0.4454145,1.274256,0.2713424,-0.4695632,1.251341,0.07086667,-0.1499356,1.367389,0.07527009,-0.4407151,1.353077,-0.07953782,0.02746966,1.33086,0.0005035017,-0.4290825,1.322681,-0.1492761,-0.2278676,1.335716,0.2954147,-0.2322988,1.324669,NA,NA,NotTracked,NotTracked,
0.8691406,0.3852539,-0.1088867,0.8989258,-0.3803711,-0.09033203,0,-1,-2,-2,-2,-1,0,-3,-2,-1,0,1,-2,2,-1,-3,-25.5625,-25.5625,-25.5625,11.625,11.625,11.625,7.644287,3.330658,0.1606187,2.107114,3.204245,0.5018213,-0.1475616,-0.4679061,1.268955,0.3042379,-0.4672304,1.205589,0.08912727,0.2622648,1.380865,-0.105289,-0.4457983,1.27353,0.2706524,-0.4791402,1.230667,0.07094538,-0.1500436,1.367276,0.07553454,-0.4407613,1.352878,-0.07953977,0.02745571,1.330868,0.0007296682,-0.4291189,1.32252,-0.1490713,-0.2278516,1.335503,0.2945891,-0.2321071,1.323214,NA,NA,NotTracked,Unknown,
0.8491211,0.4257813,-0.09570313,0.8930664,-0.390625,-0.09716797,-2,2,1,-3,1,-4,-3,-2,0,-2,-3,-4,0,-1,-1,0,6,6,6,9.5,9.5,9.5,7.626913,3.339467,0.1826359,2.119958,3.205066,0.4998881,-0.1479935,-0.4671861,1.268743,0.3034509,-0.4668456,1.203347,0.08921327,0.2621923,1.380862,-0.1052705,-0.4449087,1.274321,0.2798025,-0.5062401,1.213455,0.07109127,-0.1502195,1.367218,0.0758553,-0.4409203,1.352723,-0.07953875,0.02745015,1.330874,0.001023676,-0.429334,1.322393,-0.1489478,-0.2278478,1.335472,0.2939708,-0.2317562,1.322194,NA,NA,NotTracked,Unknown,
0.8237305,0.4448242,-0.09082031,0.887207,-0.4155273,-0.09472656,1,1,-2,-3,-1,1,0,0,1,0,0,-3,-1,0,-2,-1,23.875,23.875,23.875,14.5,14.5,14.5,7.641584,3.34244,0.1945952,2.119126,3.205637,0.5236869,-0.1478544,-0.4673288,1.270123,0.3013014,-0.4681425,1.199788,0.08944622,0.2620496,1.380786,-0.1053242,-0.4456742,1.274074,0.2662677,-0.4726127,1.228875,0.071182,-0.1502404,1.367183,0.07598121,-0.4409835,1.352659,-0.07953782,0.02744944,1.330891,0.001138013,-0.4294094,1.322319,-0.1488967,-0.227777,1.335488,0.2931708,-0.231361,1.321123,NA,NA,NotTracked,Unknown,
0.8349609,0.4453125,-0.05957031,0.8896484,-0.4174805,-0.08447266,-1,0,0,-1,5,-1,-2,-1,0,-5,-2,-4,-3,-1,-2,-3,20.6875,20.6875,20.6875,9.8125,9.8125,9.8125,7.69438,3.33121,0.1775297,2.112986,3.206328,0.5456259,-0.1489473,-0.4673807,1.272297,0.3016479,-0.4696798,1.199228,0.08982225,0.2618465,1.380728,-0.1140673,-0.4424131,1.281448,0.2694958,-0.4785969,1.2248,0.07131711,-0.1503265,1.367086,0.07622834,-0.4410488,1.352435,-0.07952673,0.02745294,1.330914,0.001352714,-0.429473,1.322118,-0.1487094,-0.2278743,1.335784,0.2924838,-0.2312251,1.319239,NA,NA,NotTracked,Unknown,
0.8413086,0.4228516,-0.06738281,0.8945313,-0.4331055,-0.05371094,-1,-1,0,0,-1,0,-1,0,6,3,-4,1,0,0,-1,2,23.125,23.125,23.125,5.5,5.5,5.5,7.719734,3.32248,0.1630852,2.107893,3.209011,0.5603729,-0.1496597,-0.4670886,1.274029,0.3027312,-0.4708822,1.201037,0.08987823,0.2618015,1.38073,-0.1069541,-0.4467258,1.275178,0.2698607,-0.4722396,1.223218,0.07147203,-0.1503623,1.367004,0.07636517,-0.4411057,1.352285,-0.07953889,0.02743811,1.330956,0.001476355,-0.4295102,1.321989,-0.1486386,-0.2280879,1.336027,0.2924447,-0.2311337,1.318408,NA,NA,NotTracked,Unknown,
0.9038086,0.4018555,-0.05664063,0.8867188,-0.4233398,-0.06201172,-1,0,-2,-4,-4,-1,-1,0,0,9,-1,-4,-2,-2,1,-1,44.625,44.625,44.625,2.9375,2.9375,2.9375,7.825553,3.286818,0.1117465,2.104601,3.211241,0.5761236,-0.1507444,-0.4671599,1.27557,0.3051445,-0.473269,1.206288,0.09002592,0.2617264,1.380735,-0.1128988,-0.4461305,1.280835,0.2705601,-0.4727755,1.234182,0.07162141,-0.1504117,1.366889,0.07643995,-0.4411841,1.352112,-0.07953355,0.02741964,1.330988,0.001535911,-0.4295945,1.321809,-0.1485027,-0.2282692,1.336737,0.2922732,-0.2311298,1.316169,NA,NA,NotTracked,Unknown,
0.9267578,0.4291992,-0.08740234,0.8842773,-0.4316406,-0.05078125,-2,0,-3,0,0,0,-1,0,-2,0,4,0,-1,0,1,1,39.4375,39.4375,39.4375,3.125,3.125,3.125,7.933113,3.251127,0.07260697,2.099635,3.211978,0.5870603,-0.1511144,-0.4670543,1.276377,0.3056839,-0.4755632,1.209282,0.09018611,0.261611,1.380709,-0.10865,-0.4458275,1.277273,0.2702324,-0.4837379,1.192318,0.07162161,-0.1505095,1.366819,0.07645646,-0.441246,1.352014,-0.07953146,0.02741028,1.331023,0.001542049,-0.4296501,1.321731,-0.1484772,-0.228408,1.337082,0.2921086,-0.231479,1.315055,NA,NA,NotTracked,Unknown,
0.9326172,0.4550781,-0.09277344,0.8916016,-0.4194336,-0.06298828,-1,-1,0,-1,-2,-3,-2,-1,0,2,1,1,1,-3,1,-1,26.0625,26.0625,26.0625,0.125,0.125,0.125,7.953588,3.242275,0.06513357,2.097382,3.212181,0.5933375,-0.1513118,-0.4674338,1.276293,0.3059393,-0.4764108,1.210505,0.09021989,0.2615679,1.380678,-0.1098588,-0.4495763,1.277376,0.269585,-0.4814742,1.202451,0.0717099,-0.1505634,1.36675,0.07652401,-0.4413735,1.351805,-0.07955219,0.02737077,1.331068,0.001584964,-0.4297664,1.321551,-0.1483265,-0.2285224,1.337394,0.2920853,-0.2318441,1.313983,NA,NA,NotTracked,Unknown,
0.9130859,0.4667969,-0.1225586,0.8974609,-0.4125977,-0.05371094,-1,-1,0,-1,2,0,-1,-1,8,2,-3,0,-2,0,-3,2,-16.5,-16.5,-16.5,-4.3125,-4.3125,-4.3125,7.953387,3.229757,0.05628577,2.099866,3.212075,0.5877446,-0.151748,-0.4670514,1.276409,0.304224,-0.4767732,1.212228,0.0902838,0.2614889,1.380545,-0.1034471,-0.4391345,1.272866,0.2627479,-0.4839051,1.223091,0.07170312,-0.150699,1.366646,0.0765579,-0.4414923,1.351628,-0.07958216,0.02732217,1.331114,0.001607098,-0.4298748,1.321394,-0.1483087,-0.2285035,1.337509,0.2917742,-0.232743,1.312979,NA,NA,NotTracked,Unknown,
0.8857422,0.4194336,-0.1787109,0.8891602,-0.4086914,-0.07910156,-2,0,-1,0,-1,-1,-2,0,-2,0,-2,1,-1,-1,1,0,6.875,6.875,6.875,-10.125,-10.125,-10.125,7.934505,3.218392,0.07263312,2.099714,3.211902,0.578533,-0.1516392,-0.4667837,1.276451,0.30281,-0.4770637,1.212827,0.09031165,0.2614819,1.380526,-0.1071354,-0.4437878,1.275979,0.2654825,-0.4767386,1.228786,0.07175595,-0.1507148,1.366612,0.07658364,-0.441558,1.351561,-0.07962152,0.02732698,1.331213,0.001623864,-0.4299269,1.32138,-0.1482393,-0.2288368,1.337817,0.2914712,-0.2329755,1.312542,NA,NA,NotTracked,Unknown,
0.890625,0.4472656,-0.1401367,0.8896484,-0.4150391,-0.09619141,0,-2,-2,1,-2,0,1,1,1,8,2,0,0,0,0,1,-1.125,-1.125,-1.125,-11.75,-11.75,-11.75,7.901268,3.220209,0.1101426,2.092668,3.210858,0.5659568,-0.1507642,-0.4663362,1.274576,0.2973859,-0.4775735,1.210878,0.09061097,0.2613477,1.380423,-0.1062636,-0.4397151,1.27532,0.2772045,-0.479516,1.234143,0.07184522,-0.1510078,1.3664,0.0768175,-0.4418354,1.35122,-0.07961258,0.02725247,1.331223,0.001816577,-0.4302281,1.321096,-0.1481392,-0.2288857,1.338092,0.290684,-0.2339864,1.311564,NA,NA,NotTracked,Unknown,
0.8842773,0.4389648,-0.1040039,0.890625,-0.4125977,-0.1025391,0,-2,0,-2,0,5,-2,-1,-3,-1,0,-3,-1,-1,-1,-2,1.0625,1.0625,1.0625,-12.25,-12.25,-12.25,7.882117,3.227697,0.1305184,2.08439,3.210136,0.5606082,-0.1507843,-0.4662541,1.274701,0.2977622,-0.4769603,1.211074,0.09080083,0.2613319,1.380354,-0.1070936,-0.4432492,1.276092,0.2581952,-0.4818203,1.218083,0.07193285,-0.1510667,1.366311,0.07693758,-0.4418702,1.351092,-0.07959992,0.02724338,1.331216,0.001906839,-0.4302816,1.321015,-0.148079,-0.2288768,1.338117,0.2903667,-0.2340778,1.311207,NA,NA,NotTracked,Unknown,
0.8706055,0.4501953,-0.08105469,0.890625,-0.4121094,-0.09521484,-1,0,-2,-1,-4,-2,-1,-2,-1,-6,-4,-3,-1,-2,0,-1,-3.5625,-3.5625,-3.5625,-8.875,-8.875,-8.875,7.875675,3.238256,0.1359406,2.0722,3.210403,0.5557542,-0.1503679,-0.4666024,1.274161,0.2984579,-0.4763012,1.207554,0.09120869,0.2613402,1.380378,-0.1068673,-0.4425704,1.275743,0.2600452,-0.4794619,1.220154,0.07214779,-0.1512524,1.366138,0.07718762,-0.4420284,1.350809,-0.07949034,0.02722533,1.331155,0.002136149,-0.430424,1.320704,-0.1478889,-0.2288796,1.338075,0.290231,-0.2344612,1.3108,NA,NA,NotTracked,Lasso,
0.9047852,0.3789063,-0.07714844,0.8999023,-0.4042969,-0.08300781,-1,-1,0,-1,0,0,-1,-3,0,-3,-4,-1,1,1,-2,2,-2.3125,-2.3125,-2.3125,-4,-4,-4,7.866271,3.248472,0.1348883,2.072068,3.210917,0.5475791,-0.1508147,-0.4560247,1.276811,0.2998638,-0.4762264,1.207088,0.0914084,0.2613079,1.380373,-0.103546,-0.4285193,1.276276,0.2656951,-0.4747017,1.188357,0.07223475,-0.1513586,1.366085,0.0773838,-0.4422117,1.350708,-0.07940382,0.02720863,1.331096,0.002307928,-0.4306453,1.320569,-0.1478263,-0.228827,1.337957,0.2901301,-0.2346548,1.310572,NA,NA,NotTracked,Lasso,
0.9047852,0.3789063,-0.07714844,0.8999023,-0.4042969,-0.08300781,-1,-1,0,-1,0,0,-1,-3,0,-3,-4,-1,1,1,-2,2,-2.3125,-2.3125,-2.3125,-4,-4,-4,7.866271,3.248472,0.1348883,2.072068,3.210917,0.5475791,-0.1499092,-0.4664511,1.273172,0.3003035,-0.4751212,1.206654,0.0916568,0.2612398,1.380436,-0.108565,-0.4463374,1.276712,0.2649586,-0.4759446,1.21548,0.07238317,-0.1514371,1.365985,0.07761589,-0.4422873,1.350547,-0.07936285,0.027194,1.331088,0.002518171,-0.4307226,1.32042,-0.1476911,-0.2288313,1.33783,0.2900928,-0.2348757,1.310252,NA,NA,NotTracked,Unknown,
0.9091797,0.402832,-0.08105469,0.8930664,-0.3984375,-0.08544922,-1,-1,-1,0,1,-1,0,-2,-1,-2,-1,-3,2,0,-1,-3,0.5,0.5,0.5,-3.25,-3.25,-3.25,7.863319,3.249926,0.140728,2.076557,3.210527,0.5397859,-0.1502646,-0.4665968,1.2729,0.2998277,-0.4748604,1.206188,0.09203096,0.2612101,1.380382,-0.1095071,-0.4471018,1.277555,0.259794,-0.4837403,1.216455,0.07250393,-0.1515042,1.365914,0.0777778,-0.4423745,1.350418,-0.07930212,0.02717226,1.33106,0.00266547,-0.4308082,1.3203,-0.1475791,-0.2288722,1.33778,0.2899971,-0.2350793,1.309973,NA,NA,NotTracked,Unknown,
0.8920898,0.4072266,-0.105957,0.8964844,-0.402832,-0.08984375,1,-4,-1,-1,-2,-3,-1,-2,1,4,2,-2,-3,-2,-1,0,0.25,0.25,0.25,-1.5,-1.5,-1.5,7.851397,3.247353,0.153529,2.079417,3.210396,0.5358152,-0.1496463,-0.4550484,1.275961,0.298713,-0.4758757,1.205475,0.09218571,0.261231,1.38043,-0.1033898,-0.431041,1.275,0.2660233,-0.4784355,1.216004,0.07264222,-0.1515986,1.365873,0.07786769,-0.4424532,1.350376,-0.07928433,0.0271516,1.331079,0.002753469,-0.4308951,1.320285,-0.1474616,-0.2289637,1.337727,0.2899479,-0.2350539,1.309876,NA,NA,NotTracked,Unknown,
0.8818359,0.4677734,-0.1176758,0.8886719,-0.4008789,-0.09667969,0,0,-1,-2,0,-1,-3,0,2,-6,-3,-8,-1,2,-2,1,-15.8125,-15.8125,-15.8125,0.625,0.625,0.625,7.836037,3.251621,0.1595529,2.084988,3.211083,0.5304973,-0.1499841,-0.4549674,1.275288,0.2965873,-0.4766119,1.202786,0.09231813,0.2612461,1.380423,-0.1044016,-0.4375497,1.273817,0.2653345,-0.4741707,1.2251,0.07275344,-0.151676,1.365794,0.07799952,-0.44252,1.350268,-0.07920271,0.02716076,1.331069,0.002870264,-0.4309628,1.320183,-0.1472324,-0.2290559,1.337665,0.2898025,-0.2351264,1.309662,NA,NA,NotTracked,Unknown,
0.8618164,0.4521484,-0.1416016,0.8935547,-0.4179688,-0.1083984,0,0,-3,-2,1,-2,-1,-1,-8,-10,-2,2,-4,0,-1,-3,-22.875,-22.875,-22.875,0.3125,0.3125,0.3125,7.825068,3.253303,0.1582778,2.084988,3.211083,0.5304973,-0.1494893,-0.4557184,1.275794,0.2967512,-0.4756235,1.20484,0.09244897,0.2612368,1.380465,-0.1044178,-0.4403028,1.274095,0.2642781,-0.4772286,1.217095,0.07287438,-0.1517691,1.365747,0.07815954,-0.4426459,1.350188,-0.07914459,0.02713356,1.331078,0.003016734,-0.4311009,1.320138,-0.147194,-0.2290513,1.337669,0.289701,-0.2365046,1.309197,NA,NA,NotTracked,Unknown,
0.855957,0.4682617,-0.1186523,0.8945313,-0.4189453,-0.1035156,-1,-1,-2,-3,-1,-3,-1,0,5,8,2,0,1,4,4,3,-26.3125,-26.3125,-26.3125,5.125,5.125,5.125,7.81311,3.257442,0.1411577,2.084955,3.212138,0.5353718,-0.1489124,-0.455384,1.275649,0.2990581,-0.4750189,1.206272,0.09250993,0.2612343,1.380544,-0.1091623,-0.4745611,1.272321,0.2643167,-0.4826582,1.230333,0.07297056,-0.1518429,1.365693,0.07830321,-0.4427395,1.350087,-0.07905374,0.02708438,1.331089,0.00314934,-0.4311758,1.320039,-0.1469814,-0.2290822,1.337614,0.2896883,-0.2365093,1.309192,NA,NA,NotTracked,Unknown,
0.8671875,0.4526367,-0.09082031,0.8857422,-0.4169922,-0.09375,-2,-1,0,1,-2,1,1,-2,-3,-5,-2,-2,-2,-2,-1,-1,-27.6875,-27.6875,-27.6875,0.875,0.875,0.875,7.809549,3.261213,0.1108026,2.078668,3.214826,0.5464615,-0.1493648,-0.4554575,1.276217,0.3008273,-0.474384,1.207116,0.09270874,0.2611977,1.380621,-0.1023412,-0.4278415,1.275679,0.2656291,-0.4750596,1.217449,0.07307427,-0.1519443,1.365653,0.0784304,-0.442828,1.350029,-0.07899211,0.02712218,1.331116,0.003266717,-0.4312448,1.319982,-0.1468962,-0.2292187,1.337625,0.2896885,-0.2365904,1.309179,NA,NA,NotTracked,Unknown,
0.8662109,0.4296875,-0.08984375,0.8823242,-0.4199219,-0.07177734,-2,-2,0,-3,5,1,-1,-1,-2,-12,-10,5,-1,-3,-2,0,-23.0625,-23.0625,-23.0625,4.875,4.875,4.875,7.814734,3.260368,0.0908826,2.073976,3.219158,0.5582097,-0.1495398,-0.4556432,1.276847,0.3043889,-0.4758091,1.208223,0.09306998,0.2612182,1.380692,-0.1032272,-0.4390754,1.273317,0.2680926,-0.4784661,1.236572,0.07324767,-0.1520027,1.365555,0.07871731,-0.4428484,1.34985,-0.07882515,0.02709361,1.331143,0.003506344,-0.431268,1.319876,-0.1467167,-0.2295842,1.337771,0.2897796,-0.2365988,1.309162,NA,NA,NotTracked,Unknown,
0.8964844,0.4316406,-0.06494141,0.8833008,-0.4204102,-0.08300781,-1,-2,1,-1,1,-3,-4,-1,1,1,-1,-13,-4,-4,-2,-2,11.75,11.75,11.75,2.8125,2.8125,2.8125,7.877614,3.248871,0.02120175,2.075367,3.222282,0.5626605,-0.1499343,-0.4552426,1.277084,0.306216,-0.4751314,1.208388,0.09313231,0.2612626,1.380735,-0.1105974,-0.4556429,1.278823,0.2687464,-0.4737424,1.22104,0.07331653,-0.1520459,1.365529,0.07875859,-0.442863,1.349804,-0.07880134,0.02707959,1.331159,0.003536833,-0.43128,1.31985,-0.1465027,-0.2298323,1.337854,0.289978,-0.2365712,1.309144,NA,NA,NotTracked,Unknown,
0.9052734,0.4594727,-0.08447266,0.9013672,-0.4257813,-0.07080078,-1,-1,-2,-3,-4,0,-2,0,-1,1,2,3,-3,-5,-4,-1,-13.125,-13.125,-13.125,-1,-1,-1,7.896916,3.243726,9.993128,2.079006,3.228107,0.5600835,-0.1497048,-0.4552554,1.277264,0.3077076,-0.4764582,1.21222,0.09323633,0.2612339,1.380769,-0.1031328,-0.4428731,1.273,0.2737806,-0.4819941,1.2363,0.07349602,-0.1521515,1.365489,0.07902135,-0.4429309,1.349752,-0.07864919,0.02704891,1.331264,0.003789424,-0.4313602,1.31983,-0.1463674,-0.2299025,1.337992,0.2902862,-0.236454,1.309059,NA,NA,NotTracked,Unknown,
0.8886719,0.4116211,-0.1132813,0.8862305,-0.4204102,-0.09326172,-1,1,0,0,-1,-2,-1,-1,3,20,9,-2,4,1,-1,-2,-24,-24,-24,-4.4375,-4.4375,-4.4375,7.878095,3.240098,9.98343,2.076503,3.234808,0.5591147,-0.1500636,-0.4548697,1.276654,0.3072093,-0.4757019,1.210714,0.0932727,0.2612384,1.380798,-0.127857,-0.4238241,1.302733,0.269035,-0.4792421,1.225881,0.07357491,-0.1522567,1.365447,0.07913042,-0.4430658,1.349706,-0.07862219,0.02699437,1.331326,0.003876403,-0.4315088,1.319835,-0.1463375,-0.2301379,1.33812,0.2906432,-0.236353,1.309127,NA,NA,NotTracked,Unknown,
0.8818359,0.456543,-0.1040039,0.8808594,-0.4238281,-0.09130859,-1,2,0,-3,-1,0,-2,-2,-1,-6,1,-2,-1,-1,-2,1,-14.6875,-14.6875,-14.6875,-6.625,-6.625,-6.625,7.856232,3.242691,9.979343,2.068627,3.237176,0.5616668,-0.1495835,-0.4545861,1.274299,0.3078381,-0.4759017,1.209106,0.09332769,0.2612663,1.38085,-0.101593,-0.4287902,1.273292,0.2790525,-0.4716763,1.2312,0.07382655,-0.1523551,1.365385,0.07935401,-0.4431233,1.349607,-0.07853529,0.02695013,1.331395,0.004073333,-0.4315622,1.319797,-0.1461612,-0.2302924,1.338397,0.2910573,-0.2362251,1.309162,NA,NA,NotTracked,Unknown,
0.8730469,0.4482422,-0.1000977,0.8857422,-0.4233398,-0.09716797,-1,-2,-1,-1,-3,-1,0,-2,-3,-4,6,23,1,-11,-7,-5,-14.1875,-14.1875,-14.1875,-5.75,-5.75,-5.75,7.847988,3.244532,9.979362,2.060009,3.239006,0.5654535,-0.1504899,-0.4550777,1.275976,0.3086599,-0.475527,1.211478,0.09340347,0.2612739,1.380909,-0.1045557,-0.4429627,1.272183,0.2730844,-0.4847666,1.196852,0.07386651,-0.1523919,1.365377,0.07938689,-0.4431278,1.349604,-0.07852888,0.02686197,1.331489,0.004116945,-0.4315822,1.319834,-0.1458692,-0.2308108,1.338661,0.291204,-0.236344,1.309204,NA,NA,NotTracked,Unknown,
0.8779297,0.4399414,-0.08349609,0.8857422,-0.4272461,-0.1054688,-2,-4,-4,-1,1,0,-2,-2,-3,-5,1,3,1,-1,-1,0,-7.75,-7.75,-7.75,-6.3125,-6.3125,-6.3125,7.840988,3.247057,9.975176,2.047749,3.239975,0.572208,-0.1504105,-0.4553701,1.27551,0.3092843,-0.4763682,1.212011,0.09347959,0.261203,1.380974,-0.1038835,-0.452163,1.270256,0.2741002,-0.4806598,1.23025,0.07391872,-0.152419,1.365378,0.07942201,-0.443124,1.349602,-0.07847463,0.02679389,1.331577,0.00416378,-0.4315804,1.319871,-0.1457903,-0.2308142,1.338768,0.2914639,-0.236148,1.309256,NA,NA,NotTracked,Unknown,
0.8847656,0.4155273,-0.08349609,0.887207,-0.434082,-0.09570313,-2,0,-1,-1,1,-1,1,-2,-2,-21,-2,1,1,2,2,-1,-4.75,-4.75,-4.75,-2.3125,-2.3125,-2.3125,7.837363,3.250716,9.966751,2.039758,3.241675,0.5781326,-0.150241,-0.4552017,1.27536,0.3089073,-0.4769181,1.212068,0.09352884,0.2611311,1.381008,-0.1042517,-0.4575286,1.267535,0.2758888,-0.4826841,1.23825,0.07396681,-0.152436,1.365385,0.07957985,-0.4431109,1.349594,-0.07841825,0.02677053,1.33165,0.004316469,-0.4315453,1.319895,-0.145699,-0.230851,1.338874,0.2917018,-0.2360649,1.309372,NA,NA,NotTracked,Unknown,
0.8945313,0.4199219,-0.07177734,0.8828125,-0.4223633,-0.1025391,-1,-1,1,-1,1,1,-1,-2,0,3,0,0,-1,-1,0,1,4.5,4.5,4.5,2.5,2.5,2.5,7.841411,3.248375,9.965325,2.0382,3.242835,0.582918,-0.1512481,-0.4529445,1.275326,0.3099886,-0.4757517,1.21108,0.09362968,0.261096,1.38102,-0.1042664,-0.4434615,1.271181,0.2865387,-0.4921681,1.22355,0.0741309,-0.1525029,1.365352,0.07976309,-0.4431201,1.349512,-0.07820442,0.02666372,1.331823,0.004470414,-0.4315566,1.319892,-0.145408,-0.2311365,1.338884,0.2920564,-0.2356377,1.309489,NA,NA,NotTracked,Unknown,
0.890625,0.4287109,-0.08203125,0.8842773,-0.4145508,-0.105957,-1,-1,1,-1,0,-1,-2,-1,-3,-12,-9,-3,-2,-2,-1,-1,-1,-1,-1,4.4375,4.4375,4.4375,7.839591,3.246612,9.968137,2.041285,3.243474,0.5844965,-0.150784,-0.4525498,1.275127,0.3096509,-0.4769156,1.210595,0.09369557,0.2610216,1.381054,-0.1122934,-0.4284792,1.286097,0.2758806,-0.4831321,1.190136,0.07420822,-0.1525318,1.365353,0.07981941,-0.443113,1.34951,-0.07815359,0.02661946,1.33186,0.004525182,-0.4315426,1.319892,-0.1453728,-0.23114,1.33891,0.292241,-0.2355903,1.309575,NA,NA,NotTracked,Unknown,
0.8950195,0.4160156,-0.07128906,0.8779297,-0.4208984,-0.09375,-2,-2,-1,0,-2,-2,-1,1,-1,1,2,-7,0,0,-2,0,2.9375,2.9375,2.9375,11.8125,11.8125,11.8125,7.834158,3.240846,9.974645,2.062551,3.242687,0.579805,-0.1503841,-0.452828,1.274602,0.3097903,-0.4764534,1.210818,0.09383984,0.2609752,1.381039,-0.1044285,-0.4471349,1.268553,0.2825113,-0.4931187,1.228385,0.07425465,-0.1525426,1.36534,0.0798511,-0.4431023,1.349484,-0.07801799,0.02668915,1.331976,0.004559564,-0.4315231,1.319924,-0.1453246,-0.2310933,1.338995,0.2923974,-0.2355215,1.309591,NA,NA,NotTracked,Unknown,
0.8911133,0.4487305,-0.08935547,0.8720703,-0.4082031,-0.09228516,-2,0,-2,-1,-2,-1,-1,-1,-1,-5,-4,0,-2,-4,0,0,10.4375,10.4375,10.4375,10,10,10,7.839372,3.236923,9.981061,2.0797,3.241458,0.5759473,-0.1512258,-0.4528113,1.275732,0.3095453,-0.47743,1.211231,0.09390429,0.2609665,1.381113,-0.1048168,-0.4505768,1.268157,0.2739346,-0.4823111,1.241429,0.07430982,-0.1525583,1.365358,0.07993768,-0.4430941,1.349504,-0.07796267,0.02670109,1.33209,0.004661905,-0.4314997,1.319993,-0.1452281,-0.2310308,1.339171,0.2924581,-0.2353758,1.309664,NA,NA,NotTracked,Unknown,
