ALX,ALY,ALZ,ARX,ARY,ARZ,EMG0L,EMG1L,EMG2L,EMG3L,EMG4L,EMG5L,EMG6L,EMG7L,EMG0R,EMG1R,EMG2R,EMG3R,EMG4R,EMG5R,EMG6R,EMG7R,GLX,GLY,GLZ,GRX,GRY,GRZ,ORL,OPL,OYL,ORR,OPR,OYR,LHNX,LHNY,LHNZ,RHNX,RHNY,RHNZ,HX,HY,HZ,LTX,LTY,LTZ,RTX,RTY,RTZ,SpineMidX,SpineMidY,SpineMidZ,SpineBaseX,SpineBaseY,SpineBaseZ,ShoulderLeftX,ShoulderLeftY,ShoulderLeftZ,ShoulderRightX,ShoulderRightY,ShoulderRightZ,ElbowLeftX,ElbowLeftY,ElbowLeftZ,ElbowRightX,ElbowRightY,ElbowRightZ,Myo_Pose_left,Myo_Pose_Right,Kinect_pose_left,Kinect_pose_right
0.2729492,0.7133789,0.4350586,0.8974609,-0.3842773,-0.08203125,-9,-10,-13,-8,-1,1,0,-5,-1,-8,-4,0,1,0,0,-1,-61.0625,-61.0625,-61.0625,-6.6875,-6.6875,-6.6875,6.550025,4.779283,9.649749,2.088936,3.181627,2.961039,-0.1351381,-0.453747,1.275602,0.1872184,-0.1847265,1.120535,0.08347945,0.2610404,1.377081,-0.09168269,-0.4681236,1.270033,0.231217,-0.1645277,1.137177,0.07509112,-0.1494296,1.370926,0.07982441,-0.4434966,1.355986,-0.06921226,0.02496952,1.343406,0.002966934,-0.4334213,1.327885,-0.1369942,-0.2161873,1.332844,0.2988194,-0.1788111,1.340318,NA,NA,NotTracked,Unknown,
0.03808594,0.6464844,0.3754883,0.8999023,-0.4013672,-0.08496094,-2,0,-12,-16,-8,-3,-3,-3,1,3,5,1,0,-1,0,-1,-22,-22,-22,-1.625,-1.625,-1.625,6.511577,5.097431,9.780064,2.101569,3.18301,2.944098,-0.1347464,-0.4545213,1.274416,0.1653868,-0.1316979,1.125939,0.083365,0.2611705,1.377393,-0.09050003,-0.4438884,1.27245,0.1721325,-0.1363699,1.075118,0.07596555,-0.1494147,1.371702,0.07997742,-0.4432993,1.35659,-0.0692104,0.02501436,1.343404,0.00313451,-0.4334557,1.328648,-0.1370222,-0.2162785,1.332895,0.3361222,-0.1978837,1.308157,NA,NA,NotTracked,Unknown,
-0.296875,0.6083984,0.3300781,0.8989258,-0.4003906,-0.09716797,-8,-10,-15,-15,-9,-3,-1,-3,0,-3,1,0,-1,-2,-2,-1,30.3125,30.3125,30.3125,-8.5,-8.5,-8.5,6.576644,5.537241,9.988195,2.115026,3.184508,2.917607,-0.1329896,-0.4559491,1.272707,0.141432,-0.05229003,1.153419,0.08349771,0.261633,1.379113,-0.08944249,-0.4306458,1.274403,0.1924041,-0.0745954,1.14,0.07596422,-0.14917,1.372268,0.07991161,-0.4438191,1.357623,-0.06916062,0.02508078,1.343422,0.002975574,-0.4341775,1.329555,-0.1370723,-0.2162951,1.332973,0.3174783,-0.1971224,1.293568,NA,NA,NotTracked,Unknown,
-0.296875,0.6083984,0.3300781,0.8989258,-0.40625,-0.09716797,-1,-2,-4,10,4,1,-1,-3,3,0,-2,-1,0,0,1,0,30.3125,30.3125,30.3125,-3.8125,-3.8125,-3.8125,6.576644,5.537241,9.988195,2.119004,3.188434,2.907955,-0.1321032,-0.4552881,1.271905,0.1308357,-0.02936349,1.175035,0.08358868,0.2618313,1.37977,-0.08921619,-0.4425721,1.271286,0.1831911,-0.04980314,1.14736,0.07589906,-0.1491815,1.372374,0.07968645,-0.4442133,1.357886,-0.0691914,0.02526063,1.343508,0.002542435,-0.4349057,1.330477,-0.1370339,-0.2161547,1.332975,0.3074059,-0.1915263,1.28217,NA,NA,NotTracked,Unknown,
-0.4418945,0.6518555,0.3100586,0.8955078,-0.4145508,-0.09619141,-3,0,16,0,1,-1,-2,-2,-1,-2,1,0,-1,-1,-1,-1,39.5,39.5,39.5,2.9375,2.9375,2.9375,6.680381,5.772118,0.1369102,2.118625,3.195311,2.90964,-0.1317882,-0.4555966,1.271259,0.1294328,-0.01874456,1.192412,0.0832506,0.2624697,1.380545,-0.08670275,-0.45037,1.266404,0.1732625,-0.02979113,1.154877,0.07601947,-0.1487713,1.372495,0.07949324,-0.4446075,1.358062,-0.06934287,0.02578258,1.34375,0.002080393,-0.4356481,1.331661,-0.1370458,-0.2160855,1.332976,0.3074472,-0.1887092,1.276158,NA,NA,NotTracked,Unknown,
-0.4658203,0.6621094,0.3193359,0.8984375,-0.4101563,-0.08349609,9,-4,-8,-6,-4,-4,-2,0,1,1,-3,-1,-2,-1,0,-2,38.0625,38.0625,38.0625,10.9375,10.9375,10.9375,6.741502,5.869335,0.2172101,2.124416,3.202718,2.914398,-0.1317796,-0.4552462,1.271905,0.1052419,0.04258167,1.190086,0.08298583,0.2633366,1.381763,-0.08775331,-0.4377954,1.270697,0.1465517,0.0263804,1.159667,0.07609905,-0.1480074,1.372648,0.079396,-0.4449147,1.358308,-0.06953274,0.0259345,1.343945,0.001891149,-0.4362663,1.333009,-0.1370022,-0.2162697,1.333037,0.2937635,-0.1762945,1.266346,NA,NA,NotTracked,Unknown,
-0.5180664,0.5224609,0.2866211,0.8959961,-0.4038086,-0.07617188,2,0,-3,-8,-2,-8,-2,2,-1,-7,-5,-1,-2,-2,-2,-1,4,4,4,13.9375,13.9375,13.9375,6.901759,6.074262,0.469632,2.13538,3.208508,2.919549,-0.1315531,-0.4571863,1.270026,0.09902848,0.05406542,1.201334,0.08243106,0.2643341,1.382992,-0.08901182,-0.4324029,1.271818,0.1104855,0.09728163,1.176,0.07663797,-0.1479001,1.37284,0.07917896,-0.4451098,1.358392,-0.06974985,0.02660069,1.344288,0.001548411,-0.4365418,1.333624,-0.1369383,-0.2160918,1.333097,0.2939003,-0.1770385,1.264532,NA,NA,NotTracked,Unknown,
-0.543457,0.6357422,0.2578125,0.8901367,-0.4077148,-0.06884766,-4,-3,-7,4,-1,-6,-2,-2,3,4,-1,1,0,0,-1,0,-10.375,-10.375,-10.375,13.3125,13.3125,13.3125,7.065942,6.183768,0.7211148,2.145066,3.214329,2.926805,-0.1323962,-0.4574045,1.269657,0.0865813,0.06954531,1.229567,0.08191859,0.266068,1.384917,-0.08771534,-0.4343072,1.270205,0.08165412,0.1366923,1.213,0.07745317,-0.1477064,1.37313,0.07861531,-0.4454116,1.358557,-0.0710903,0.02838924,1.34567,0.0008362388,-0.4369342,1.334703,-0.1368955,-0.2157648,1.333325,0.2934472,-0.1761148,1.256911,NA,NA,Unknown,Unknown,
-0.543457,0.6357422,0.2578125,0.8916016,-0.4150391,-0.07080078,-4,-3,-7,4,-1,-6,-2,-2,-1,-1,-2,-2,0,0,-2,2,-10.375,-10.375,-10.375,14.75,14.75,14.75,7.065942,6.183768,0.7211148,2.150402,3.21764,2.930493,-0.1321855,-0.4571391,1.269644,0.08578974,0.06830345,1.237334,0.08197012,0.266506,1.385748,-0.0883467,-0.438839,1.270324,0.1157952,0.1306978,1.254,0.07773429,-0.147618,1.373215,0.07833792,-0.445503,1.358515,-0.06956346,0.02968121,1.345302,0.0005792574,-0.4369795,1.33494,-0.1369183,-0.2155998,1.333508,0.2925972,-0.1758099,1.253089,NA,NA,Unknown,NotTracked,
-0.6030273,0.6591797,0.1171875,0.8842773,-0.4023438,-0.07568359,-4,-2,0,1,2,-2,-1,0,6,3,0,-1,0,-2,-1,1,-2.5,-2.5,-2.5,12.9375,12.9375,12.9375,7.201504,6.226641,0.9294355,2.169023,3.222143,2.938597,-0.1324571,-0.4569693,1.269633,0.0836853,0.06679039,1.245946,0.08214393,0.2667115,1.386565,-0.08639183,-0.4430398,1.266621,0.09676728,0.1086188,1.25525,0.07772933,-0.1466432,1.373126,0.07796708,-0.4455905,1.358424,-0.07001003,0.02974927,1.345662,0.0002997384,-0.4370212,1.335061,-0.1369423,-0.2153465,1.3337,0.2922298,-0.1750307,1.248646,NA,NA,Unknown,NotTracked,
-0.6030273,0.6591797,0.1171875,0.8857422,-0.4101563,-0.06884766,-6,-1,-5,-2,-3,-4,-1,1,-3,-2,-1,1,0,1,-1,0,-2.5,-2.5,-2.5,9.375,9.375,9.375,7.201504,6.226641,0.9294355,2.174336,3.223395,2.945559,-0.1329272,-0.4576467,1.27033,0.08357974,0.06622512,1.249854,0.08235511,0.2669367,1.387837,-0.08791544,-0.4398506,1.269722,0.1137711,0.08282501,1.2598,0.0775703,-0.1459389,1.373203,0.07772759,-0.4456248,1.358394,-0.06997676,0.02978746,1.345724,9.122915E-05,-0.4370108,1.335237,-0.1369653,-0.2151222,1.333968,0.2919108,-0.1749583,1.247258,NA,NA,Unknown,NotTracked,
-0.6030273,0.6591797,0.1171875,0.8730469,-0.4140625,-0.05664063,-6,-1,-5,-2,-3,-4,-1,1,-3,1,0,-1,0,-1,0,-1,-2.5,-2.5,-2.5,6.3125,6.3125,6.3125,7.201504,6.226641,0.9294355,2.174431,3.221905,2.954674,-0.1336509,-0.4577698,1.271935,0.0822532,0.06668798,1.254867,0.08267077,0.2672567,1.389646,-0.08639085,-0.4524666,1.2655,0.04981295,0.04899642,1.231238,0.0782256,-0.1460209,1.373624,0.07741512,-0.4456451,1.358437,-0.06973267,0.03064135,1.346315,-0.0001456143,-0.4369985,1.335607,-0.1370574,-0.2149274,1.334589,0.2913735,-0.1749308,1.244989,NA,NA,Unknown,NotTracked,
-0.6030273,0.6591797,0.1171875,0.8789063,-0.4179688,-0.06103516,-6,-1,-5,-2,-3,-4,-1,1,-1,-2,1,-1,-1,-2,-1,0,-2.5,-2.5,-2.5,4.4375,4.4375,4.4375,7.201504,6.226641,0.9294355,2.172101,3.220639,2.960654,-0.1338211,-0.4575111,1.27213,0.08145291,0.06929966,1.256473,0.08264027,0.2673383,1.390317,-0.08759492,-0.44057,1.268966,0.0465137,0.05226677,1.236287,0.07836487,-0.1460548,1.373715,0.07710228,-0.445644,1.358404,-0.06966608,0.03073958,1.34642,-0.0003802706,-0.4369299,1.335745,-0.137249,-0.2149237,1.334992,0.291097,-0.1748438,1.244093,NA,NA,Unknown,NotTracked,
-0.6030273,0.6591797,0.1171875,0.8735352,-0.421875,-0.05761719,-3,9,14,-6,-4,-10,-3,-4,0,-1,-2,-1,-3,-2,0,-1,-2.5,-2.5,-2.5,0.8125,0.8125,0.8125,7.201504,6.226641,0.9294355,2.162874,3.217226,2.974425,-0.1346259,-0.4580286,1.273892,0.08083284,0.06889576,1.255864,0.08266106,0.267501,1.390684,-0.0876572,-0.4406996,1.268725,0.04914379,0.05072461,1.232912,0.07859329,-0.1460821,1.373878,0.07698995,-0.4456492,1.358429,-0.07010841,0.03070183,1.346898,-0.000479834,-0.4369365,1.335914,-0.1374709,-0.2147782,1.335359,0.2909792,-0.1748219,1.243306,NA,NA,Unknown,NotTracked,
-0.6293945,0.6835938,0.0859375,0.8964844,-0.4267578,-0.06152344,-3,9,14,-6,-4,-10,-3,-4,-1,-2,1,0,0,0,-1,1,-9.125,-9.125,-9.125,1.4375,1.4375,1.4375,7.233968,6.228295,0.982344,2.14606,3.212845,2.997856,-0.1353911,-0.4572838,1.274207,0.08073898,0.06944903,1.255105,0.08273169,0.2674844,1.39105,-0.08791487,-0.4484096,1.266851,0.04887517,0.05090676,1.232066,0.07868442,-0.1461644,1.373944,0.0767489,-0.445745,1.358425,-0.07008391,0.03071701,1.346939,-0.0006856575,-0.4370322,1.336062,-0.1375538,-0.2149201,1.335788,0.2907336,-0.1747385,1.242513,NA,NA,Unknown,NotTracked,
-0.6293945,0.6835938,0.0859375,0.8959961,-0.4296875,-0.0546875,7,-2,-18,-5,-7,-3,-2,0,2,-1,-1,-2,-2,-1,-1,1,-9.125,-9.125,-9.125,2,2,2,7.233968,6.228295,0.982344,2.14184,3.210247,3.006227,-0.1352526,-0.4580995,1.274108,0.08126584,0.06859538,1.253813,0.08279305,0.2675577,1.391294,-0.08752305,-0.4404522,1.267822,0.04879804,0.05248786,1.23299,0.07834613,-0.1453844,1.373797,0.07656337,-0.445747,1.358332,-0.07052892,0.03069852,1.347214,-0.0008064988,-0.4370206,1.336057,-0.1376607,-0.2148744,1.336002,0.2906449,-0.1747854,1.242331,NA,NA,Unknown,NotTracked,
-0.6293945,0.6835938,0.0859375,0.8896484,-0.4316406,-0.05859375,-7,1,0,1,0,1,-2,1,0,0,2,0,-1,0,0,0,-9.125,-9.125,-9.125,1.25,1.25,1.25,7.233968,6.228295,0.982344,2.14243,3.208623,3.009746,-0.1360387,-0.4582639,1.275832,0.08219188,0.06935085,1.255605,0.08269041,0.2677003,1.391593,-0.09109583,-0.4320141,1.271604,0.04928422,0.05080148,1.232623,0.07849427,-0.1455272,1.373906,0.07639179,-0.4458289,1.358366,-0.07049389,0.03069458,1.347243,-0.000966145,-0.4371023,1.336223,-0.1377752,-0.2150293,1.336339,0.2906876,-0.1748374,1.242208,NA,NA,Unknown,NotTracked,
-0.6293945,0.6835938,0.0859375,0.8828125,-0.4228516,-0.05859375,6,0,-12,1,0,0,3,2,-2,-3,0,-3,-2,-3,-1,-1,-9.125,-9.125,-9.125,-1.375,-1.375,-1.375,7.233968,6.228295,0.982344,2.142533,3.207579,3.009495,-0.1362088,-0.458361,1.275601,0.0813734,0.07000066,1.256026,0.08223247,0.2679392,1.392316,-0.08810259,-0.4387844,1.267916,0.04922873,0.05139136,1.232987,0.07819614,-0.144891,1.374048,0.07610667,-0.4458875,1.358353,-0.07039915,0.0306853,1.34729,-0.001187788,-0.4371181,1.336313,-0.1380387,-0.215167,1.336887,0.2907073,-0.174933,1.242117,NA,NA,Unknown,NotTracked,
-0.6396484,0.71875,0.06298828,0.8925781,-0.4160156,-0.05957031,6,0,-12,1,0,0,3,2,-2,1,1,-1,-1,0,-1,-3,-5.6875,-5.6875,-5.6875,-4.9375,-4.9375,-4.9375,7.298415,6.223273,1.105443,2.143708,3.206302,3.005233,-0.1368413,-0.4586334,1.275894,0.08084209,0.06965166,1.256063,0.08212952,0.2679666,1.392434,-0.08820597,-0.4401928,1.267946,0.04894935,0.05119841,1.233198,0.07826207,-0.144956,1.374076,0.07580028,-0.4458415,1.358287,-0.07111812,0.03093877,1.347884,-0.001418564,-0.4370512,1.336291,-0.1382648,-0.2153,1.337039,0.290601,-0.1749239,1.241882,NA,NA,Unknown,NotTracked,
-0.6396484,0.71875,0.06298828,0.8911133,-0.4189453,-0.06347656,7,7,10,12,5,-2,-3,-2,0,0,-2,-1,0,0,-1,0,-5.6875,-5.6875,-5.6875,-6,-6,-6,7.298415,6.223273,1.105443,2.145957,3.206555,2.992322,-0.137345,-0.4589196,1.274954,0.08187905,0.06992237,1.256687,0.0820675,0.2679463,1.392839,-0.08975589,-0.4432866,1.26887,0.04878359,0.05192889,1.234371,0.07805151,-0.1446408,1.374193,0.07540859,-0.4458734,1.358272,-0.07124044,0.03099981,1.348058,-0.001715271,-0.4370606,1.336377,-0.1384449,-0.2154869,1.33735,0.2906504,-0.1750898,1.241957,NA,NA,Unknown,NotTracked,
-0.6396484,0.71875,0.06298828,0.8862305,-0.4179688,-0.06591797,7,7,10,12,5,-2,-3,-2,2,0,0,-1,-2,-1,1,1,-5.6875,-5.6875,-5.6875,-4.3125,-4.3125,-4.3125,7.298415,6.223273,1.105443,2.148935,3.207505,2.987211,-0.1370661,-0.458903,1.274073,0.08051846,0.06956665,1.256556,0.08200266,0.2679776,1.392862,-0.08908284,-0.4575197,1.264686,0.04701548,0.05237738,1.235554,0.07806882,-0.1447182,1.374224,0.07484122,-0.445893,1.358194,-0.07135122,0.03106687,1.348117,-0.002171142,-0.4370171,1.336343,-0.1385341,-0.2154496,1.337373,0.2905245,-0.1752326,1.242059,NA,NA,Unknown,NotTracked,
-0.6396484,0.71875,0.06298828,0.8955078,-0.4067383,-0.06494141,7,7,10,12,5,-2,-3,-2,-5,-3,-1,-1,-2,0,-1,-3,-5.6875,-5.6875,-5.6875,-6.0625,-6.0625,-6.0625,7.298415,6.223273,1.105443,2.155596,3.20698,2.970918,-0.1365127,-0.4587328,1.273085,0.08036592,0.06980832,1.25851,0.08195336,0.2679661,1.392866,-0.08905569,-0.4466455,1.267555,0.04770033,0.05112188,1.234534,0.07815012,-0.1447952,1.374247,0.07474136,-0.4458719,1.358184,-0.07160403,0.03119618,1.348279,-0.002255567,-0.4369901,1.336327,-0.1386256,-0.2154859,1.337396,0.290363,-0.1754221,1.242244,NA,NA,Unknown,NotTracked,
-0.6943359,0.7158203,0.1015625,0.8862305,-0.4111328,-0.07080078,7,7,10,12,5,-2,-3,-2,0,3,1,-1,0,1,-1,-1,1.375,1.375,1.375,-5.625,-5.625,-5.625,7.300125,6.211818,1.114924,2.157871,3.205553,2.962057,-0.1363763,-0.4582162,1.272415,0.08148062,0.07007053,1.25931,0.08193815,0.2679555,1.392918,-0.08916663,-0.4480162,1.266899,0.04834002,0.05127077,1.234227,0.07784012,-0.1444485,1.374206,0.07463472,-0.4458664,1.358222,-0.071633,0.03126295,1.348294,-0.002310376,-0.4369714,1.33635,-0.1386943,-0.2154824,1.337414,0.2903571,-0.1755363,1.242365,NA,NA,Unknown,NotTracked,
-0.6943359,0.7158203,0.1015625,0.890625,-0.4023438,-0.07324219,7,7,10,12,5,-2,-3,-2,0,-2,-3,-2,-2,1,-1,1,1.375,1.375,1.375,-5.625,-5.625,-5.625,7.300125,6.211818,1.114924,2.157705,3.20401,2.959365,-0.1366066,-0.4584471,1.272706,0.08235075,0.07134217,1.262867,0.08192505,0.2679396,1.392929,-0.08947865,-0.4459093,1.267639,0.04237484,0.05664777,1.245105,0.07790147,-0.1445531,1.37427,0.07447297,-0.4458471,1.358209,-0.07158957,0.03131118,1.34829,-0.00244871,-0.4369332,1.336384,-0.1388154,-0.2155576,1.337386,0.2903307,-0.1759082,1.243377,NA,NA,Unknown,NotTracked,
-0.6943359,0.7158203,0.1015625,0.8911133,-0.4130859,-0.07128906,0,-2,-11,-6,-2,-3,0,-3,-8,-11,-3,2,1,1,-1,-1,1.375,1.375,1.375,3.4375,3.4375,3.4375,7.300125,6.211818,1.114924,2.152037,3.195475,2.960104,-0.135668,-0.4588059,1.271618,0.08321264,0.07068118,1.264535,0.0816424,0.2677869,1.392777,-0.08909087,-0.4453013,1.267288,0.04708295,0.05374182,1.240276,0.07719433,-0.1439854,1.374108,0.07419211,-0.4458483,1.35808,-0.07228643,0.03120108,1.348361,-0.002674657,-0.4369339,1.336274,-0.1390416,-0.2154524,1.337123,0.2904222,-0.1761511,1.243656,NA,NA,Unknown,NotTracked,
-0.6943359,0.7158203,0.1015625,0.8969727,-0.4082031,-0.06982422,0,-2,-11,-6,-2,-3,0,-3,6,10,1,-1,-1,1,0,-2,1.375,1.375,1.375,4.3125,4.3125,4.3125,7.300125,6.211818,1.114924,2.150517,3.194585,2.970774,-0.1355144,-0.4599496,1.270259,0.08454756,0.07178669,1.265114,0.08111991,0.2679009,1.392444,-0.08899522,-0.4567526,1.263128,0.04679892,0.0535147,1.239793,0.07738372,-0.1442193,1.374119,0.07396989,-0.4457849,1.357948,-0.07258232,0.03135162,1.348307,-0.002861157,-0.4368573,1.336144,-0.1391208,-0.2156453,1.336943,0.290572,-0.1762948,1.244015,NA,NA,Unknown,NotTracked,
-0.6943359,0.7158203,0.1015625,0.8959961,-0.4145508,-0.07275391,0,-2,-11,-6,-2,-3,0,-3,0,-1,-1,-1,-2,-2,-3,-2,1.375,1.375,1.375,4.25,4.25,4.25,7.300125,6.211818,1.114924,2.148346,3.1954,2.978855,-0.1351664,-0.4601922,1.270558,0.08329745,0.07105725,1.2633,0.08102579,0.2678976,1.392307,-0.08906415,-0.448093,1.266126,0.04560601,0.05263971,1.239873,0.07747807,-0.144341,1.374109,0.07393932,-0.4457826,1.357917,-0.07253286,0.03137053,1.348243,-0.002885883,-0.4368618,1.336127,-0.1392081,-0.215662,1.336898,0.2905716,-0.1764981,1.244368,NA,NA,Unknown,NotTracked,
-0.6992188,0.7128906,0.1079102,0.9067383,-0.4121094,-0.07275391,-7,-7,-10,2,-2,-3,-1,-1,8,9,2,1,-1,-1,0,0,1.125,1.125,1.125,0.75,0.75,0.75,7.271914,6.218542,1.067169,2.144976,3.198461,2.989501,-0.1354081,-0.460336,1.270223,0.08838527,0.07509702,1.260831,0.0807867,0.26796,1.392081,-0.08932383,-0.4436654,1.264949,0.04306194,0.06132633,1.244654,0.07768498,-0.1445778,1.374021,0.07396181,-0.4457416,1.357754,-0.07258178,0.03155389,1.348018,-0.00286136,-0.4368367,1.335932,-0.1393979,-0.2155431,1.336738,0.2905401,-0.1766061,1.244591,NA,NA,Unknown,NotTracked,
-0.6992188,0.7163086,0.09082031,0.9013672,-0.4204102,-0.07470703,-8,3,-2,-6,-1,1,-1,-1,-5,-5,-2,-1,0,-1,-2,-2,1.125,1.125,1.125,-1.375,-1.375,-1.375,7.274484,6.217802,1.064333,2.140481,3.200644,2.993183,-0.136226,-0.460454,1.271078,0.09069858,0.07490024,1.255577,0.08057575,0.2679794,1.391939,-0.08896706,-0.4478761,1.264503,0.04573674,0.05810054,1.24419,0.07775211,-0.1446891,1.373938,0.07393628,-0.4457777,1.357641,-0.07292178,0.03131952,1.348033,-0.002888286,-0.4368722,1.335876,-0.1394364,-0.2155526,1.336665,0.2905494,-0.1767021,1.244716,NA,NA,Unknown,NotTracked,
-0.7177734,0.793457,0.06542969,0.8959961,-0.4243164,-0.07568359,2,1,10,5,-1,-2,-1,0,-2,-3,-3,-1,0,-2,-1,-1,21,21,21,-0.9375,-0.9375,-0.9375,7.256613,6.253205,0.9591075,2.136735,3.203643,2.997047,-0.1360282,-0.4599458,1.270355,0.11394,0.1129492,1.269889,0.07902262,0.2689317,1.391647,-0.08995514,-0.4478933,1.265154,0.05453035,0.08217324,1.269555,0.0776118,-0.1448789,1.373697,0.07347655,-0.4458953,1.357239,-0.07329494,0.03074541,1.347904,-0.003311105,-0.4369583,1.335636,-0.139605,-0.2154069,1.336294,0.2904591,-0.1765649,1.245325,NA,NA,Unknown,NotTracked,
-0.7514648,0.7045898,0.1313477,0.8818359,-0.4130859,-0.07128906,-3,-3,-3,0,-4,-3,-1,2,-3,-3,-2,-1,-1,0,0,-2,42.0625,42.0625,42.0625,-1.5,-1.5,-1.5,7.225319,6.356867,0.8308461,2.130358,3.206269,3.002937,-0.136074,-0.4598292,1.268794,0.1203773,0.1217003,1.270288,0.0783093,0.2689895,1.391459,-0.08938757,-0.4465762,1.263382,0.08492945,0.06481811,1.202684,0.07745369,-0.1453037,1.373402,0.07335038,-0.446237,1.356924,-0.07341976,0.03037775,1.347754,-0.003468975,-0.4373023,1.335396,-0.1396386,-0.2154408,1.336071,0.2903003,-0.1763286,1.245429,NA,NA,Unknown,NotTracked,
-0.7563477,0.5820313,0.1484375,0.8867188,-0.4140625,-0.07617188,0,4,6,12,4,0,-3,0,-1,-1,-4,-3,-2,-1,-1,-1,52.1875,52.1875,52.1875,-2.25,-2.25,-2.25,7.24353,6.452838,0.740913,2.121349,3.209407,3.011477,-0.1368881,-0.4596076,1.268797,0.1189491,0.1362946,1.27388,0.07740456,0.2688737,1.391209,-0.08944878,-0.4399907,1.262707,0.09524948,0.0744155,1.2036,0.07570452,-0.1449284,1.372173,0.0732353,-0.4463969,1.356692,-0.07353238,0.02999351,1.347663,-0.003616295,-0.4375145,1.335213,-0.1397549,-0.2153736,1.335721,0.2900896,-0.1758795,1.245687,NA,NA,Unknown,NotTracked,
-0.7954102,0.5151367,0.1308594,0.8920898,-0.4082031,-0.06982422,-4,1,11,12,2,-2,0,0,1,-2,-4,-1,-1,-3,-1,0,43.5625,43.5625,43.5625,-3.5,-3.5,-3.5,7.270042,6.510649,0.7123559,2.113021,3.211668,3.017685,-0.1370842,-0.459172,1.267984,0.1189968,0.1417794,1.275465,0.07700203,0.268016,1.390703,-0.08965278,-0.4465826,1.263273,0.1033504,0.07918764,1.20716,0.07459318,-0.1448161,1.37167,0.07289926,-0.4465729,1.356314,-0.07356973,0.02979264,1.347603,-0.003976887,-0.4376493,1.334907,-0.1398955,-0.2153565,1.335419,0.2903234,-0.1752808,1.246145,NA,NA,Unknown,NotTracked,
-0.8632813,0.4477539,0.09814453,0.887207,-0.4086914,-0.07519531,12,-3,-4,-14,-7,-1,-1,-3,-1,-3,0,-2,0,-3,-2,-2,18.4375,18.4375,18.4375,-4.5,-4.5,-4.5,7.317352,6.566853,0.7189965,2.10524,3.212691,3.020071,-0.1376388,-0.4583055,1.267668,0.1283532,0.1503273,1.285546,0.07615966,0.2668839,1.390096,-0.08943564,-0.4423388,1.261862,0.05231317,0.1508781,1.262833,0.07346138,-0.1446934,1.371045,0.07287755,-0.4467731,1.355747,-0.07364907,0.02911155,1.347301,-0.004085211,-0.4379283,1.33425,-0.140419,-0.216039,1.334327,0.2917006,-0.1744064,1.247924,NA,NA,Unknown,NotTracked,
-0.8554688,0.4370117,0.07226563,0.8823242,-0.4047852,-0.07177734,-12,-8,-12,-11,-4,0,-1,-6,-1,-1,-2,-1,0,-1,-2,-1,2.25,2.25,2.25,-6.875,-6.875,-6.875,7.345764,6.580591,0.7455834,2.098047,3.211989,3.019797,-0.1381165,-0.4578606,1.266324,0.1317163,0.1518612,1.291614,0.07547618,0.2661086,1.389497,-0.08981238,-0.4476304,1.262685,0.07759048,0.1264305,1.290229,0.07262381,-0.1445973,1.3706,0.07276642,-0.4468214,1.355196,-0.07358249,0.02874513,1.347072,-0.004219442,-0.4380098,1.333659,-0.1408277,-0.2162365,1.333418,0.2935742,-0.1730232,1.249768,NA,NA,Unknown,NotTracked,
-0.8549805,0.4780273,0.03955078,0.8886719,-0.4140625,-0.07226563,-18,-4,-9,-10,-1,-2,-3,-4,0,0,1,0,-1,-2,0,-1,-22.375,-22.375,-22.375,-6.125,-6.125,-6.125,7.374852,6.569757,0.8119493,2.095967,3.211804,3.015343,-0.1383387,-0.4574018,1.265745,0.1289355,0.1538891,1.292842,0.07525256,0.2659816,1.389361,-0.0906115,-0.4505363,1.261378,0.1771033,0.1918825,1.302667,0.07318394,-0.1450825,1.370561,0.07274564,-0.4468192,1.354986,-0.07351391,0.02858606,1.346917,-0.004238818,-0.4380409,1.333405,-0.1409205,-0.2161974,1.33303,0.2939991,-0.1726683,1.250432,NA,NA,Unknown,NotTracked,
-0.8549805,0.4780273,0.03955078,0.8969727,-0.4072266,-0.07177734,-6,-3,-6,1,0,-2,-3,-3,-2,0,-2,0,-2,0,1,-1,-22.375,-22.375,-22.375,-3.5,-3.5,-3.5,7.374852,6.569757,0.8119493,2.101131,3.210775,3.005476,-0.137708,-0.4576673,1.264276,0.1299812,0.1574215,1.29628,0.07497146,0.2658188,1.389008,-0.0895955,-0.4391602,1.259973,0.1912475,0.1919707,1.288714,0.07347864,-0.1454616,1.370507,0.07258869,-0.4467855,1.354701,-0.07345524,0.02845487,1.346785,-0.004391847,-0.4379841,1.333081,-0.1410213,-0.2163793,1.332305,0.294155,-0.1725052,1.250505,NA,NA,Unknown,NotTracked,
-0.8378906,0.5478516,0.02880859,0.8955078,-0.4052734,-0.08642578,6,0,2,4,-1,2,0,4,-1,0,0,1,-1,-2,-1,-2,-25.4375,-25.4375,-25.4375,-2.25,-2.25,-2.25,7.400838,6.544394,0.8907709,2.108731,3.210473,2.994931,-0.1372334,-0.4581797,1.264078,0.1292631,0.1579532,1.29732,0.07475855,0.265729,1.388835,-0.08999176,-0.4480188,1.261198,0.18903,0.1814886,1.296483,0.07373465,-0.145718,1.370464,0.07255213,-0.4467482,1.354479,-0.07344404,0.02835288,1.346709,-0.004434505,-0.4379532,1.332823,-0.1411115,-0.216478,1.331753,0.2941823,-0.1724185,1.250491,NA,NA,Unknown,NotTracked,
-0.8320313,0.5883789,-0.001953125,0.887207,-0.4121094,-0.08203125,-1,3,4,2,-4,-2,1,1,-9,-8,-2,1,0,-1,0,-2,-25.4375,-25.4375,-25.4375,-4.0625,-4.0625,-4.0625,7.425263,6.519742,0.9723874,2.120871,3.208829,2.976835,-0.13646,-0.4582075,1.262101,0.1258635,0.1626486,1.300467,0.07445826,0.2653033,1.38821,-0.09133,-0.4601143,1.257641,0.1920552,0.1787629,1.294,0.0738491,-0.1458618,1.369861,0.07268683,-0.4467906,1.353929,-0.07342435,0.02809163,1.346522,-0.004299227,-0.4380374,1.332136,-0.1410385,-0.2165386,1.330763,0.2940653,-0.1723585,1.250425,NA,NA,Unknown,NotTracked,
-0.8320313,0.5883789,-0.001953125,0.894043,-0.4042969,-0.08642578,3,7,24,8,3,1,1,1,-3,-1,0,-1,-1,-2,-1,-1,-25.4375,-25.4375,-25.4375,-2.875,-2.875,-2.875,7.425263,6.519742,0.9723874,2.126073,3.207714,2.967034,-0.1360547,-0.45822,1.261559,0.1247404,0.1614173,1.300864,0.07439169,0.2652185,1.388009,-0.09153912,-0.4538592,1.259468,0.1967152,0.1689792,1.293222,0.07432318,-0.1461469,1.369775,0.07273787,-0.4467934,1.353796,-0.07339675,0.02799706,1.346433,-0.00423452,-0.4380526,1.331936,-0.1408308,-0.2164648,1.330294,0.2939545,-0.1723736,1.250474,NA,NA,Unknown,NotTracked,
-0.8237305,0.6147461,-0.004394531,0.8881836,-0.4013672,-0.08496094,3,7,24,8,3,1,1,1,-3,-4,-1,-1,0,1,0,-2,-22.875,-22.875,-22.875,-2.6875,-2.6875,-2.6875,7.439073,6.503939,1.019932,2.127293,3.206957,2.965012,-0.1354133,-0.4582717,1.260649,0.1241147,0.1630223,1.300535,0.07430822,0.2651537,1.387774,-0.09003371,-0.4500293,1.259834,0.1935103,0.1899187,1.292667,0.07469022,-0.146342,1.369684,0.07278314,-0.4467708,1.353622,-0.07334057,0.027919,1.346273,-0.004194933,-0.4380315,1.3317,-0.140594,-0.2163057,1.329712,0.2938268,-0.1722288,1.250041,NA,NA,Unknown,NotTracked,
-0.809082,0.6142578,-0.01269531,0.8964844,-0.40625,-0.08740234,-3,-2,-4,-3,-3,-3,-2,-4,0,2,0,-2,-1,-1,-1,0,-13.625,-13.625,-13.625,-0.75,-0.75,-0.75,7.463361,6.485312,1.080966,2.122118,3.20174,2.967866,-0.1345072,-0.4603278,1.259931,0.1227844,0.1686297,1.301936,0.07420523,0.2650708,1.387289,-0.08953219,-0.4386161,1.260475,0.1824278,0.1919009,1.294111,0.07474335,-0.1461954,1.368992,0.07309558,-0.4467469,1.353225,-0.07331561,0.02781919,1.34615,-0.003885436,-0.4380535,1.331247,-0.1401753,-0.215893,1.328951,0.2935537,-0.1722507,1.249735,NA,NA,Unknown,NotTracked,
-0.7749023,0.6171875,-0.009765625,0.9023438,-0.4067383,-0.08056641,4,-5,-9,-3,-4,-1,0,1,-1,1,1,-2,-2,-1,0,-1,-4.3125,-4.3125,-4.3125,3.375,3.375,3.375,7.480933,6.467718,1.120371,2.120182,3.198861,2.973224,-0.134398,-0.4605266,1.260245,0.1226701,0.1704309,1.30117,0.07419288,0.2648964,1.386795,-0.09019206,-0.4491823,1.259938,0.1893246,0.186991,1.295391,0.07544845,-0.1465288,1.368893,0.073305,-0.4467623,1.352968,-0.0732613,0.02764422,1.34596,-0.003688711,-0.4380927,1.330963,-0.1398517,-0.2161631,1.32832,0.2934868,-0.1723686,1.249227,NA,NA,Unknown,NotTracked,
-0.7749023,0.6171875,-0.009765625,0.8984375,-0.4145508,-0.078125,-2,-5,-1,-2,-1,-1,-1,-3,3,11,3,-1,0,-1,0,0,-4.3125,-4.3125,-4.3125,8.5625,8.5625,8.5625,7.480933,6.467718,1.120371,2.122692,3.197474,2.980177,-0.1345158,-0.4601736,1.260082,0.1243014,0.1719636,1.301159,0.07411212,0.2648276,1.386457,-0.09006117,-0.448379,1.260007,0.1888287,0.18079,1.294922,0.07582509,-0.1466902,1.368792,0.07341222,-0.4467666,1.352808,-0.07325594,0.02749929,1.345862,-0.003579041,-0.4381119,1.330701,-0.139671,-0.216054,1.328065,0.2935255,-0.1723176,1.248906,NA,NA,Unknown,NotTracked,
-0.7749023,0.6157227,-0.01513672,0.8969727,-0.409668,-0.07958984,-10,-4,-4,-7,-5,-1,-2,-3,-5,-8,-2,0,1,-3,0,-2,-3.875,-3.875,-3.875,9,9,9,7.491152,6.45612,1.137729,2.126206,3.196843,2.988526,-0.1344598,-0.4601832,1.260682,0.1238943,0.1717177,1.30097,0.0740229,0.2647631,1.386094,-0.08986131,-0.4549536,1.256566,0.1891118,0.1847953,1.295302,0.07617227,-0.1468489,1.368725,0.07366642,-0.4467585,1.35262,-0.07324448,0.02737835,1.345778,-0.003373854,-0.4381368,1.330584,-0.1396079,-0.2159268,1.327951,0.293449,-0.1722918,1.248537,NA,NA,Unknown,NotTracked,
-0.7832031,0.6108398,-0.001464844,0.8896484,-0.409668,-0.07226563,6,1,3,-6,1,-2,-2,0,2,0,-1,-3,-2,-1,0,1,-0.5,-0.5,-0.5,4.1875,4.1875,4.1875,7.47541,6.454877,1.122786,2.125211,3.196141,3.001423,-0.134396,-0.4606036,1.261075,0.1239179,0.1704711,1.301551,0.07402033,0.2645934,1.385771,-0.09097756,-0.4531695,1.259149,0.1840966,0.200898,1.2965,0.07648018,-0.1470047,1.368627,0.07384801,-0.4467471,1.35247,-0.07322172,0.02732104,1.345716,-0.00317768,-0.4381219,1.330338,-0.1395082,-0.2160512,1.327839,0.2933082,-0.1722548,1.248048,NA,NA,Unknown,NotTracked,
-0.7832031,0.6108398,-0.001464844,0.8911133,-0.4130859,-0.06787109,-2,3,4,0,3,0,-4,-3,1,0,1,0,-2,-1,-1,0,-0.5,-0.5,-0.5,-0.375,-0.375,-0.375,7.47541,6.454877,1.122786,2.119651,3.195459,3.010123,-0.134436,-0.4607314,1.261569,0.1241233,0.1736052,1.299805,0.07392579,0.2645057,1.38528,-0.08953778,-0.4454969,1.259884,0.1910165,0.1871378,1.293222,0.07636533,-0.1467772,1.368079,0.07406029,-0.446738,1.352255,-0.07317284,0.02719446,1.34562,-0.002961179,-0.438138,1.330077,-0.1393255,-0.2160509,1.327677,0.2930504,-0.1723033,1.247731,NA,NA,Unknown,NotTracked,
-0.7915039,0.6147461,0.01269531,0.8969727,-0.4121094,-0.06347656,-12,-6,-7,-5,-6,0,1,-3,-4,-4,-2,-3,0,0,1,-1,3.3125,3.3125,3.3125,-1.4375,-1.4375,-1.4375,7.447016,6.458262,1.087062,2.111097,3.194243,3.01884,-0.1344023,-0.4602945,1.262504,0.1243039,0.1710443,1.299186,0.07380968,0.2645887,1.38494,-0.09013751,-0.4446511,1.260403,0.1912474,0.1979608,1.285429,0.07653283,-0.1468391,1.368075,0.07410375,-0.4467036,1.352171,-0.07311608,0.02705274,1.345544,-0.002925801,-0.438099,1.330012,-0.1392653,-0.2160556,1.327657,0.2928622,-0.1723016,1.247533,NA,NA,Unknown,NotTracked,
-0.796875,0.6245117,0.005371094,0.8867188,-0.4072266,-0.0703125,-8,-1,0,-2,-3,-1,-2,-2,9,2,-6,-1,0,0,0,0,3.625,3.625,3.625,-2.125,-2.125,-2.125,7.444949,6.458822,1.081808,2.105682,3.192693,3.022645,-0.1347749,-0.4608674,1.262918,0.1252669,0.1719461,1.299122,0.07394077,0.2644826,1.384678,-0.0898114,-0.4528863,1.258736,0.1863536,0.2043721,1.288125,0.07589762,-0.1461581,1.367004,0.07436428,-0.4466526,1.351855,-0.07299916,0.0269421,1.345349,-0.002676368,-0.4380093,1.329489,-0.139052,-0.2160744,1.327507,0.2929205,-0.1722675,1.247476,NA,NA,Unknown,NotTracked,
-0.7666016,0.6132813,0.01611328,0.9008789,-0.4023438,-0.07275391,-1,-2,-3,-3,-2,-2,0,-1,-3,-4,-1,0,-1,1,3,-2,3.625,3.625,3.625,1.375,1.375,1.375,7.441184,6.458815,1.071469,2.115523,3.195011,3.012703,-0.1341742,-0.4607913,1.262089,0.123593,0.1725674,1.298684,0.07395902,0.2645102,1.384448,-0.08974095,-0.4509334,1.258706,0.06860615,0.134832,1.271761,0.07645684,-0.146331,1.36706,0.07471485,-0.4465554,1.35164,-0.07292023,0.0268416,1.34523,-0.002315696,-0.4379486,1.329269,-0.1389655,-0.216217,1.327425,0.2930115,-0.1723073,1.247724,NA,NA,Unknown,NotTracked,
-0.7666016,0.6132813,0.01611328,0.8950195,-0.40625,-0.07226563,-5,-3,-2,0,-1,1,-1,-1,-9,-12,0,0,2,0,0,-1,3.625,3.625,3.625,5.5625,5.5625,5.5625,7.441184,6.458815,1.071469,2.130871,3.196981,3.00145,-0.1340215,-0.4608873,1.260483,0.1260542,0.1730311,1.296479,0.07398364,0.2645597,1.384051,-0.08894378,-0.4423188,1.259582,0.06902619,0.136068,1.27229,0.07653418,-0.1463352,1.366953,0.07499908,-0.4466405,1.351376,-0.07282675,0.02679378,1.345143,-0.002070515,-0.4380299,1.329047,-0.1387948,-0.2162712,1.327241,0.2943292,-0.1729949,1.251673,NA,NA,Unknown,NotTracked,
-0.6079102,0.5898438,0.05957031,0.9116211,-0.3994141,-0.0859375,-2,-2,-2,-3,-1,0,-1,-2,11,3,-7,-1,-1,-2,-2,2,27.4375,27.4375,27.4375,10.625,10.625,10.625,7.2913,6.427764,0.8031932,2.153247,3.198363,2.98859,-0.1333264,-0.461017,1.260062,0.1653112,0.06304406,1.244274,0.07395487,0.2645909,1.383942,-0.09066876,-0.4571495,1.257872,0.1235737,0.06006023,1.195535,0.07694594,-0.1466212,1.367131,0.07524173,-0.4466946,1.351227,-0.07283779,0.02671427,1.345128,-0.001871348,-0.4381044,1.328944,-0.1386866,-0.2162527,1.327125,0.2960533,-0.1737134,1.256892,NA,NA,Unknown,NotTracked,
-0.5966797,0.5942383,0.0859375,0.9052734,-0.3911133,-0.08642578,0,-1,-3,-3,0,-1,-2,10,1,2,-7,-5,-2,-1,-2,0,33.1875,33.1875,33.1875,10.3125,10.3125,10.3125,7.224795,6.408514,0.6936038,2.173253,3.199111,2.979803,-0.1329799,-0.4610434,1.260009,0.1533607,0.05527425,1.240788,0.07397474,0.2646534,1.383737,-0.0861031,-0.4341471,1.258243,0.1105732,0.02585806,1.270211,0.07682662,-0.1464583,1.367048,0.07545479,-0.4468018,1.351047,-0.07283804,0.0266992,1.345122,-0.001714741,-0.4382102,1.328768,-0.1385935,-0.2165404,1.327048,0.2971273,-0.1754432,1.266173,NA,NA,Unknown,NotTracked,
-0.6269531,0.5712891,0.1860352,0.8828125,-0.4135742,-0.06347656,0,-2,-1,1,0,-2,-1,-16,-3,3,-3,-4,-2,-4,-1,-2,48.375,48.375,48.375,12.8125,12.8125,12.8125,6.995215,6.299922,0.2906767,2.188335,3.200863,2.978806,-0.1325102,-0.4597869,1.260678,0.161273,0.03745092,1.197488,0.07389688,0.2646438,1.383396,-0.08782476,-0.4537689,1.257111,0.1251524,0.01265087,1.255286,0.07728577,-0.1467642,1.36714,0.07604527,-0.4470396,1.350533,-0.07280563,0.02659886,1.34503,-0.001204289,-0.43852,1.327941,-0.1385244,-0.2164135,1.326999,0.2972237,-0.1778634,1.28372,NA,NA,Unknown,Unknown,
-0.5722656,0.6113281,0.3349609,0.8647461,-0.4116211,-0.09863281,-2,1,3,0,-1,1,0,-4,-1,0,3,5,-1,-3,-2,-1,45.5,45.5,45.5,4.6875,4.6875,4.6875,6.720956,5.865271,9.637787,2.1779,3.194855,3.008907,-0.132053,-0.4588223,1.261487,0.1749224,0.01884881,1.166574,0.07417108,0.2644571,1.383116,-0.08887984,-0.4725984,1.251289,0.1499904,0.01902448,1.239,0.07729356,-0.1467776,1.367129,0.07615871,-0.4470025,1.350408,-0.07273032,0.02649891,1.344966,-0.001044647,-0.4385223,1.327449,-0.1385454,-0.216448,1.327093,0.2953092,-0.1774313,1.289025,NA,NA,Unknown,Unknown,
-0.3994141,0.6918945,0.421875,0.8930664,-0.4433594,-0.04785156,1,0,2,4,-1,-3,-2,-1,-2,0,2,0,-1,-1,-1,-1,48.0625,48.0625,48.0625,-1.5,-1.5,-1.5,6.681401,5.482444,9.370341,2.148158,3.196651,3.043493,-0.1333186,-0.4585337,1.264182,0.240089,-0.08612132,1.126005,0.07540898,0.263721,1.382227,-0.08793692,-0.4333745,1.262183,0.1984623,-0.05843386,1.1185,0.07687887,-0.1470469,1.36719,0.07746331,-0.445949,1.349972,-0.0724115,0.02607086,1.344653,0.000548598,-0.4374839,1.325703,-0.1385542,-0.2168867,1.327396,0.2872103,-0.1772395,1.304198,NA,NA,NotTracked,Unknown,
-0.3486328,0.7910156,0.4208984,0.894043,-0.4213867,-0.04492188,-5,-9,-46,-17,-3,-1,-2,-7,-7,-7,-4,-2,0,0,0,0,41.875,41.875,41.875,-3.875,-3.875,-3.875,6.688075,5.348687,9.305247,2.125591,3.192751,3.066065,-0.1333791,-0.4591127,1.266222,0.2667913,-0.167316,1.094915,0.07655734,0.2631041,1.381203,-0.08772785,-0.4382063,1.260837,0.2304842,-0.1707014,1.101333,0.0768922,-0.1475411,1.367401,0.0783586,-0.4451901,1.349766,-0.07217631,0.02589028,1.344331,0.001763162,-0.4364281,1.323918,-0.1386537,-0.217185,1.32754,0.2651869,-0.2266747,1.351963,NA,NA,NotTracked,Closed,
-0.09765625,0.7651367,0.4174805,0.9072266,-0.425293,-0.04345703,1,-4,-6,-12,-1,0,-2,-1,-3,-5,-1,0,-1,0,-1,-1,50.875,50.875,50.875,-6.125,-6.125,-6.125,6.738533,4.934494,9.143712,2.115302,3.19139,3.072162,-0.133694,-0.4568779,1.266205,0.2801336,-0.2099209,1.091636,0.07700945,0.262582,1.380468,-0.08735648,-0.4412375,1.259123,0.2519878,-0.2390867,1.0667,0.0769291,-0.1474787,1.367275,0.07896622,-0.4448182,1.349482,-0.07210923,0.02576389,1.344169,0.002379728,-0.4361039,1.323158,-0.1386317,-0.2173241,1.32757,0.2638995,-0.2267635,1.356403,NA,NA,NotTracked,Unknown,
0.2490234,0.9033203,0.4746094,0.9023438,-0.4067383,-0.05371094,0,-2,7,4,-3,0,-3,0,1,5,4,-2,-1,0,1,-1,70.0625,70.0625,70.0625,-3.5625,-3.5625,-3.5625,6.822069,4.684379,9.04905,2.115708,3.192168,3.068816,-0.1348047,-0.4568304,1.266538,0.2914231,-0.247753,1.099153,0.07757144,0.2621683,1.379778,-0.09763736,-0.4301511,1.270632,0.2776186,-0.2929737,1.1415,0.07673477,-0.1476066,1.367174,0.07941882,-0.4444855,1.349429,-0.07203659,0.02575045,1.344082,0.002836634,-0.4357317,1.322734,-0.138669,-0.2173851,1.327552,0.3137355,-0.1757274,1.355067,NA,NA,NotTracked,Unknown,
0.2490234,0.9033203,0.4746094,0.9033203,-0.3945313,-0.06689453,0,4,26,1,-2,-2,0,0,-1,-1,-2,-2,-2,-1,-1,-1,70.0625,70.0625,70.0625,-4.0625,-4.0625,-4.0625,6.822069,4.684379,9.04905,2.125697,3.194566,3.05435,-0.1351741,-0.4576615,1.266781,0.2980989,-0.2920009,1.09198,0.07813814,0.2620568,1.379161,-0.09007937,-0.4419383,1.262204,0.2672701,-0.2783522,1.09545,0.07755033,-0.1477861,1.367438,0.07973294,-0.4443629,1.349432,-0.07194518,0.02550253,1.343859,0.003116838,-0.4355955,1.322556,-0.13872,-0.2175222,1.327529,0.3139923,-0.1761297,1.354775,NA,NA,NotTracked,Unknown,
0.6079102,0.8735352,0.3564453,0.8955078,-0.3911133,-0.09082031,1,3,6,1,-1,1,-1,1,0,-1,-2,-4,-2,-1,1,0,71.375,71.375,71.375,-6.125,-6.125,-6.125,7.029289,4.236381,8.901964,2.133318,3.198436,3.03894,-0.1345367,-0.4570171,1.264212,0.3144082,-0.3532633,1.123461,0.07927128,0.2616799,1.377901,-0.08871207,-0.4535269,1.257122,0.3032748,-0.4088843,1.14825,0.0772133,-0.1479263,1.367188,0.08058003,-0.4440795,1.349347,-0.07167232,0.02528071,1.343533,0.00390993,-0.4353151,1.321998,-0.1385752,-0.2175402,1.327436,0.3051763,-0.1803614,1.353074,NA,NA,NotTracked,Unknown,
0.7104492,0.6611328,0.2006836,0.8886719,-0.3999023,-0.08447266,-1,-2,-1,-3,-1,-1,0,-1,-3,-4,-7,-2,-4,-2,-2,-2,68.75,68.75,68.75,-4.25,-4.25,-4.25,7.192167,3.904391,8.78423,2.137893,3.202836,3.027033,-0.133701,-0.456616,1.263604,0.3192266,-0.3866824,1.140349,0.07980144,0.2614121,1.377567,-0.0883563,-0.4427878,1.259722,0.3309155,-0.4472228,1.17675,0.07712121,-0.1480449,1.367126,0.08120756,-0.4439965,1.349357,-0.07157166,0.02518751,1.343437,0.004544967,-0.4352294,1.321659,-0.1385797,-0.2175408,1.327402,0.3046217,-0.1832191,1.351282,NA,NA,NotTracked,Unknown,
0.9179688,0.6806641,0.1157227,0.9125977,-0.4008789,-0.105957,0,0,4,0,0,-2,0,-1,1,6,6,1,2,1,1,2,88.875,88.875,88.875,-0.125,-0.125,-0.125,7.364336,3.685601,8.67417,2.138968,3.207473,3.024402,-0.1331761,-0.4566993,1.262004,0.3252371,-0.4095165,1.156115,0.08014546,0.2612008,1.377263,-0.08972816,-0.4423248,1.260729,0.3439343,-0.4399504,1.142923,0.07856292,-0.1482967,1.367316,0.08177514,-0.4439881,1.34932,-0.07149559,0.02505566,1.343307,0.00513164,-0.4352047,1.321377,-0.1385036,-0.217471,1.327276,0.3048596,-0.1883512,1.347771,NA,NA,NotTracked,Unknown,
0.9194336,0.6376953,0.06396484,0.9248047,-0.409668,-0.1166992,-2,1,2,-1,-2,-1,-1,-1,-10,-5,-8,-3,-2,0,-2,-4,91.125,91.125,91.125,1.8125,1.8125,1.8125,7.470278,3.592132,8.600065,2.137965,3.211666,3.026383,-0.1331435,-0.4561916,1.26125,0.3291488,-0.4363542,1.17597,0.0806153,0.2609341,1.376961,-0.08797244,-0.4320666,1.261082,0.3632887,-0.4324724,1.16275,0.07838521,-0.1485271,1.367186,0.08217777,-0.4440702,1.34934,-0.0713177,0.02484695,1.343059,0.005524667,-0.4351998,1.321311,-0.138449,-0.2174515,1.327174,0.3059808,-0.1958928,1.343421,NA,NA,NotTracked,Unknown,
1.083496,0.6333008,-0.07421875,0.9023438,-0.4335938,-0.1196289,-1,-1,0,0,-1,-4,0,-5,-5,-7,-4,-1,-2,0,0,-1,85.9375,85.9375,85.9375,7.4375,7.4375,7.4375,7.898622,3.372589,8.267393,2.1385,3.218207,3.032205,-0.1327403,-0.4559761,1.26086,0.3402315,-0.4636473,1.220453,0.08179332,0.2606336,1.376107,-0.08518986,-0.4362606,1.256693,0.3539855,-0.4513897,1.189,0.079241,-0.1488271,1.366972,0.08315729,-0.4442204,1.349033,-0.07113539,0.02482575,1.342921,0.006528887,-0.4351398,1.320763,-0.1384118,-0.2174703,1.327085,0.3081602,-0.2097615,1.335213,NA,NA,NotTracked,Unknown,
1.043945,0.7197266,-0.2504883,0.8603516,-0.4208984,-0.1064453,0,0,2,-1,-1,-1,-1,-2,-1,-1,-6,-1,-1,-2,-3,0,7.1875,7.1875,7.1875,14.375,14.375,14.375,8.267882,3.281154,7.914121,2.138963,3.231603,3.055548,-0.1352606,-0.4556158,1.263198,0.3499289,-0.4792904,1.252731,0.08293542,0.2604643,1.375783,-0.08691133,-0.4284434,1.260244,0.3881313,-0.4759443,1.243971,0.07907986,-0.1489942,1.366605,0.08376711,-0.4442537,1.348708,-0.0710787,0.02479647,1.342874,0.007103242,-0.4350187,1.320512,-0.138444,-0.2172558,1.32734,0.3079004,-0.2162618,1.332337,NA,NA,NotTracked,Unknown,
