ALX,ALY,ALZ,ARX,ARY,ARZ,EMG0L,EMG1L,EMG2L,EMG3L,EMG4L,EMG5L,EMG6L,EMG7L,EMG0R,EMG1R,EMG2R,EMG3R,EMG4R,EMG5R,EMG6R,EMG7R,GLX,GLY,GLZ,GRX,GRY,GRZ,ORL,OPL,OYL,ORR,OPR,OYR,LHNX,LHNY,LHNZ,RHNX,RHNY,RHNZ,HX,HY,HZ,LTX,LTY,LTZ,RTX,RTY,RTZ,SpineMidX,SpineMidY,SpineMidZ,SpineBaseX,SpineBaseY,SpineBaseZ,ShoulderLeftX,ShoulderLeftY,ShoulderLeftZ,ShoulderRightX,ShoulderRightY,ShoulderRightZ,ElbowLeftX,ElbowLeftY,ElbowLeftZ,ElbowRightX,ElbowRightY,ElbowRightZ,Myo_Pose_left,Myo_Pose_Right,Kinect_pose_left,Kinect_pose_right
1.023438,0.6435547,-0.02246094,0.887207,-0.4150391,-0.1137695,13,1,6,3,1,1,2,5,-7,5,1,-3,-1,-1,-1,-2,-35.0625,-35.0625,-35.0625,2.5625,2.5625,2.5625,7.617624,3.291757,0.8959602,2.101231,3.223486,7.506341,-0.1310003,-0.4519503,1.314158,0.2966433,-0.4720439,1.241621,0.09362228,0.2567451,1.408234,-0.1759981,-0.4487073,1.298371,0.2509134,-0.4787218,1.213317,0.08947515,-0.1540332,1.401256,0.09454316,-0.4507827,1.386345,-0.071979,0.01933724,1.384821,0.01814425,-0.4401855,1.35619,-0.1322492,-0.2166077,1.374197,0.3044034,-0.2234731,1.357626,NA,NA,NotTracked,NotTracked,
1.024902,0.7607422,0.1513672,0.8891602,-0.4121094,-0.1015625,-24,-5,-1,0,0,0,-1,2,5,12,1,1,0,1,-1,1,-39.3125,-39.3125,-39.3125,2.9375,2.9375,2.9375,7.400921,3.391072,1.093603,2.106519,3.222474,7.504505,-0.1314045,-0.4518103,1.314185,0.2892739,-0.4658042,1.225525,0.0933962,0.2566225,1.408277,-0.1808377,-0.4572417,1.307217,0.2563428,-0.4669009,1.259267,0.08948331,-0.1544263,1.401065,0.09416639,-0.4507957,1.38639,-0.0720591,0.01933651,1.384837,0.01774102,-0.4401864,1.356244,-0.1324531,-0.2165606,1.374253,0.3043077,-0.2219837,1.359046,NA,NA,NotTracked,NotTracked,
0.9594727,0.9047852,0.2211914,0.8764648,-0.4208984,-0.1069336,-13,4,31,5,1,-1,-2,0,-2,-4,0,1,-2,-3,-3,-1,-35.125,-35.125,-35.125,-0.375,-0.375,-0.375,7.198092,3.549957,1.291344,2.107923,3.222088,7.503951,-0.1319011,-0.4512267,1.313374,0.2811634,-0.4489205,1.203715,0.09316868,0.2566363,1.408249,-0.1783661,-0.4560745,1.302694,0.2600128,-0.4656586,1.23475,0.08895364,-0.1540996,1.401109,0.09376338,-0.4506387,1.386371,-0.07218279,0.01939408,1.384832,0.01734146,-0.4400056,1.356143,-0.1327822,-0.2165258,1.374318,0.304333,-0.2200859,1.360475,NA,NA,NotTracked,Unknown,
0.9042969,1.038574,0.3041992,0.875,-0.4272461,-0.08837891,11,-2,0,-10,-9,-4,2,7,-1,-4,-1,2,-1,-3,-1,0,-39.1875,-39.1875,-39.1875,-3.1875,-3.1875,-3.1875,7.035714,3.767568,1.45005,2.107668,3.221284,7.502116,-0.1321627,-0.4521772,1.315347,0.2747764,-0.4265294,1.175748,0.0929027,0.2566199,1.408364,-0.1806768,-0.4595199,1.307926,0.251822,-0.4562701,1.2115,0.08809824,-0.1540645,1.401331,0.09279022,-0.4507107,1.386446,-0.07228725,0.01943664,1.384851,0.0163157,-0.4399887,1.356103,-0.1333339,-0.2159843,1.37441,0.3042891,-0.2165428,1.362193,NA,NA,NotTracked,Unknown,
0.7519531,1.101563,0.4160156,0.8930664,-0.4243164,-0.07226563,-24,-13,-18,7,-1,2,-1,-24,-1,-8,-4,-2,0,-1,0,0,-59.1875,-59.1875,-59.1875,-6,-6,-6,6.893586,4.03666,1.579041,2.11061,3.22253,7.493732,-0.1321815,-0.4520205,1.313967,0.2668327,-0.3862425,1.145248,0.09275454,0.2566807,1.408448,-0.1801551,-0.4673876,1.3085,0.2648584,-0.457547,1.122667,0.08728687,-0.1537044,1.401297,0.09186044,-0.4505259,1.386298,-0.07233619,0.01946143,1.384831,0.015232,-0.4396826,1.355681,-0.1335352,-0.21597,1.37445,0.3035225,-0.2100025,1.363834,NA,NA,NotTracked,Unknown,
0.6665039,1.039551,0.4296875,0.8793945,-0.4267578,-0.07421875,-52,-16,-5,-1,0,-4,0,-3,-3,-9,-4,0,0,-2,-3,-4,-52.25,-52.25,-52.25,-7.375,-7.375,-7.375,6.837332,4.188364,1.631142,2.11324,3.223338,7.486819,-0.1326414,-0.4517573,1.313023,0.256409,-0.3441711,1.113129,0.09245199,0.2566863,1.408477,-0.1789933,-0.4589747,1.301573,0.2741947,-0.3972836,1.082625,0.08656525,-0.153403,1.401292,0.09050077,-0.4501639,1.386049,-0.07240134,0.01949081,1.384828,0.01376136,-0.4392603,1.355348,-0.1337111,-0.2159429,1.374428,0.3018109,-0.1957366,1.36712,NA,NA,NotTracked,Unknown,
0.456543,0.9838867,0.4833984,0.8969727,-0.4311523,-0.06689453,-16,2,0,7,9,8,0,-3,-3,0,-2,-1,0,-1,-1,-2,-14.125,-14.125,-14.125,-7.375,-7.375,-7.375,6.772109,4.516323,1.723014,2.117891,3.225218,7.473024,-0.1328234,-0.4516878,1.311928,0.2458932,-0.2264001,1.118493,0.09191664,0.2566667,1.408867,-0.1798109,-0.4583995,1.30423,0.2527221,-0.2843596,1.0605,0.0856634,-0.1530305,1.401547,0.08964727,-0.4497871,1.386074,-0.07254504,0.01954101,1.384804,0.01283796,-0.4389358,1.355354,-0.1338949,-0.2159349,1.374277,0.3138672,-0.1918098,1.363849,NA,NA,NotTracked,Unknown,
0.06396484,0.8798828,0.4316406,0.8881836,-0.3979492,-0.1010742,34,6,7,0,-4,0,11,7,0,1,0,-3,-3,0,0,0,35.8125,35.8125,35.8125,-5.6875,-5.6875,-5.6875,6.785985,5.064771,1.836039,2.132164,3.231181,7.44703,-0.1324496,-0.4509201,1.309367,0.2367967,-0.1730044,1.122746,0.09167117,0.2567002,1.409008,-0.1794436,-0.424998,1.2828,0.2423336,-0.2233161,1.080625,0.08535922,-0.1529212,1.401614,0.08940786,-0.449753,1.386074,-0.07264473,0.01954946,1.384755,0.01254042,-0.4389689,1.355336,-0.1340421,-0.2159137,1.374046,0.3330349,-0.1835216,1.347568,NA,NA,NotTracked,Unknown,
-0.1611328,0.8803711,0.40625,0.8955078,-0.4052734,-0.1123047,-3,-4,-6,-3,0,-5,-4,-17,-5,-7,-2,1,-1,-2,-1,-3,52.75,52.75,52.75,-1.1875,-1.1875,-1.1875,6.854699,5.433291,1.912044,2.15185,3.23792,7.419737,-0.1318063,-0.4509059,1.307366,0.2196786,-0.04414238,1.122073,0.0912788,0.2567911,1.40962,-0.1756219,-0.4531856,1.287127,0.2328391,-0.07990859,1.074417,0.08512714,-0.1529671,1.4019,0.08879946,-0.4498496,1.386126,-0.07376928,0.01974151,1.38402,0.01164019,-0.4394281,1.355771,-0.1341947,-0.2159644,1.373546,0.3188029,-0.181524,1.303759,NA,NA,NotTracked,Unknown,
-0.3720703,0.7578125,0.2944336,0.9155273,-0.4116211,-0.1142578,-1,-1,1,-1,-17,-44,0,4,-2,-7,-4,-1,-1,-3,-2,-3,46.125,46.125,46.125,-3.1875,-3.1875,-3.1875,6.937264,5.778852,1.994517,2.159178,3.240191,7.407338,-0.1310571,-0.451214,1.306403,0.2071976,0.02431913,1.12115,0.09069397,0.2568853,1.4102,-0.176927,-0.4596682,1.294765,0.2281685,-0.01515277,1.076,0.08500932,-0.1532457,1.402091,0.08769228,-0.451368,1.386037,-0.07377999,0.0197359,1.384051,0.01030654,-0.4411922,1.356259,-0.1341376,-0.2160221,1.373306,0.3266641,-0.1803133,1.276687,NA,NA,NotTracked,Unknown,
-0.5375977,0.6396484,0.25,0.8759766,-0.4160156,-0.1152344,-15,-4,-1,2,-3,-14,-4,-26,2,2,-1,-2,-3,0,-3,-2,53.1875,53.1875,53.1875,-7.5625,-7.5625,-7.5625,7.046258,6.077904,2.093044,2.157717,3.239005,7.400434,-0.1308365,-0.4509973,1.305291,0.2044218,0.07195885,1.12773,0.08917721,0.2576659,1.410389,-0.1772463,-0.4506545,1.290984,0.213155,0.0784141,1.062937,0.08548699,-0.1522012,1.402385,0.0872044,-0.4512222,1.38598,-0.07376726,0.01993592,1.384127,0.009638835,-0.441028,1.356443,-0.1344285,-0.2146966,1.372952,0.326105,-0.168843,1.251219,NA,NA,NotTracked,Open,
-0.5688477,0.6679688,0.2592773,0.8764648,-0.418457,-0.1088867,10,-3,-3,-2,-1,2,8,-9,-1,-4,-2,-2,0,0,1,-1,52.125,52.125,52.125,-8.9375,-8.9375,-8.9375,7.110963,6.206471,2.148358,2.156486,3.239806,7.395935,-0.130924,-0.4509128,1.304757,0.2000503,0.1205857,1.132903,0.08711535,0.2583074,1.410566,-0.17753,-0.4707965,1.292948,0.2128423,0.1166922,1.068444,0.08571966,-0.1509385,1.402429,0.08583311,-0.4493276,1.385724,-0.07437547,0.02087102,1.383835,0.007885356,-0.4391485,1.356926,-0.1348334,-0.2114024,1.372753,0.3320416,-0.1319287,1.212704,NA,NA,NotTracked,Open,
-0.5849609,0.5273438,0.1855469,0.8706055,-0.421875,-0.1030273,14,11,1,-1,-1,2,2,25,-11,-5,-3,3,-1,-1,0,-5,39.6875,39.6875,39.6875,-8.1875,-8.1875,-8.1875,7.246202,6.427183,2.27169,2.152378,3.242749,7.389545,-0.130207,-0.4505274,1.304365,0.2015944,0.14038,1.144687,0.08589868,0.257903,1.41061,-0.1767425,-0.4609192,1.294113,0.1666891,0.1542625,1.181083,0.08571649,-0.150968,1.402462,0.08482844,-0.4473234,1.38552,-0.07391157,0.02196949,1.383073,0.006429404,-0.4370277,1.357453,-0.1348815,-0.2102018,1.37251,0.3280779,-0.1514377,1.236129,NA,NA,NotTracked,Open,
-0.6083984,0.4453125,0.1083984,0.8686523,-0.4179688,-0.08789063,-3,-7,-6,-4,-18,-61,-20,-13,-1,3,4,0,0,0,-1,0,43.625,43.625,43.625,-0.9375,-0.9375,-0.9375,7.404647,6.592224,2.409244,2.153418,3.245741,7.384242,-0.1310599,-0.4500603,1.304379,0.1981354,0.171648,1.151559,0.08533283,0.257831,1.41053,-0.1759681,-0.4479447,1.282107,0.1627165,0.1804674,1.1987,0.08593006,-0.151095,1.402,0.08333308,-0.4451557,1.384874,-0.07264449,0.02257512,1.383108,0.004495303,-0.43491,1.357191,-0.1349593,-0.2081256,1.372443,0.3280892,-0.1498821,1.234674,NA,NA,NotTracked,Open,
-0.5874023,0.4624023,0.0390625,0.8686523,-0.4179688,-0.09521484,3,9,-3,-3,3,14,1,-2,-10,-3,0,1,1,1,0,-2,31.125,31.125,31.125,9.5625,9.5625,9.5625,7.564227,6.704607,2.552995,2.162322,3.248162,7.383109,-0.1309651,-0.4498318,1.302905,0.1906058,0.2081197,1.154839,0.08508321,0.2575982,1.410346,-0.1756199,-0.4593629,1.288642,0.1558792,0.2075235,1.20475,0.08654732,-0.1510607,1.401402,0.08315882,-0.4432933,1.384437,-0.07073401,0.02372097,1.383045,0.004298987,-0.4333035,1.356918,-0.1351476,-0.2071437,1.372124,0.3173689,-0.109911,1.189456,NA,NA,NotTracked,Unknown,
-0.5874023,0.4624023,0.0390625,0.8896484,-0.425293,-0.09667969,-39,-4,-4,-3,3,24,-5,-23,7,10,1,-2,-2,1,0,0,31.125,31.125,31.125,19.6875,19.6875,19.6875,7.564227,6.704607,2.552995,2.179264,3.25009,7.385509,-0.132233,-0.4503049,1.304754,0.1891465,0.2134309,1.171038,0.08489775,0.2572428,1.409811,-0.1789175,-0.4663384,1.298905,0.1672849,0.1869502,1.212778,0.08775593,-0.1471276,1.401685,0.08239805,-0.4364269,1.383864,-0.06493029,0.03693855,1.381334,0.003480279,-0.4265561,1.356242,-0.1356814,-0.2048187,1.372578,0.3088,-0.04272212,1.163761,NA,NA,NotTracked,Unknown,
-0.6103516,0.328125,-0.04101563,0.8793945,-0.4277344,-0.1015625,25,-7,-2,-1,-35,-78,-9,5,-2,-5,-2,0,0,-1,0,2,9.875,9.875,9.875,15.5,15.5,15.5,7.781409,6.799915,2.771817,2.203596,3.249079,7.392843,-0.1323355,-0.4513318,1.30633,0.1348074,0.2794554,1.24322,0.08482775,0.2574355,1.408953,-0.1776344,-0.4616883,1.302067,0.1408733,0.2381422,1.308522,0.08909925,-0.1457437,1.401287,0.08208552,-0.4337032,1.383195,-0.06329663,0.04147462,1.381501,0.003117659,-0.4239413,1.355536,-0.1365943,-0.2024697,1.373789,0.2818796,0.05289355,1.152512,NA,NA,NotTracked,Open,
-0.7822266,0.2958984,-0.1367188,0.8706055,-0.4550781,-0.08837891,-38,-1,3,6,4,9,-25,-4,2,-4,-4,-3,-1,0,1,-1,1.625,1.625,1.625,11.6875,11.6875,11.6875,8.105741,6.888444,3.09209,2.211914,3.251187,7.398841,-0.1323727,-0.45085,1.30617,0.1709632,0.2728063,1.189717,0.08499637,0.2577773,1.408167,-0.1767214,-0.4527722,1.293766,0.1438802,0.2478244,1.246688,0.08961245,-0.1448759,1.401281,0.08195891,-0.4325593,1.382905,-0.06313871,0.04216429,1.38135,0.002988273,-0.4230078,1.355332,-0.1368614,-0.2012919,1.374317,0.2835773,0.05082045,1.152565,NA,NA,NotTracked,Open,
-0.8066406,0.2670898,-0.1391602,0.8852539,-0.465332,-0.07275391,84,1,-1,4,7,9,2,22,-1,-5,-2,-2,-2,-3,-2,-2,-3.5625,-3.5625,-3.5625,7.875,7.875,7.875,8.154665,6.901419,3.146592,2.215687,3.253782,7.406095,-0.1331844,-0.4510013,1.306323,0.1696217,0.2723215,1.191655,0.08493912,0.2581647,1.406638,-0.1772782,-0.4580576,1.29378,0.1423797,0.2446134,1.246635,0.08984014,-0.144354,1.401144,0.08179191,-0.431969,1.382521,-0.06296623,0.0432585,1.381327,0.00281856,-0.4224053,1.354969,-0.1371562,-0.2005304,1.37483,0.2842028,0.05028553,1.15326,NA,NA,NotTracked,Open,
-0.8491211,0.3208008,-0.1323242,0.8730469,-0.4614258,-0.05419922,66,-1,-6,-5,-1,2,5,23,1,2,-4,-6,-2,-2,-3,0,-5.375,-5.375,-5.375,2.5625,2.5625,2.5625,8.28206,6.925478,3.286887,2.214492,3.254734,7.412535,-0.1333862,-0.4510759,1.307477,0.1674849,0.2737941,1.196729,0.08479929,0.2584608,1.406281,-0.1773074,-0.458258,1.293353,0.1386985,0.2445238,1.251562,0.0900436,-0.1439623,1.401275,0.08193415,-0.4316661,1.38247,-0.06306496,0.0441204,1.381706,0.002987333,-0.4221853,1.354967,-0.1376115,-0.1998819,1.37559,0.2816865,0.05540029,1.15446,NA,NA,NotTracked,Open,
-0.8925781,0.2963867,-0.1611328,0.8725586,-0.4477539,-0.04492188,-3,6,4,2,0,0,5,-3,5,3,0,1,1,1,1,2,-15.25,-15.25,-15.25,2.6875,2.6875,2.6875,8.322867,6.927355,3.339913,2.215057,3.256663,7.41604,-0.1341109,-0.4514473,1.308053,0.1621126,0.2807735,1.206297,0.08460695,0.2586801,1.405981,-0.1766838,-0.4322743,1.288964,0.1303382,0.2640719,1.276572,0.08994684,-0.1432843,1.40127,0.08191746,-0.4310704,1.382216,-0.06361936,0.04436421,1.382111,0.002973098,-0.4219367,1.354932,-0.1379795,-0.1992011,1.376205,0.2804094,0.05824738,1.154423,NA,NA,NotTracked,Open,
-0.9077148,0.2275391,-0.1870117,0.8862305,-0.4267578,-0.04199219,47,4,-2,-5,-23,-58,5,23,-1,0,0,-2,-1,0,-2,-2,-13.625,-13.625,-13.625,0.6875,0.6875,0.6875,8.404546,6.929919,3.445308,2.22045,3.257061,7.412629,-0.1346841,-0.4507889,1.307666,0.1575086,0.2820525,1.211044,0.08406169,0.2589786,1.40556,-0.1764378,-0.4566738,1.289545,0.1222369,0.2648042,1.281812,0.08970547,-0.1423522,1.401408,0.08203705,-0.4307534,1.382142,-0.06422833,0.04489699,1.382658,0.003156082,-0.4216967,1.354933,-0.1380763,-0.1992043,1.376384,0.2789348,0.05999314,1.154433,NA,NA,NotTracked,Open,
-0.9296875,0.2998047,-0.3061523,0.8813477,-0.4384766,-0.06347656,5,0,1,0,4,14,-9,-2,3,0,-1,0,-2,-1,0,0,-12,-12,-12,-1.625,-1.625,-1.625,8.479862,6.923698,3.535794,2.226587,3.258893,7.404583,-0.1354992,-0.451298,1.306683,0.1522622,0.2813796,1.213482,0.08205776,0.2595421,1.405128,-0.1788052,-0.4553759,1.293955,0.1162254,0.2628314,1.282687,0.08959963,-0.1435604,1.400422,0.08226365,-0.4314404,1.381712,-0.0660243,0.03902516,1.384848,0.003345681,-0.4224564,1.354762,-0.1385636,-0.198585,1.377083,0.2775929,0.05945034,1.151597,NA,NA,NotTracked,Open,
-0.8720703,0.2211914,-0.2631836,0.8857422,-0.4399414,-0.08789063,-61,-12,-5,-9,-1,-1,-2,-11,-1,-5,-2,-2,-2,-1,-1,-1,-17.875,-17.875,-17.875,1.125,1.125,1.125,8.481248,6.9211,3.551595,2.237174,3.261513,7.393214,-0.1353521,-0.4505043,1.305586,0.1512809,0.2815993,1.21161,0.08115768,0.2596231,1.405102,-0.1788374,-0.4553271,1.292893,0.1187665,0.261446,1.280839,0.08953196,-0.1441521,1.399982,0.08234935,-0.4318442,1.381431,-0.06675947,0.03741167,1.385383,0.003416818,-0.4228051,1.35462,-0.1386806,-0.1982987,1.377343,0.2756455,0.05951216,1.150736,NA,NA,NotTracked,Unknown,
-0.8862305,0.3022461,-0.2001953,0.8803711,-0.4311523,-0.09570313,20,0,-1,1,5,14,4,10,-15,-6,1,-1,0,-2,-1,-4,-4.875,-4.875,-4.875,-0.1875,-0.1875,-0.1875,8.441313,6.918107,3.516308,2.245679,3.262712,7.383535,-0.1351302,-0.450638,1.305209,0.1480209,0.2814219,1.216067,0.08024854,0.2595897,1.405209,-0.1783096,-0.4499204,1.287716,0.1143017,0.2655956,1.287286,0.08944813,-0.1445356,1.399661,0.0824568,-0.4320858,1.381221,-0.06694679,0.03691176,1.385572,0.003497588,-0.423032,1.354547,-0.1389412,-0.1978762,1.377514,0.2712296,0.06348293,1.150869,NA,NA,NotTracked,Unknown,
-0.8833008,0.3432617,-0.2036133,0.8720703,-0.4453125,-0.1142578,68,4,-4,-3,-16,-61,-14,-4,-1,-3,-5,0,0,1,0,-2,4.125,4.125,4.125,-1.5,-1.5,-1.5,8.411249,6.908813,3.48312,2.245078,3.265033,7.380649,-0.1345934,-0.4513153,1.305101,0.1464875,0.2831852,1.215918,0.07917176,0.2596615,1.405241,-0.1804847,-0.4733869,1.305429,0.112507,0.2688893,1.289619,0.08933587,-0.1448846,1.399438,0.08253424,-0.432402,1.381056,-0.06745341,0.03575033,1.385906,0.003562197,-0.4232913,1.35447,-0.1389544,-0.1979399,1.377577,0.2683446,0.06558225,1.151164,NA,NA,NotTracked,Open,
-0.9262695,0.3432617,-0.1967773,0.8857422,-0.4428711,-0.09863281,-37,-5,-4,-1,3,12,-3,-10,-1,3,3,0,-2,-1,-3,-1,-0.25,-0.25,-0.25,0.0625,0.0625,0.0625,8.397882,6.904957,3.46907,2.242737,3.265242,7.38227,-0.1350676,-0.4514797,1.305171,0.1454297,0.2835464,1.215127,0.07849914,0.2599247,1.40526,-0.1788148,-0.4660591,1.296771,0.1099004,0.2660461,1.288459,0.08921433,-0.1451459,1.399182,0.08252515,-0.4325677,1.380908,-0.06774038,0.03530785,1.386145,0.003565146,-0.4233908,1.3544,-0.1390652,-0.1978427,1.37766,0.2659893,0.06700706,1.151093,NA,NA,NotTracked,Open,
-0.9467773,0.324707,-0.1977539,0.8779297,-0.4384766,-0.08007813,13,-4,-2,0,-6,-9,1,7,1,2,-1,-1,1,0,2,-1,-6.25,-6.25,-6.25,-1.125,-1.125,-1.125,8.385598,6.90115,3.460175,2.236532,3.262319,7.388,-0.1352313,-0.4512913,1.30591,0.1512846,0.2634585,1.206649,0.07679841,0.2600627,1.405592,-0.1813347,-0.4627771,1.300882,0.1252621,0.2382034,1.261273,0.08852863,-0.1445798,1.399476,0.08252057,-0.4326828,1.380796,-0.06943315,0.03762441,1.387126,0.003583722,-0.4236103,1.354378,-0.1392683,-0.1978294,1.377924,0.2685897,0.06107723,1.154636,NA,NA,NotTracked,Open,
-0.9462891,0.3461914,-0.1318359,0.8666992,-0.4428711,-0.07617188,62,10,1,5,4,13,-1,12,4,2,-2,-2,-1,-1,0,0,-3.375,-3.375,-3.375,-1.375,-1.375,-1.375,8.375954,6.893777,3.457058,2.232479,3.261374,7.391506,-0.1359124,-0.4516459,1.306646,0.1481445,0.267656,1.210904,0.07587282,0.2600149,1.405637,-0.1800193,-0.4676524,1.297293,0.1150429,0.2509977,1.273153,0.08837751,-0.1451317,1.399238,0.08250152,-0.4331018,1.380713,-0.06985955,0.03646715,1.387441,0.003573656,-0.4241812,1.354354,-0.1394832,-0.1976596,1.378188,0.2674809,0.06245266,1.154449,NA,NA,NotTracked,Unknown,
-0.8999023,0.3632813,-0.1811523,0.8461914,-0.4506836,-0.05566406,-20,1,0,0,9,18,2,10,-1,-4,-1,-1,-2,-1,-1,0,-8.4375,-8.4375,-8.4375,0.3125,0.3125,0.3125,8.412557,6.887103,3.504702,2.226868,3.260154,7.398291,-0.136315,-0.4515606,1.307141,0.1470983,0.2654438,1.213522,0.07539787,0.260066,1.405618,-0.1798029,-0.4643675,1.297565,0.1187554,0.2359501,1.279571,0.08823246,-0.1454514,1.399089,0.08243789,-0.4333809,1.380682,-0.0702206,0.03562433,1.38767,0.00349195,-0.4245718,1.354416,-0.1396442,-0.1976568,1.378385,0.2674224,0.06061976,1.15377,NA,NA,NotTracked,Unknown,
-0.8383789,0.1362305,-0.4477539,0.8896484,-0.434082,-0.05957031,25,14,2,-3,2,-2,-1,9,3,5,2,-2,-1,0,-2,-2,-4.5625,-4.5625,-4.5625,2.6875,2.6875,2.6875,8.460711,6.883862,3.562758,2.229663,3.261466,7.400724,-0.1372328,-0.4519905,1.307217,0.1481429,0.2635798,1.210988,0.07487725,0.2600556,1.405649,-0.1842045,-0.4636237,1.300471,0.1140511,0.2441692,1.279994,0.08812217,-0.1458547,1.398943,0.08240816,-0.4337715,1.380647,-0.07033991,0.03511094,1.387769,0.003460926,-0.4250385,1.354432,-0.1397949,-0.1976628,1.37856,0.2663808,0.06171188,1.153611,NA,NA,NotTracked,Open,
-0.7631836,0.371582,-0.1484375,0.8857422,-0.4228516,-0.07226563,-7,-4,-3,-4,-3,2,0,0,-6,0,-1,-3,0,-3,-2,-2,13.1875,13.1875,13.1875,-0.125,-0.125,-0.125,8.427629,6.876864,3.516719,2.234559,3.260437,7.395722,-0.136623,-0.4515024,1.307205,0.1490759,0.2628588,1.21033,0.07428287,0.260079,1.405783,-0.1827092,-0.4512387,1.295844,0.1142366,0.2442147,1.284444,0.0880426,-0.1462234,1.398839,0.08233423,-0.4340383,1.380622,-0.07037085,0.0347917,1.387839,0.003387202,-0.4253017,1.354479,-0.1398899,-0.1976852,1.378629,0.2657008,0.06221392,1.15357,NA,NA,NotTracked,Open,
-0.6826172,0.2915039,-0.2280273,0.887207,-0.4199219,-0.08544922,-10,-1,-3,-1,-2,-5,0,-4,-2,-5,-5,-2,-1,-1,-2,-2,-12.625,-12.625,-12.625,0.375,0.375,0.375,8.344527,6.863829,3.434203,2.241604,3.259259,7.387988,-0.136959,-0.4521379,1.307219,0.1485845,0.2588379,1.210038,0.0739285,0.2599681,1.405879,-0.1811932,-0.460301,1.29768,0.1089743,0.2451479,1.289546,0.08789451,-0.1467454,1.39873,0.08218466,-0.4347054,1.380589,-0.07046504,0.03388493,1.387752,0.003248717,-0.4260132,1.354559,-0.1400981,-0.1978263,1.378728,0.2656646,0.06220037,1.153195,NA,NA,NotTracked,Open,
-0.6132813,0.25,-0.1625977,0.8818359,-0.4584961,-0.1005859,-39,-12,-4,-1,4,15,10,2,-4,5,4,2,0,1,1,-1,-8.25,-8.25,-8.25,-1.25,-1.25,-1.25,8.218021,6.843084,3.307579,2.240607,3.256716,7.382371,-0.1367363,-0.4541661,1.306972,0.1337468,0.2667262,1.230142,0.07153125,0.2580647,1.408263,-0.179946,-0.455098,1.285121,0.09995946,0.2366533,1.289,0.08753525,-0.1479872,1.398726,0.08183377,-0.4364141,1.380926,-0.07068779,0.03242045,1.387788,0.002933629,-0.4278016,1.35517,-0.1408484,-0.1988137,1.379144,0.267681,0.0553023,1.150841,NA,NA,NotTracked,Open,
-0.5820313,0.3081055,-0.07373047,0.8833008,-0.4462891,-0.09130859,-1,0,1,1,-1,-2,-2,-1,4,29,7,-1,-1,-3,-2,1,-19.0625,-19.0625,-19.0625,0,0,0,7.936565,6.758856,3.021683,2.240648,3.256743,7.383889,-0.137126,-0.4538181,1.308532,0.1590123,0.1952747,1.168379,0.06726427,0.254995,1.412971,-0.1805377,-0.476244,1.296273,0.1320528,0.1970741,1.2283,0.08643606,-0.1504174,1.398932,0.08056112,-0.4397014,1.381452,-0.07148194,0.02959836,1.387821,0.001703114,-0.4310648,1.35612,-0.1413933,-0.2004997,1.37946,0.3128017,-0.07800451,1.178355,NA,NA,NotTracked,Unknown,
-0.6337891,0.3989258,-0.005371094,0.8818359,-0.4350586,-0.05957031,-3,-1,-4,-1,-5,-11,-4,-2,4,-7,-7,-2,0,-2,-1,0,-34.5625,-34.5625,-34.5625,3.25,3.25,3.25,7.580822,6.573902,2.668509,2.240442,3.255182,7.386287,-0.1373701,-0.4537291,1.308707,0.1616791,0.1607167,1.154173,0.06510593,0.2549401,1.415068,-0.1832928,-0.454725,1.288636,0.1330208,0.1696574,1.200643,0.08421341,-0.1509332,1.400265,0.07947742,-0.4421525,1.381617,-0.0747714,0.02901503,1.38837,0.00056443,-0.4335797,1.356551,-0.1417819,-0.2016952,1.379537,0.3172611,-0.08253233,1.185535,NA,NA,NotTracked,Unknown,
-0.6337891,0.3989258,-0.005371094,0.890625,-0.4296875,-0.06201172,15,3,4,3,0,-3,-1,5,4,-7,-5,-2,-1,1,1,0,-34.5625,-34.5625,-34.5625,5.1875,5.1875,5.1875,7.580822,6.573902,2.668509,2.242002,3.253163,7.388053,-0.1385191,-0.4540722,1.310791,0.1643738,0.1222795,1.139116,0.06375005,0.2554433,1.416737,-0.1827676,-0.4626403,1.29854,0.13664,0.1317851,1.179154,0.08225147,-0.1511058,1.401323,0.07877532,-0.444609,1.381954,-0.07986297,0.0267162,1.389547,-0.000104847,-0.4365388,1.357524,-0.1423193,-0.2036127,1.37981,0.3191505,-0.1059065,1.199363,NA,NA,NotTracked,Open,
-0.6147461,0.581543,0.1015625,0.890625,-0.4355469,-0.06103516,-4,-4,-12,-6,-1,1,-3,-11,-3,-12,-4,0,-1,0,-3,-2,-50.8125,-50.8125,-50.8125,0.5625,0.5625,0.5625,7.179147,6.11407,2.277926,2.241367,3.248142,7.391536,-0.1389531,-0.4541448,1.311457,0.1690899,0.06829369,1.135258,0.06338178,0.2563595,1.418496,-0.1839654,-0.4688413,1.299037,0.1330151,0.1030239,1.153692,0.0792653,-0.1510353,1.403162,0.07771672,-0.4478076,1.382529,-0.079963,0.02635261,1.389729,-0.0007602453,-0.4389177,1.358054,-0.1430705,-0.2079697,1.380417,0.3160724,-0.1331916,1.211794,NA,NA,NotTracked,Open,
-0.5493164,0.684082,0.1035156,0.8959961,-0.4360352,-0.07177734,7,2,17,2,-1,-1,-5,-8,-1,3,-2,-1,-1,-1,-1,-1,-42.9375,-42.9375,-42.9375,-0.875,-0.875,-0.875,7.109588,5.968516,2.202579,2.238761,3.244975,7.39436,-0.1396986,-0.4545388,1.312685,0.174702,0.01341566,1.128738,0.06511784,0.2563055,1.420562,-0.185013,-0.4601427,1.305167,0.1378674,0.0620857,1.1315,0.07778257,-0.1517422,1.404646,0.07749313,-0.4504264,1.383107,-0.08015,0.02534265,1.390065,-0.0007067794,-0.4413361,1.358564,-0.1440517,-0.2124078,1.380552,0.322077,-0.1724697,1.272631,NA,NA,NotTracked,Open,
-0.4345703,0.9272461,0.3261719,0.8691406,-0.4482422,-0.06689453,-3,-1,11,-5,-2,-1,-1,-4,-2,-2,-1,-2,0,0,1,-4,-43.875,-43.875,-43.875,-5.125,-5.125,-5.125,6.963076,5.474946,2.02329,2.231268,3.241792,7.397399,-0.1398514,-0.4551716,1.313427,0.194828,-0.05630758,1.132632,0.06655151,0.2558998,1.422357,-0.1843137,-0.451114,1.299636,0.1526016,-0.01391631,1.122231,0.07693005,-0.1519976,1.405901,0.07727823,-0.4507968,1.38344,-0.08014099,0.0242748,1.390211,-0.0007397264,-0.4415609,1.358541,-0.1442075,-0.2142576,1.380992,0.3270902,-0.1799972,1.287305,NA,NA,NotTracked,Open,
-0.03222656,0.9995117,0.3125,0.8916016,-0.4487305,-0.06640625,0,0,-1,0,-3,-1,-1,-3,-6,-2,-3,-1,1,1,0,-3,-52.6875,-52.6875,-52.6875,0.625,0.625,0.625,6.895329,5.118751,1.937211,2.22512,3.240902,7.402863,-0.1403057,-0.4558532,1.315973,0.2053146,-0.1688278,1.085829,0.06712657,0.2556534,1.423556,-0.184217,-0.4646132,1.302975,0.17084,-0.1279553,1.088111,0.07556802,-0.1522178,1.407333,0.07723736,-0.4508168,1.38385,-0.08036493,0.0234836,1.390396,-0.0005603188,-0.441669,1.358284,-0.1445389,-0.2152196,1.381469,0.3376688,-0.1605067,1.299481,NA,NA,NotTracked,Lasso,
0.5366211,0.8188477,0.4633789,0.8833008,-0.4101563,-0.07763672,0,-4,-8,-1,-1,-1,-2,-2,-5,-6,-3,-2,-2,-1,-1,-3,67.75,67.75,67.75,-0.6875,-0.6875,-0.6875,6.894343,4.49035,1.804187,2.210668,3.234319,7.419633,-0.1403861,-0.4551012,1.315547,0.2122446,-0.2712187,1.099725,0.06752147,0.2554265,1.423944,-0.1828264,-0.4543185,1.298151,0.1724349,-0.2349743,1.1082,0.07418461,-0.152527,1.40767,0.07636311,-0.4507873,1.384086,-0.08049175,0.02301661,1.390442,-0.001239314,-0.4413205,1.357467,-0.144694,-0.2159092,1.381749,0.3557436,-0.1601688,1.341444,NA,NA,NotTracked,Unknown,
0.5239258,1.101563,0.25,0.8583984,-0.4306641,-0.07714844,0,0,-6,-4,-2,-2,-3,-2,5,16,10,1,2,-1,-1,0,90.8125,90.8125,90.8125,1.8125,1.8125,1.8125,7.110503,4.120491,1.718359,2.197989,3.229197,7.435573,-0.1412011,-0.4532754,1.318713,0.2269915,-0.355336,1.139042,0.06808643,0.2553729,1.42399,-0.1834665,-0.4557274,1.300724,0.1780154,-0.329514,1.147125,0.07271255,-0.1521171,1.407986,0.0742172,-0.4495442,1.384834,-0.08687604,0.02227253,1.391585,-0.002821372,-0.4396454,1.356934,-0.1449664,-0.2160382,1.382085,0.300584,-0.1906353,1.36051,NA,NA,NotTracked,Unknown,
0.71875,0.7475586,0.152832,0.8852539,-0.4223633,-0.05810547,-1,-2,1,-3,0,-1,-2,-2,4,2,0,0,0,-4,-2,-2,65.6875,65.6875,65.6875,5.5625,5.5625,5.5625,7.294566,3.756291,1.592257,2.184398,3.222697,7.460834,-0.1414715,-0.4533458,1.322313,0.2478593,-0.4186353,1.189866,0.06876953,0.2555782,1.423807,-0.1842573,-0.4649473,1.305049,0.2772561,-0.4242724,1.179773,0.07176394,-0.1524052,1.408466,0.07374272,-0.4498209,1.385987,-0.085619,0.0217992,1.391527,-0.003044622,-0.4395165,1.35702,-0.1452589,-0.216796,1.383255,0.2998376,-0.1926175,1.361922,NA,NA,NotTracked,Unknown,
0.9477539,0.6367188,0.01269531,0.9121094,-0.4267578,-0.08544922,-1,-1,-1,-2,-1,0,-1,0,1,4,3,0,-2,-3,0,-1,109,109,109,-3.625,-3.625,-3.625,7.669269,3.442722,1.3145,2.160493,3.215713,7.486181,-0.1416005,-0.4536497,1.322944,0.2630131,-0.4443043,1.216232,0.06925402,0.2556129,1.423642,-0.1869047,-0.4708691,1.3136,0.2865267,-0.4441032,1.195862,0.07187124,-0.1525887,1.408723,0.0745946,-0.4502791,1.387167,-0.08501388,0.02104471,1.391465,-0.002398299,-0.4397456,1.357355,-0.1454038,-0.2167991,1.38353,0.2984342,-0.1936622,1.361945,NA,NA,NotTracked,Unknown,
1.080566,0.6801758,-0.1196289,0.9189453,-0.4179688,-0.08789063,-3,-3,-3,0,-2,0,0,-1,-5,-6,-3,-3,-1,-2,-3,-2,78.75,78.75,78.75,2.3125,2.3125,2.3125,8.039608,3.310838,0.9995727,2.156605,3.214402,7.491959,-0.1425418,-0.4537402,1.325582,0.2998538,-0.4794717,1.265006,0.07004549,0.2556832,1.423385,-0.1871783,-0.4356402,1.303877,0.3317269,-0.4760995,1.249571,0.07254069,-0.1533259,1.409475,0.07716027,-0.451505,1.389919,-0.08418858,0.02001159,1.391511,0.0004134944,-0.4411219,1.359558,-0.1456598,-0.2175193,1.384418,0.297609,-0.2067046,1.360934,NA,NA,NotTracked,Unknown,
1.117676,0.7114258,-0.2973633,0.9018555,-0.4042969,-0.1040039,-2,0,-2,-1,-2,0,0,0,-5,-5,-7,-1,1,0,0,-3,-7.9375,-7.9375,-7.9375,3.125,3.125,3.125,8.361807,3.241512,0.6527749,2.15631,3.21335,7.493979,-0.1422896,-0.4543471,1.325657,0.3154247,-0.486394,1.281753,0.07068861,0.2557448,1.423066,-0.1864796,-0.448752,1.305931,0.3597589,-0.474192,1.276735,0.0727701,-0.15355,1.409765,0.07811137,-0.4519133,1.390889,-0.08394714,0.01971537,1.391474,0.001477354,-0.4416046,1.360524,-0.1457071,-0.2178947,1.384886,0.2971056,-0.2113144,1.36148,NA,NA,NotTracked,Unknown,
1.039063,0.699707,-0.4375,0.8730469,-0.4033203,-0.1074219,-1,-1,0,-1,0,-2,0,-1,-4,-4,1,1,0,-1,-1,-2,-96.0625,-96.0625,-96.0625,2,2,2,8.547521,3.220609,0.3548003,2.154444,3.211149,7.497605,-0.1419494,-0.4542802,1.325201,0.3254403,-0.4890617,1.295192,0.07139593,0.2558625,1.422485,-0.1850955,-0.4619778,1.310941,0.3686509,-0.4743657,1.285527,0.07295194,-0.1536345,1.40982,0.07834964,-0.4518684,1.391242,-0.08356953,0.01942607,1.391289,0.001774194,-0.4415835,1.36094,-0.1457157,-0.2179677,1.385061,0.2968451,-0.2153519,1.362109,NA,NA,NotTracked,Unknown,
0.9311523,0.5039063,-0.347168,0.878418,-0.4174805,-0.09619141,-1,-2,-2,-1,-1,-3,-2,-1,1,0,4,-2,-1,-1,0,0,-216.625,-216.625,-216.625,3.0625,3.0625,3.0625,8.467287,3.213582,0.1011017,2.13823,3.203871,7.52249,-0.1417837,-0.4540918,1.32816,0.3317138,-0.4870957,1.309023,0.07350335,0.2560811,1.421477,-0.1843865,-0.4373094,1.2833,0.3727402,-0.4724279,1.294369,0.07313715,-0.1537289,1.410121,0.07892139,-0.4516942,1.392617,-0.0825362,0.01963578,1.391014,0.002443402,-0.4412895,1.362421,-0.1458183,-0.2182244,1.385879,0.2977415,-0.2228817,1.367401,NA,NA,NotTracked,Unknown,
0.9589844,0.309082,-0.1088867,0.8774414,-0.4331055,-0.08544922,0,-2,-1,-2,-1,0,-2,0,3,-5,-2,0,-1,0,-1,-1,-195.25,-195.25,-195.25,-2.5,-2.5,-2.5,8.293837,3.210829,0.03982591,2.118347,3.197836,7.543804,-0.1425936,-0.4543453,1.329092,0.3298877,-0.4860893,1.30664,0.0746996,0.2562409,1.420688,-0.1868779,-0.4675257,1.317533,0.3670434,-0.4815394,1.284676,0.0732924,-0.1536939,1.410195,0.07933857,-0.4514324,1.393171,-0.08211496,0.01964149,1.390836,0.002888681,-0.4410405,1.362923,-0.1458686,-0.2182613,1.386174,0.2985687,-0.2247862,1.369603,NA,NA,NotTracked,Unknown,
0.9160156,0.2827148,0.06054688,0.8994141,-0.4311523,-0.07714844,0,-1,-1,-2,-2,0,-1,0,3,1,1,1,-1,-4,-3,-2,-114.5,-114.5,-114.5,-7.1875,-7.1875,-7.1875,8.145736,3.210773,0.03485436,2.089225,3.195154,7.567469,-0.1420724,-0.4546407,1.330582,0.3293054,-0.4821343,1.304424,0.07570013,0.2562947,1.420011,-0.1854052,-0.4501784,1.312701,0.368134,-0.4633655,1.2895,0.07358154,-0.1537321,1.410342,0.0796737,-0.4512273,1.393842,-0.08175766,0.01962531,1.390733,0.003184565,-0.4408699,1.363433,-0.1457807,-0.2184249,1.38661,0.2996417,-0.2251779,1.372981,NA,NA,NotTracked,Unknown,
0.9160156,0.2827148,0.06054688,0.8994141,-0.4311523,-0.07714844,0,-1,-1,-2,-2,0,-1,0,3,1,1,1,-1,-4,-3,-2,-114.5,-114.5,-114.5,-7.1875,-7.1875,-7.1875,8.145736,3.210773,0.03485436,2.089225,3.195154,7.567469,-0.1433904,-0.4528691,1.331739,0.3300929,-0.4803421,1.302028,0.0767028,0.2564443,1.419272,-0.1869268,-0.4589338,1.314112,0.3599368,-0.4754779,1.278015,0.07385074,-0.1537195,1.410415,0.08018,-0.4511111,1.394525,-0.08149051,0.01960497,1.390611,0.003648915,-0.4407577,1.363988,-0.1457424,-0.2185568,1.38696,0.3,-0.2257568,1.376035,NA,NA,NotTracked,Unknown,
0.8339844,0.4091797,0.06884766,0.9008789,-0.4106445,-0.07861328,0,-1,0,-1,-3,0,-1,0,-3,-4,0,2,2,1,-1,-1,-27,-27,-27,-12.875,-12.875,-12.875,7.96973,3.209123,0.1238031,2.080896,3.193531,7.564384,-0.1431688,-0.4533756,1.332471,0.3306829,-0.4805472,1.298897,0.07781071,0.2565647,1.418553,-0.1900894,-0.4541979,1.324,0.3670745,-0.4694338,1.286199,0.07416389,-0.153735,1.410527,0.08042211,-0.451071,1.395176,-0.08108691,0.0195694,1.390477,0.003870497,-0.4406947,1.364537,-0.1457478,-0.2185784,1.38711,0.3004936,-0.2262585,1.378193,NA,NA,NotTracked,Unknown,
0.8891602,0.4780273,-0.07519531,0.8945313,-0.402832,-0.08496094,0,1,0,-1,0,0,-1,-2,-5,-18,-10,-3,0,-1,-1,-3,31.4375,31.4375,31.4375,-17.5,-17.5,-17.5,7.932427,3.213987,0.1890257,2.080877,3.19558,7.544497,-0.1429874,-0.453449,1.331447,0.331799,-0.4777156,1.29648,0.07839983,0.2564924,1.418098,-0.1900017,-0.4466857,1.320731,0.3545697,-0.4780556,1.261897,0.07621211,-0.1547826,1.409818,0.08065683,-0.451067,1.395614,-0.0808373,0.01951124,1.390415,0.004090219,-0.4407011,1.364912,-0.1456662,-0.2186278,1.387189,0.3005342,-0.2263025,1.378921,NA,NA,NotTracked,Unknown,
0.9042969,0.4423828,-0.1347656,0.8994141,-0.3862305,-0.1015625,-1,-2,-1,-1,-2,1,-1,0,0,1,-3,0,-3,-2,-3,-1,43.4375,43.4375,43.4375,-15.625,-15.625,-15.625,7.938098,3.216837,0.2336977,2.089532,3.199893,7.515872,-0.142295,-0.4529715,1.327666,0.328647,-0.4771195,1.291497,0.0796326,0.2564106,1.417298,-0.1836132,-0.4675603,1.307222,0.3608499,-0.4646602,1.245,0.07649089,-0.1547738,1.409976,0.0811449,-0.4511591,1.396306,-0.08035699,0.01926663,1.390189,0.004518818,-0.4407314,1.365422,-0.1455133,-0.2185934,1.387129,0.300242,-0.2265383,1.379178,NA,NA,NotTracked,Unknown,
0.9233398,0.4394531,-0.1362305,0.894043,-0.3696289,-0.1386719,-2,0,0,1,0,-2,-2,-1,0,-6,-9,-2,0,1,-1,0,39.375,39.375,39.375,-20.125,-20.125,-20.125,7.935881,3.218114,0.2606016,2.093086,3.202628,7.487844,-0.1412909,-0.4530333,1.326574,0.3238163,-0.4769275,1.289129,0.08034283,0.2564849,1.41692,-0.1864136,-0.4641033,1.315075,0.3553526,-0.4838511,1.241,0.07664875,-0.1547784,1.410109,0.08133056,-0.4511428,1.396571,-0.08013808,0.01928647,1.390083,0.00470107,-0.4407139,1.365618,-0.1452039,-0.2180656,1.386981,0.3000717,-0.2265595,1.37913,NA,NA,NotTracked,Unknown,
0.9482422,0.3847656,-0.1225586,0.8867188,-0.3813477,-0.144043,0,-1,-2,-2,-1,-1,0,-2,-4,-5,-2,-3,-5,-4,-3,-3,34.0625,34.0625,34.0625,-16.875,-16.875,-16.875,7.912649,3.217786,0.3299067,2.094183,3.204974,7.462789,-0.141122,-0.4525833,1.325665,0.3202077,-0.4787591,1.285352,0.08076312,0.2565233,1.416661,-0.1844471,-0.4754956,1.316808,0.362037,-0.461897,1.280789,0.07684144,-0.1547952,1.410261,0.08163899,-0.4512716,1.396907,-0.07994469,0.01922258,1.389988,0.004975767,-0.4408051,1.365823,-0.1450568,-0.2179848,1.386837,0.2999442,-0.2265898,1.37909,NA,NA,NotTracked,Unknown,
0.8847656,0.4155273,-0.1396484,0.887207,-0.3828125,-0.1420898,-2,-1,-3,-1,0,0,0,-2,-3,9,12,-1,0,2,1,-2,46.5,46.5,46.5,-1.125,-1.125,-1.125,7.873341,3.221966,0.4551779,2.08892,3.203452,7.45346,-0.1388253,-0.4521959,1.323992,0.3142217,-0.4761451,1.276589,0.08157092,0.2566698,1.416177,-0.1819806,-0.4553156,1.309319,0.3460717,-0.4518256,1.2407,0.07739639,-0.154683,1.410521,0.08252187,-0.4513475,1.397542,-0.07942215,0.01912737,1.389745,0.005865935,-0.440898,1.366249,-0.1442535,-0.2179422,1.386265,0.2993454,-0.2264328,1.378433,NA,NA,NotTracked,Unknown,
0.8662109,0.4555664,-0.1416016,0.887207,-0.3989258,-0.1303711,-1,-1,-2,-1,1,-2,0,0,2,-2,-4,-2,-2,0,0,-1,27.8125,27.8125,27.8125,10.5,10.5,10.5,7.839195,3.237455,0.5629041,2.078484,3.199383,7.477805,-0.138888,-0.4523895,1.324155,0.3100075,-0.4753431,1.272312,0.08170272,0.2567098,1.416098,-0.1836099,-0.4667947,1.28625,0.3460038,-0.4648479,1.233,0.07758139,-0.154707,1.410571,0.0828191,-0.451374,1.397758,-0.07930541,0.01905647,1.389713,0.006191313,-0.4409304,1.366453,-0.1439639,-0.2181013,1.385937,0.2989491,-0.2263429,1.378134,NA,NA,NotTracked,Lasso,
0.8662109,0.4555664,-0.1416016,0.887207,-0.3989258,-0.1303711,-1,-1,-2,-1,1,-2,0,0,4,-5,-1,1,-2,-1,-2,2,27.8125,27.8125,27.8125,10.5,10.5,10.5,7.839195,3.237455,0.5629041,2.078484,3.199383,7.477805,-0.1382489,-0.4519929,1.324067,0.3070713,-0.4755401,1.268934,0.08204094,0.2567441,1.415842,-0.1843185,-0.4452762,1.314545,0.3380994,-0.4529146,1.236857,0.077632,-0.1546633,1.410591,0.08282991,-0.4513661,1.397778,-0.07910463,0.01909184,1.389609,0.006211769,-0.4409211,1.366471,-0.1438045,-0.2180445,1.385703,0.2983342,-0.2258541,1.377472,NA,NA,NotTracked,Lasso,
0.8540039,0.4257813,-0.1108398,0.8999023,-0.3959961,-0.1005859,-1,0,-3,-1,-1,-1,-2,0,-10,-6,0,1,-4,-2,-4,-3,15.6875,15.6875,15.6875,8.375,8.375,8.375,7.818033,3.24329,0.6204134,2.072922,3.197829,7.501324,-0.1385528,-0.4528539,1.325495,0.3071122,-0.4763205,1.268517,0.08223942,0.2567948,1.415697,-0.1852888,-0.4602208,1.317857,0.3495162,-0.4704116,1.262077,0.07791586,-0.154689,1.410667,0.08301687,-0.4514395,1.397905,-0.07891779,0.01908378,1.389549,0.006437,-0.4410056,1.366593,-0.1436607,-0.2179985,1.385653,0.2980922,-0.2256869,1.377078,NA,NA,NotTracked,Unknown,
0.8676758,0.4174805,-0.09619141,0.8989258,-0.4042969,-0.08935547,-2,0,-3,0,0,0,-2,-1,2,5,3,0,0,1,1,-1,18.8125,18.8125,18.8125,6.75,6.75,6.75,7.829902,3.238165,0.6297644,2.077348,3.198049,7.505698,-0.1384535,-0.4534599,1.325395,0.3051941,-0.477143,1.266384,0.08236054,0.2567756,1.415501,-0.1846992,-0.458999,1.317135,0.339982,-0.4759979,1.2341,0.07825719,-0.1547444,1.410622,0.08343054,-0.4515996,1.397968,-0.07875094,0.01905191,1.389389,0.006868121,-0.4411852,1.366549,-0.1435306,-0.2181051,1.385451,0.297747,-0.2254214,1.376544,NA,NA,NotTracked,Unknown,
0.8789063,0.4150391,-0.08740234,0.8876953,-0.4042969,-0.1025391,2,-2,0,-2,0,0,-1,0,-11,-2,-3,0,-1,-1,-2,-1,18.625,18.625,18.625,9.5625,9.5625,9.5625,7.857656,3.227329,0.6221732,2.087076,3.198795,7.506024,-0.13837,-0.4525988,1.325702,0.3053356,-0.4779808,1.268362,0.0826887,0.25675,1.415175,-0.1842422,-0.4568861,1.310782,0.3500865,-0.4591716,1.27455,0.07860439,-0.154875,1.410559,0.08367826,-0.4517239,1.398018,-0.079794,0.01896876,1.389068,0.007156357,-0.441369,1.366614,-0.1431751,-0.2181974,1.385249,0.2970367,-0.2251935,1.374672,NA,NA,NotTracked,NotTracked,
0.8979492,0.4174805,-0.09375,0.8911133,-0.4067383,-0.1103516,-2,-2,0,-1,0,-1,-1,-1,-1,-3,-2,-1,-1,-2,-1,-1,19,19,19,9.5625,9.5625,9.5625,7.915593,3.207049,0.592584,2.101456,3.199285,7.508505,-0.1386349,-0.4526424,1.325791,0.3052124,-0.4791327,1.269646,0.08280855,0.2567738,1.414982,-0.1849622,-0.4606217,1.316925,0.3285589,-0.4686622,1.235737,0.0787223,-0.1549659,1.410522,0.08384129,-0.451872,1.398024,-0.07949843,0.01888832,1.388957,0.007335019,-0.4415391,1.366616,-0.1431144,-0.2182247,1.385189,0.2969779,-0.2251728,1.37338,NA,NA,NotTracked,NotTracked,
0.9042969,0.4150391,-0.1069336,0.8911133,-0.4018555,-0.1040039,-2,-1,-2,-3,-1,-1,0,1,-4,-8,-2,1,0,0,0,0,15.875,15.875,15.875,8.25,8.25,8.25,7.949036,3.195423,0.5755368,2.108311,3.198993,7.51131,-0.1385022,-0.4525282,1.325277,0.306339,-0.4797989,1.271368,0.08320446,0.2568634,1.41434,-0.1832791,-0.4622452,1.312601,0.348567,-0.4611885,1.2495,0.07915694,-0.15495,1.41025,0.08416052,-0.4519933,1.397961,-0.07919855,0.0189169,1.38884,0.007687949,-0.4416829,1.366598,-0.1430271,-0.2181941,1.385125,0.296576,-0.2259317,1.371139,NA,NA,NotTracked,NotTracked,
0.9091797,0.4194336,-0.1181641,0.8886719,-0.4047852,-0.1035156,-2,-3,-2,-1,0,-2,-2,-1,3,3,-3,0,1,0,1,-1,11.375,11.375,11.375,2.875,2.875,2.875,7.969531,3.189132,0.5680607,2.110403,3.199523,7.517837,-0.1385474,-0.4527948,1.325645,0.3052018,-0.4813531,1.271352,0.08337033,0.256911,1.414055,-0.1772306,-0.4681951,1.2505,0.3443937,-0.4735747,1.23525,0.0793329,-0.155015,1.410067,0.08425503,-0.4520881,1.397822,-0.07890549,0.01887692,1.388615,0.007776896,-0.4417653,1.366452,-0.1430004,-0.2182501,1.385073,0.2963344,-0.2262621,1.369672,NA,NA,NotTracked,NotTracked,
0.9052734,0.4135742,-0.112793,0.8852539,-0.4121094,-0.09375,-2,0,-1,0,-3,0,-2,-1,9,5,0,-1,-2,-1,0,3,3.3125,3.3125,3.3125,-0.0625,-0.0625,-0.0625,7.966199,3.191887,0.5850946,2.107197,3.198631,7.522497,-0.1388358,-0.4533504,1.327002,0.3045703,-0.4820354,1.270358,0.08362817,0.2569331,1.413551,-0.1820623,-0.4625021,1.311907,0.3407169,-0.4528929,1.231719,0.07951158,-0.1550214,1.409859,0.08443356,-0.4522113,1.397695,-0.07869379,0.0188639,1.388549,0.007960243,-0.4418776,1.366337,-0.1428951,-0.2183595,1.385055,0.2961737,-0.2268794,1.368089,NA,NA,NotTracked,NotTracked,
0.8969727,0.40625,-0.1088867,0.8916016,-0.4111328,-0.08447266,0,-1,-1,-1,0,1,-1,-1,-4,4,5,-1,-2,2,1,-2,3.5,3.5,3.5,-0.8125,-0.8125,-0.8125,7.953972,3.196959,0.6021678,2.106475,3.199112,7.523199,-0.1389942,-0.4525966,1.325004,0.3030072,-0.4813318,1.264969,0.08399561,0.2568673,1.412722,-0.1873286,-0.4586382,1.318477,0.3384698,-0.427891,1.232,0.07979098,-0.1551124,1.409281,0.08466246,-0.4524135,1.397237,-0.07829619,0.01886814,1.388217,0.008188826,-0.4420595,1.365897,-0.1427236,-0.2184336,1.384724,0.29603,-0.22702,1.366416,NA,NA,NotTracked,NotTracked,
0.8916016,0.4101563,-0.1030273,0.894043,-0.402832,-0.09570313,-2,-2,-2,0,-1,0,-1,-1,4,3,-3,-3,-1,-3,1,-2,5.1875,5.1875,5.1875,-3,-3,-3,7.942905,3.202608,0.6200203,2.105167,3.199077,7.521959,-0.1389274,-0.4528863,1.323642,0.3027065,-0.4785224,1.263734,0.08408553,0.2567042,1.412131,-0.1860228,-0.458154,1.316767,0.3471833,-0.4832969,1.2685,0.07991587,-0.1552881,1.408693,0.08488142,-0.4526279,1.396674,-0.07815269,0.01868996,1.387975,0.008380312,-0.4422725,1.365401,-0.1426438,-0.21867,1.384368,0.2958983,-0.2274114,1.365198,NA,NA,NotTracked,NotTracked,
