ALX,ALY,ALZ,ARX,ARY,ARZ,EMG0L,EMG1L,EMG2L,EMG3L,EMG4L,EMG5L,EMG6L,EMG7L,EMG0R,EMG1R,EMG2R,EMG3R,EMG4R,EMG5R,EMG6R,EMG7R,GLX,GLY,GLZ,GRX,GRY,GRZ,ORL,OPL,OYL,ORR,OPR,OYR,LHNX,LHNY,LHNZ,RHNX,RHNY,RHNZ,HX,HY,HZ,LTX,LTY,LTZ,RTX,RTY,RTZ,SpineMidX,SpineMidY,SpineMidZ,SpineBaseX,SpineBaseY,SpineBaseZ,ShoulderLeftX,ShoulderLeftY,ShoulderLeftZ,ShoulderRightX,ShoulderRightY,ShoulderRightZ,ElbowLeftX,ElbowLeftY,ElbowLeftZ,ElbowRightX,ElbowRightY,ElbowRightZ,Myo_Pose_left,Myo_Pose_Right,Kinect_pose_left,Kinect_pose_right
1.272461,0.6376953,-0.1088867,0.902832,-0.4174805,-0.09912109,-2,-2,-1,-1,0,-2,-1,2,0,-2,4,3,-1,-4,-1,-2,279.6875,279.6875,279.6875,-18.8125,-18.8125,-18.8125,7.663663,3.40943,7.389995,2.073173,3.197047,9.386683,-0.1256636,-0.4472347,1.316156,0.3120345,-0.4707119,1.201889,0.09677897,0.2534797,1.389818,-0.1705874,-0.4517577,1.294325,0.2814282,-0.4641684,1.187333,0.09383366,-0.1530327,1.385884,0.09375916,-0.4483265,1.371514,-0.07497531,0.02055452,1.38668,0.01786758,-0.4376774,1.345519,-0.1214713,-0.2212613,1.374627,0.3212893,-0.2037568,1.324321,NA,NA,NotTracked,Unknown,
1.541992,0.8261719,-0.2626953,0.9174805,-0.4003906,-0.1054688,-1,-1,-2,-3,-1,-1,0,-1,-3,-1,-3,-1,-1,-2,-2,-1,255.5625,255.5625,255.5625,-20.875,-20.875,-20.875,8.329773,3.26323,6.967772,2.062712,3.195937,9.385508,-0.1258337,-0.4469989,1.31478,0.3312415,-0.4856991,1.238605,0.09681132,0.2528959,1.387236,-0.1708656,-0.4394715,1.292493,0.2724604,-0.4965481,1.2021,0.09412763,-0.1535348,1.385632,0.094961,-0.4489805,1.371716,-0.07481059,0.02114962,1.386619,0.01898774,-0.4383431,1.345691,-0.1218043,-0.2208124,1.374076,0.3195358,-0.2075146,1.324382,NA,NA,NotTracked,Unknown,
1.329102,0.9682617,-0.3110352,0.921875,-0.3823242,-0.1186523,-2,-1,0,-5,-1,0,-1,-1,0,-1,-3,-2,0,-2,0,-1,182.9375,182.9375,182.9375,-19.1875,-19.1875,-19.1875,8.595178,3.216969,6.78272,2.047955,3.19506,9.377426,-0.1255352,-0.4497537,1.314175,0.3478054,-0.4829708,1.267331,0.09704981,0.2522918,1.384704,-0.1705357,-0.4298142,1.290544,0.2988928,-0.4893554,1.263741,0.09429048,-0.1539569,1.385425,0.09542956,-0.4492828,1.372033,-0.07473516,0.02145926,1.386618,0.01936851,-0.4386142,1.345976,-0.1219928,-0.2206772,1.373563,0.3185662,-0.2101758,1.325622,NA,NA,NotTracked,Unknown,
1.008789,0.8242188,-0.6416016,0.8867188,-0.3530273,-0.1318359,0,-1,-2,0,0,-2,0,-2,0,-1,2,1,1,0,0,-1,-70.125,-70.125,-70.125,-12.5625,-12.5625,-12.5625,8.86575,3.161999,6.481973,2.047475,3.193251,9.359452,-0.1253266,-0.4503446,1.314059,0.3562256,-0.4764341,1.289199,0.09726477,0.2519876,1.382852,-0.1729582,-0.4643164,1.300462,0.314605,-0.4731144,1.301814,0.09440224,-0.1541777,1.385232,0.09573186,-0.4493271,1.372351,-0.07463328,0.02183604,1.386575,0.01954306,-0.438661,1.346106,-0.1222188,-0.2205098,1.37312,0.3177359,-0.2129925,1.329117,NA,NA,NotTracked,NotTracked,
0.8666992,0.2724609,-0.324707,0.8901367,-0.3647461,-0.1459961,-1,-2,-1,0,-2,-1,0,-1,1,0,2,-4,0,-1,-2,0,-291.75,-291.75,-291.75,-12.5625,-12.5625,-12.5625,8.687149,3.127593,6.091451,2.037426,3.171014,9.339017,-0.1246628,-0.4504645,1.314039,0.3521496,-0.4716722,1.310904,0.09789714,0.2511387,1.376939,-0.169962,-0.4495328,1.293563,0.3165672,-0.4885516,1.317216,0.09690899,-0.1537595,1.384264,0.09692074,-0.448947,1.373681,-0.07423636,0.02308479,1.386273,0.02063274,-0.4384394,1.347157,-0.1226228,-0.2195961,1.372294,0.3193952,-0.2209038,1.341772,NA,NA,NotTracked,Unknown,
0.9985352,0.2373047,0.1762695,0.8959961,-0.4116211,-0.1333008,-3,0,-2,0,-1,1,-2,1,-3,-6,-12,-5,-3,1,-1,-2,-146.9375,-146.9375,-146.9375,-5.75,-5.75,-5.75,8.458501,3.126485,5.987708,2.002982,3.154382,9.36701,-0.1247081,-0.4516176,1.319266,0.3447723,-0.4740113,1.312028,0.09823643,0.250063,1.37299,-0.1689678,-0.4387832,1.294943,0.3007996,-0.4475859,1.324811,0.09692277,-0.1543922,1.383945,0.09825632,-0.448895,1.375585,-0.07399315,0.02366474,1.385847,0.02169221,-0.4386068,1.34827,-0.1230282,-0.2195426,1.371727,0.3219849,-0.2247376,1.353807,NA,NA,NotTracked,NotTracked,
0.9057617,0.4189453,0.1694336,0.8862305,-0.4321289,-0.1152344,-2,0,-2,0,0,-1,-1,-1,-1,0,1,1,-4,-2,-1,-2,-78.3125,-78.3125,-78.3125,-7.8125,-7.8125,-7.8125,8.252831,3.126396,6.091876,1.928862,3.131674,9.437839,-0.1249279,-0.4538004,1.320497,0.3461644,-0.4763491,1.306109,0.09873854,0.2495932,1.371067,-0.1696481,-0.4571219,1.300132,0.3008696,-0.489365,1.276409,0.09763983,-0.1543806,1.383852,0.09867468,-0.4490914,1.376571,-0.07372214,0.02417145,1.385416,0.02194436,-0.4387314,1.348681,-0.1232159,-0.2197476,1.371409,0.3226241,-0.2255849,1.357191,NA,NA,NotTracked,NotTracked,
0.8754883,0.3481445,0.005859375,0.9067383,-0.3857422,-0.09765625,0,-3,-1,-1,-1,0,-1,-1,-2,-2,-5,0,-1,-8,-2,-2,21.125,21.125,21.125,-12.5625,-12.5625,-12.5625,8.10384,3.11848,6.229466,1.903755,3.120397,9.453979,-0.125904,-0.453629,1.32196,0.349292,-0.4789541,1.300594,0.09931651,0.249224,1.369306,-0.1709225,-0.4498607,1.30232,0.3054683,-0.4775701,1.273538,0.09751739,-0.1547234,1.383688,0.09914234,-0.4490763,1.377581,-0.07338956,0.0241968,1.384715,0.02230588,-0.4387633,1.349229,-0.1234102,-0.2195819,1.371006,0.3226787,-0.2261332,1.359381,NA,NA,NotTracked,Unknown,
0.8632813,0.3813477,-0.08837891,0.9111328,-0.3696289,-0.08789063,-1,-1,-1,-1,0,-1,-3,-2,0,1,5,-1,-1,-1,1,-1,95.6875,95.6875,95.6875,-19.5,-19.5,-19.5,8.109134,3.11834,6.280139,1.898364,3.118245,9.449118,-0.1259035,-0.4538063,1.323391,0.3533791,-0.4800467,1.293385,0.09980365,0.2491103,1.368276,-0.170597,-0.472701,1.309071,0.3091819,-0.4551595,1.324273,0.09736357,-0.1550517,1.383759,0.09940393,-0.4493674,1.378911,-0.07309902,0.02426114,1.38385,0.02245947,-0.4388966,1.349855,-0.1237617,-0.2195074,1.370475,0.3225473,-0.2263663,1.360724,NA,NA,NotTracked,Unknown,
0.9150391,0.5756836,-0.1743164,0.921875,-0.3549805,-0.09277344,-1,-1,-1,0,-2,1,-1,-1,-1,-1,-4,-1,0,4,-1,-1,52.5625,52.5625,52.5625,-23.6875,-23.6875,-23.6875,8.156507,3.163781,6.382431,1.900056,3.11941,9.420382,-0.1260823,-0.4534797,1.323754,0.354215,-0.4788421,1.287803,0.1000773,0.2490565,1.367184,-0.1676219,-0.441489,1.298171,0.3099383,-0.4688584,1.319167,0.09733647,-0.1553005,1.383765,0.09973437,-0.4495588,1.380315,-0.0730174,0.02438459,1.383412,0.02269972,-0.4390232,1.35072,-0.1241003,-0.2188949,1.369747,0.3222394,-0.2261265,1.361288,NA,NA,NotTracked,Unknown,
0.9526367,0.5371094,-0.1694336,0.9194336,-0.3564453,-0.1044922,-1,-1,-1,-1,2,-1,-1,-2,-2,-1,0,1,0,2,0,0,16.75,16.75,16.75,-12.6875,-12.6875,-12.6875,8.134282,3.181897,6.415804,1.92214,3.123913,9.37773,-0.1263449,-0.4535823,1.322443,0.3505659,-0.4792647,1.28287,0.1004538,0.2490594,1.36635,-0.1706842,-0.4550286,1.301694,0.3019957,-0.4582387,1.268174,0.09802342,-0.1551984,1.384034,0.1000135,-0.449734,1.381886,-0.07295922,0.02449187,1.382971,0.0229384,-0.4391213,1.352171,-0.1243238,-0.2186748,1.3691,0.3220536,-0.2261154,1.36131,NA,NA,NotTracked,Unknown,
0.9370117,0.328125,-0.1142578,0.9257813,-0.331543,-0.1313477,0,0,-2,0,-2,-2,0,0,-3,-2,-5,-2,-1,-3,-1,-2,-0.5,-0.5,-0.5,5.125,5.125,5.125,8.052235,3.194871,6.508017,1.962183,3.129095,9.336024,-0.1244048,-0.4497307,1.318949,0.3416312,-0.4772224,1.270471,0.1009609,0.2488603,1.36494,-0.1692176,-0.4546239,1.299458,0.3100966,-0.4655601,1.309278,0.09808251,-0.1552836,1.384232,0.09992944,-0.4496001,1.384692,-0.0725267,0.0246147,1.38186,0.02301842,-0.4388383,1.354682,-0.1248593,-0.2179185,1.367122,0.3211696,-0.2251195,1.35971,NA,NA,NotTracked,Unknown,
0.9394531,0.2856445,-0.1123047,0.9140625,-0.3032227,-0.1264648,-1,0,-2,-2,-2,-2,0,0,-1,2,7,0,2,0,-1,1,2.1875,2.1875,2.1875,10.3125,10.3125,10.3125,7.958264,3.201166,6.612225,2.004763,3.130373,9.300925,-0.1234856,-0.4473916,1.317976,0.3355942,-0.4772666,1.261966,0.101009,0.2487791,1.364535,-0.1684104,-0.4238051,1.283946,0.3042196,-0.4623385,1.3005,0.09832533,-0.1551828,1.384529,0.09950196,-0.4496109,1.386042,-0.07249575,0.02462667,1.38167,0.02268597,-0.4387349,1.356326,-0.1248066,-0.2181261,1.366635,0.3203393,-0.2247462,1.357967,NA,NA,NotTracked,NotTracked,
0.9228516,0.3256836,-0.1108398,0.9125977,-0.2836914,-0.1748047,-2,-1,-1,-2,-1,-1,0,0,0,-4,-5,-6,-2,-1,-1,-1,4.1875,4.1875,4.1875,-16.4375,-16.4375,-16.4375,7.866996,3.212526,6.721696,2.024285,3.125115,9.267603,-0.12099,-0.4476294,1.318332,0.3308751,-0.476049,1.254858,0.1009948,0.2487102,1.364465,-0.164427,-0.4381639,1.291054,0.3007708,-0.4688172,1.294423,0.09868618,-0.1551964,1.385024,0.099429,-0.449917,1.387394,-0.07247026,0.02444197,1.381455,0.02272007,-0.4390786,1.357746,-0.1246596,-0.218445,1.366318,0.3194583,-0.2241778,1.35669,NA,NA,NotTracked,NotTracked,
0.890625,0.4160156,-0.1362305,0.9101563,-0.4013672,-0.2099609,-2,0,-1,-1,0,-2,-2,-1,2,0,-6,0,0,-2,1,-1,-4.75,-4.75,-4.75,-23.3125,-23.3125,-23.3125,7.722218,3.238554,6.882588,1.986403,3.121163,9.276493,-0.1189189,-0.465384,1.313265,0.3253159,-0.4738743,1.242562,0.1009994,0.2486924,1.364285,-0.1609843,-0.4559073,1.291197,0.2927458,-0.4769974,1.281409,0.09889191,-0.1551656,1.385172,0.09936053,-0.4500158,1.387798,-0.07240423,0.02445781,1.381183,0.02268121,-0.4391894,1.358178,-0.1246136,-0.2186929,1.365588,0.3182215,-0.2238991,1.354156,NA,NA,NotTracked,NotTracked,
0.890625,0.4160156,-0.1362305,0.9101563,-0.4013672,-0.2099609,-2,0,-1,-1,0,-2,-2,-1,2,0,-6,0,0,-2,1,-1,-4.75,-4.75,-4.75,-23.3125,-23.3125,-23.3125,7.722218,3.238554,6.882588,1.986403,3.121163,9.276493,-0.118452,-0.4663112,1.316122,0.3219645,-0.4723904,1.236987,0.1009935,0.2486808,1.364279,-0.1611592,-0.4586197,1.296609,0.2869424,-0.4738389,1.222822,0.09901271,-0.15529,1.385435,0.09891848,-0.4506426,1.388558,-0.07230242,0.02432449,1.380918,0.02223519,-0.4397701,1.35898,-0.1245671,-0.2189622,1.365409,0.3172814,-0.223444,1.353099,NA,NA,NotTracked,NotTracked,
0.8701172,0.449707,-0.1240234,0.9301758,-0.4033203,-0.1791992,-1,-3,-1,1,-2,-2,-1,-3,0,-3,-4,-2,-1,-2,-2,-1,-7.1875,-7.1875,-7.1875,6.5625,6.5625,6.5625,7.641101,3.255603,6.966714,1.94497,3.117514,9.315299,-0.1191684,-0.4500826,1.318674,0.3162369,-0.4691714,1.232198,0.1010947,0.2487851,1.364258,-0.1646559,-0.4605242,1.304409,0.2822556,-0.4733477,1.262444,0.0988627,-0.1554616,1.385529,0.09926827,-0.4507487,1.38879,-0.07219902,0.02440933,1.380697,0.02257822,-0.439919,1.359239,-0.1244103,-0.2185814,1.365217,0.3162202,-0.2224247,1.351682,NA,NA,NotTracked,NotTracked,
0.8266602,0.4697266,-0.09863281,0.9038086,-0.375,-0.1552734,-2,0,0,-2,0,0,0,-1,-2,-3,5,-2,-4,-3,-4,0,14.8125,14.8125,14.8125,10.5625,10.5625,10.5625,7.599704,3.261958,7.025539,1.927711,3.115769,9.344927,-0.1194531,-0.450247,1.319898,0.3108934,-0.4690393,1.228895,0.1012591,0.2490623,1.364188,-0.1645693,-0.4431846,1.2927,0.2997862,-0.5132651,1.26075,0.09940442,-0.1551017,1.385713,0.09953744,-0.4505168,1.388925,-0.07211496,0.02475995,1.38048,0.02283653,-0.4397947,1.359376,-0.1243592,-0.2186144,1.365133,0.3148609,-0.2212931,1.350023,NA,NA,NotTracked,NotTracked,
0.8452148,0.4697266,-0.06738281,0.8613281,-0.3613281,-0.1264648,0,-2,1,-1,-2,0,-2,-1,2,-2,-6,-2,-2,0,-1,-1,29.25,29.25,29.25,13.1875,13.1875,13.1875,7.621057,3.252311,7.040211,1.916987,3.119452,9.371493,-0.1202829,-0.4518639,1.320482,0.3090346,-0.4684492,1.228183,0.1015516,0.2494796,1.36435,-0.1645448,-0.4357026,1.299079,0.2857652,-0.4486017,1.2747,0.0991017,-0.1550983,1.385802,0.09963007,-0.4505104,1.388985,-0.07209161,0.02497519,1.380277,0.02293486,-0.4398121,1.359452,-0.1243418,-0.218663,1.365106,0.3142921,-0.2212257,1.348676,NA,NA,NotTracked,NotTracked,
0.8320313,0.3989258,-0.1054688,0.8549805,-0.3540039,-0.1220703,1,0,-2,-1,-3,-1,-2,-1,1,0,0,-5,0,-2,-1,-1,47,47,47,16.1875,16.1875,16.1875,7.684623,3.236929,7.025647,1.915246,3.123814,9.383262,-0.121182,-0.4624822,1.320342,0.3089545,-0.4689762,1.229583,0.1016667,0.2499665,1.3646,-0.1655558,-0.446878,1.297642,0.2770444,-0.4609442,1.254926,0.09915443,-0.1547619,1.385952,0.09909579,-0.4501946,1.389181,-0.07204293,0.0251102,1.380011,0.02251946,-0.4394729,1.359697,-0.124343,-0.2186512,1.365091,0.3138042,-0.2211883,1.346824,NA,NA,NotTracked,NotTracked,
0.8383789,0.4023438,-0.1049805,0.8793945,-0.3398438,-0.07519531,0,-1,-2,-2,-2,-1,0,0,0,-1,-1,-1,0,0,0,-2,61.25,61.25,61.25,19.6875,19.6875,19.6875,7.783404,3.217213,6.988094,1.92194,3.132266,9.400026,-0.1233623,-0.462485,1.321618,0.312846,-0.4723002,1.23394,0.1018155,0.2513552,1.365378,-0.1686034,-0.4486375,1.299018,0.2762017,-0.4712247,1.227212,0.0989399,-0.1543185,1.386247,0.098774,-0.4500262,1.389474,-0.07203406,0.02543451,1.379685,0.02229024,-0.439236,1.360121,-0.1249648,-0.2179868,1.365017,0.3131486,-0.2209393,1.343244,NA,NA,NotTracked,Unknown,
0.9047852,0.4233398,-0.1103516,0.9140625,-0.3452148,-0.06445313,0,0,0,-1,0,-2,0,-1,-1,-1,0,7,-1,1,-1,-2,53.75,53.75,53.75,21.625,21.625,21.625,7.893807,3.203807,6.937335,1.939841,3.138515,9.408178,-0.1240709,-0.4626926,1.320962,0.3150309,-0.4737834,1.234982,0.1017064,0.2518452,1.365812,-0.1698849,-0.4437187,1.297501,0.2801891,-0.4694004,1.227252,0.09898742,-0.1540757,1.386343,0.09843351,-0.4498222,1.38959,-0.07204668,0.02563305,1.379558,0.0220489,-0.4390111,1.360354,-0.1255641,-0.2178427,1.364942,0.313246,-0.2216429,1.340784,NA,NA,NotTracked,Unknown,
0.9335938,0.4350586,-0.1386719,0.8989258,-0.3334961,-0.07128906,-3,-1,-2,-3,-1,-2,0,0,-2,0,8,6,2,-1,-1,-1,24.875,24.875,24.875,19.9375,19.9375,19.9375,7.97284,3.199268,6.890278,1.976711,3.138023,9.41094,-0.1241153,-0.4633731,1.321157,0.3173557,-0.4759095,1.236548,0.1016255,0.2523689,1.36662,-0.169275,-0.4453289,1.297166,0.2788046,-0.4830784,1.23219,0.09895287,-0.153924,1.386446,0.09767253,-0.4497788,1.389726,-0.07202619,0.02573384,1.379468,0.02133969,-0.4388729,1.360713,-0.125876,-0.2178885,1.364971,0.3130959,-0.2227683,1.338405,NA,NA,NotTracked,Unknown,
0.9418945,0.4204102,-0.1425781,0.8759766,-0.3540039,-0.09130859,-2,0,-1,0,-1,-1,-1,-1,-1,-2,-4,-5,-3,-1,-1,-2,-11,-11,-11,9.375,9.375,9.375,8.001358,3.199415,6.856028,1.995268,3.135592,9.405969,-0.1253391,-0.4627194,1.320042,0.3200131,-0.4779497,1.23686,0.1017187,0.2530515,1.367222,-0.1708198,-0.441199,1.293842,0.278437,-0.4908223,1.235,0.09947952,-0.1534116,1.386472,0.09801325,-0.4495004,1.389606,-0.07196687,0.02601814,1.379339,0.02169847,-0.4386601,1.360644,-0.1261536,-0.2173568,1.365118,0.3133125,-0.222593,1.337383,NA,NA,NotTracked,Unknown,
0.9013672,0.3769531,-0.1186523,0.894043,-0.4169922,-0.1313477,0,-1,-1,-2,0,-1,-2,-3,-1,0,4,-5,-6,0,-1,-1,-31.375,-31.375,-31.375,-2.25,-2.25,-2.25,7.969616,3.203434,6.838236,2.011434,3.137481,9.390977,-0.1263933,-0.446819,1.321339,0.3224923,-0.4772198,1.236049,0.1018086,0.2550734,1.369524,-0.1697386,-0.4521164,1.295687,0.2820655,-0.4883021,1.232588,0.09928074,-0.1526735,1.386478,0.0985948,-0.4488477,1.389128,-0.07198301,0.02701424,1.379366,0.02226732,-0.4381916,1.360426,-0.1262469,-0.2171095,1.365308,0.3138235,-0.2217707,1.336189,NA,NA,NotTracked,Unknown,
0.9223633,0.3862305,-0.09765625,0.9057617,-0.4472656,-0.1411133,0,0,-2,0,0,-1,0,0,1,0,1,-4,-3,-3,-2,-2,-22.6875,-22.6875,-22.6875,-3.5625,-3.5625,-3.5625,7.933434,3.205876,6.847661,2.015254,3.146594,9.381886,-0.1255701,-0.4488564,1.319121,0.3224395,-0.4769897,1.23443,0.101924,0.2557412,1.370212,-0.1692784,-0.4424277,1.294578,0.2896648,-0.4696847,1.261737,0.09923546,-0.1522341,1.386454,0.09881354,-0.4486163,1.388539,-0.07198024,0.02717122,1.379361,0.02246439,-0.4380451,1.360127,-0.1261703,-0.2171225,1.365349,0.3141043,-0.2217086,1.335941,NA,NA,NotTracked,Unknown,
0.9106445,0.3769531,-0.09423828,0.902832,-0.4389648,-0.1503906,-2,-3,-1,-4,-2,-1,-1,-2,0,0,-2,-6,1,2,2,1,-1.6875,-1.6875,-1.6875,4.125,4.125,4.125,7.905907,3.206743,6.868122,2.023638,3.159937,9.374821,-0.1242301,-0.4481855,1.315694,0.3237846,-0.474882,1.233485,0.1017703,0.257508,1.372359,-0.1685826,-0.4497695,1.293621,0.2856425,-0.4787755,1.24957,0.09919287,-0.1514381,1.38607,0.09903064,-0.4479724,1.386382,-0.07190068,0.02766343,1.379296,0.02288438,-0.4374841,1.358491,-0.126097,-0.2171098,1.365042,0.314819,-0.2217156,1.335479,NA,NA,NotTracked,Unknown,
0.8642578,0.3730469,-0.09033203,0.8886719,-0.4008789,-0.1469727,-1,2,-1,-1,-3,-1,0,-2,0,-1,2,-2,1,-1,-2,0,29.5625,29.5625,29.5625,6.375,6.375,6.375,7.905642,3.203716,6.894144,2.031168,3.165804,9.369942,-0.1246993,-0.4467634,1.312605,0.3240255,-0.4754392,1.234061,0.1018259,0.258039,1.373219,-0.1714894,-0.4258609,1.279739,0.2827209,-0.4880003,1.250769,0.09921934,-0.1508209,1.385734,0.09972075,-0.4472799,1.384403,-0.07185096,0.02782965,1.379267,0.02359795,-0.4369822,1.356668,-0.1259321,-0.2168805,1.364555,0.3152321,-0.2216541,1.335369,NA,NA,NotTracked,NotTracked,
0.840332,0.4350586,-0.07519531,0.9018555,-0.3720703,-0.1357422,-1,-1,-2,-1,-1,-2,-2,0,-2,-4,-9,-7,-3,1,0,-1,42,42,42,3.25,3.25,3.25,7.927653,3.203615,6.919519,2.044206,3.176754,9.359829,-0.123877,-0.4502174,1.310125,0.3241144,-0.4759199,1.234443,0.1020408,0.2585597,1.374114,-0.1673694,-0.4544265,1.287956,0.2816415,-0.4915916,1.248353,0.09885953,-0.1505555,1.385329,0.1000739,-0.4465891,1.382347,-0.07185708,0.02798064,1.379294,0.02397294,-0.4364403,1.354887,-0.1257108,-0.2168193,1.363996,0.3156109,-0.2216338,1.335273,NA,NA,NotTracked,NotTracked,
0.8364258,0.4541016,-0.07861328,0.9018555,-0.3579102,-0.09863281,-1,-1,-2,0,0,-1,-1,0,-1,3,11,1,-2,-5,0,-1,34.375,34.375,34.375,2.4375,2.4375,2.4375,7.939024,3.204184,6.926927,2.060792,3.182436,9.344581,-0.1237859,-0.4442557,1.308009,0.3250783,-0.4771125,1.236293,0.1018647,0.2588474,1.375359,-0.1687757,-0.4227969,1.282133,0.2851095,-0.486102,1.240281,0.09918489,-0.1502192,1.384864,0.09937237,-0.4465688,1.380983,-0.07184622,0.02799211,1.379271,0.02336988,-0.4361316,1.353316,-0.125723,-0.2172685,1.363064,0.3162,-0.22198,1.335037,NA,NA,NotTracked,NotTracked,
0.8510742,0.4550781,-0.06494141,0.8994141,-0.3344727,-0.109375,-1,-1,0,-1,-1,-1,-1,1,2,5,10,3,1,2,1,2,7.6875,7.6875,7.6875,-5.3125,-5.3125,-5.3125,7.956281,3.204941,6.923806,2.071902,3.18239,9.32889,-0.1239853,-0.4466425,1.304578,0.3254061,-0.477971,1.23683,0.1021057,0.2590875,1.376143,-0.1688504,-0.4393999,1.281614,0.2931865,-0.4676577,1.266692,0.09902325,-0.1496529,1.384278,0.09994285,-0.4462411,1.378923,-0.07181252,0.02812173,1.37922,0.02403772,-0.4358077,1.35089,-0.1254511,-0.2169953,1.362142,0.3162983,-0.2220231,1.334945,NA,NA,NotTracked,NotTracked,
0.8828125,0.4462891,-0.07910156,0.8896484,-0.3979492,-0.1132813,-2,0,-4,0,0,-2,-2,0,0,0,0,-4,1,2,-2,-3,-17.4375,-17.4375,-17.4375,-12.25,-12.25,-12.25,7.968896,3.205631,6.893972,2.069383,3.18362,9.317236,-0.1214328,-0.4636246,1.302253,0.3275026,-0.478235,1.238307,0.1019722,0.2591277,1.377488,-0.1673201,-0.452319,1.280982,0.2972842,-0.4605022,1.270563,0.09938991,-0.1495188,1.383806,0.09935752,-0.4464149,1.377703,-0.07173386,0.02812267,1.379158,0.02357288,-0.4358026,1.349822,-0.1255082,-0.2173028,1.361226,0.3167619,-0.2228591,1.33457,NA,NA,NotTracked,NotTracked,
0.9003906,0.4418945,-0.1108398,0.8793945,-0.4169922,-0.1069336,-1,-1,-2,0,0,0,-1,0,0,-1,-2,-1,-3,-1,0,0,-35.5625,-35.5625,-35.5625,-3.25,-3.25,-3.25,7.971516,3.207941,6.851065,2.075767,3.187574,9.302963,-0.1208943,-0.46324,1.29932,0.3279684,-0.4788753,1.237219,0.102209,0.2592582,1.37889,-0.1660404,-0.4510782,1.275059,0.2884939,-0.4866546,1.235062,0.09971706,-0.149277,1.383344,0.0991287,-0.446199,1.376549,-0.07169462,0.02811483,1.379112,0.02345098,-0.4355162,1.348732,-0.125496,-0.2175224,1.360043,0.3171784,-0.2236825,1.333945,NA,NA,NotTracked,NotTracked,
0.9423828,0.4067383,-0.1674805,0.8920898,-0.387207,-0.1152344,0,-2,-1,-1,0,-1,-1,0,0,-4,-4,1,1,-1,-2,-2,-22.375,-22.375,-22.375,1.25,1.25,1.25,7.941086,3.205851,6.820547,2.085502,3.191215,9.293175,-0.1220399,-0.4441241,1.297771,0.326866,-0.4797676,1.234014,0.1026072,0.2597735,1.380161,-0.1673288,-0.4276597,1.271642,0.2922606,-0.480427,1.226529,0.0997405,-0.148683,1.382564,0.1005795,-0.4460615,1.372341,-0.07199465,0.0280073,1.373689,0.02482861,-0.4356807,1.344096,-0.1250062,-0.217212,1.357172,0.3171503,-0.2241347,1.332757,NA,NA,NotTracked,NotTracked,
0.9189453,0.5117188,-0.1396484,0.8989258,-0.3745117,-0.112793,-2,0,0,0,0,-2,-1,-1,-3,0,4,3,0,-3,-2,-1,4.1875,4.1875,4.1875,-1.5,-1.5,-1.5,7.925651,3.224184,6.856808,2.084467,3.194839,9.291803,-0.1217697,-0.4476226,1.295264,0.326051,-0.4797536,1.231684,0.1029572,0.2599613,1.380686,-0.1643238,-0.4327081,1.268166,0.2978634,-0.4621843,1.2686,0.09982053,-0.1485127,1.382118,0.1011877,-0.4463041,1.370713,-0.0722896,0.02768447,1.371999,0.02542867,-0.43594,1.342179,-0.1246942,-0.2165941,1.355613,0.3171761,-0.2246287,1.332065,NA,NA,NotTracked,NotTracked,
0.8857422,0.4638672,-0.1186523,0.8959961,-0.390625,-0.1240234,-2,1,-3,-1,-1,-2,-1,1,-1,-3,-9,-5,-1,-4,-4,-2,-17.625,-17.625,-17.625,-3.125,-3.125,-3.125,7.87872,3.241934,6.892712,2.079057,3.197717,9.29381,-0.121229,-0.445338,1.292072,0.3231763,-0.4784181,1.226103,0.1032492,0.260334,1.381741,-0.1666257,-0.4251146,1.267942,0.2996836,-0.4563704,1.272917,0.1000612,-0.1482198,1.380965,0.1009087,-0.4462754,1.367868,-0.07183664,0.02752528,1.370738,0.02519528,-0.4357988,1.339469,-0.1241156,-0.2172474,1.352959,0.3168414,-0.2258218,1.330532,NA,NA,NotTracked,NotTracked,
0.8515625,0.4296875,-0.09228516,0.8808594,-0.4199219,-0.1191406,-1,0,1,-2,-1,0,1,0,-2,1,6,13,1,-2,-1,-1,-12.6875,-12.6875,-12.6875,3.625,3.625,3.625,7.84636,3.250957,6.91191,2.077415,3.202993,9.296237,-0.1195085,-0.4627787,1.288854,0.3239617,-0.4788256,1.222993,0.1033306,0.2604161,1.382255,-0.165436,-0.451172,1.268305,0.2970057,-0.4632938,1.265701,0.1002064,-0.1483861,1.380037,0.1000293,-0.4466506,1.366247,-0.0716266,0.02748467,1.371128,0.02444265,-0.4357967,1.337963,-0.1237977,-0.217968,1.351147,0.3170263,-0.2279651,1.328622,NA,NA,NotTracked,NotTracked,
0.831543,0.4370117,-0.07958984,0.8862305,-0.4111328,-0.1210938,1,-2,0,-1,-1,-2,-1,-2,-2,-1,-3,1,-2,-3,-3,-1,3,3,3,11.8125,11.8125,11.8125,7.833383,3.256569,6.92412,2.083815,3.210146,9.301803,-0.1190748,-0.4652594,1.286552,0.3240221,-0.4786556,1.219274,0.1033873,0.2604164,1.382581,-0.1661118,-0.4449946,1.261127,0.2996998,-0.4552175,1.263094,0.1005786,-0.1484211,1.379077,0.0995217,-0.4468089,1.364841,-0.071319,0.02744507,1.371494,0.02402543,-0.4357293,1.336607,-0.123484,-0.2189834,1.349512,0.3171429,-0.2293051,1.327238,NA,NA,NotTracked,NotTracked,
0.8383789,0.4541016,-0.08154297,0.8984375,-0.4013672,-0.1225586,-2,-2,1,0,-3,0,0,0,1,-1,-5,17,3,3,1,1,1.75,1.75,1.75,14.5,14.5,14.5,7.832644,3.262208,6.926016,2.093505,3.214968,9.307702,-0.1187466,-0.4658656,1.286017,0.3244542,-0.4785303,1.217283,0.1035204,0.2604005,1.383125,-0.1639395,-0.4556103,1.265216,0.2994684,-0.4608571,1.267043,0.1009549,-0.1483879,1.37833,0.09937914,-0.4468129,1.363753,-0.07112059,0.02748273,1.37184,0.02396487,-0.4356155,1.335526,-0.1233709,-0.2185186,1.348753,0.3174188,-0.2302614,1.325817,NA,NA,NotTracked,NotTracked,
0.8969727,0.425293,-0.09082031,0.8828125,-0.3969727,-0.1308594,-2,0,-2,0,-1,0,0,0,-3,-3,-3,-8,-2,-3,-3,-2,1.75,1.75,1.75,9.25,9.25,9.25,7.830595,3.268501,6.928162,2.10029,3.21828,9.313135,-0.1185969,-0.4649338,1.284832,0.3244355,-0.4799294,1.213996,0.1038553,0.2604074,1.383546,-0.1640115,-0.4514744,1.263407,0.2851174,-0.4882336,1.206397,0.1012364,-0.1485305,1.377636,0.0989217,-0.4471561,1.362544,-0.07066722,0.02770478,1.372172,0.02361216,-0.4357534,1.334507,-0.1232699,-0.2185009,1.3478,0.317796,-0.2303409,1.324427,NA,NA,NotTracked,NotTracked,
0.9111328,0.4116211,-0.09912109,0.8745117,-0.4033203,-0.1220703,-1,-3,-1,-2,0,-1,0,1,0,-2,-2,-6,-6,-4,-5,-1,5.9375,5.9375,5.9375,5.3125,5.3125,5.3125,7.833844,3.268123,6.931085,2.100748,3.220711,9.315784,-0.1183498,-0.464777,1.283574,0.3247132,-0.479388,1.212026,0.1044929,0.2603502,1.384245,-0.1674144,-0.4346984,1.252783,0.2923396,-0.4711213,1.240556,0.1015295,-0.1487457,1.376828,0.09855874,-0.4477586,1.361119,-0.0696618,0.02639848,1.368769,0.02323042,-0.4362026,1.333228,-0.1230843,-0.2183976,1.346824,0.3180867,-0.2306382,1.322844,NA,NA,NotTracked,NotTracked,
0.8876953,0.4331055,-0.1005859,0.8740234,-0.4443359,-0.1040039,0,-1,-2,-1,-1,-1,0,-1,-1,0,-2,-2,1,1,0,1,7.5625,7.5625,7.5625,2,2,2,7.832724,3.26778,6.94275,2.097898,3.229504,9.323198,-0.1176764,-0.4640381,1.281739,0.3237941,-0.476772,1.208569,0.1050691,0.2603585,1.385245,-0.1635474,-0.4482156,1.258458,0.2859921,-0.4807829,1.22025,0.1020136,-0.1485124,1.375585,0.09797415,-0.4473966,1.358689,-0.06925993,0.0269352,1.370448,0.02277709,-0.435636,1.330892,-0.1226308,-0.2189291,1.345748,0.3184794,-0.2314489,1.31928,NA,NA,NotTracked,NotTracked,
0.8725586,0.4506836,-0.1103516,0.875,-0.4331055,-0.1040039,-2,-1,-2,-2,-1,-1,-1,-1,-1,1,7,1,-3,3,3,0,2.875,2.875,2.875,3.625,3.625,3.625,7.819232,3.271797,6.96881,2.100247,3.235261,9.325212,-0.1174577,-0.4655938,1.28075,0.3234,-0.4765475,1.206907,0.1055517,0.2603052,1.385765,-0.1634836,-0.4539483,1.261197,0.2855618,-0.4848679,1.200565,0.1022062,-0.1486209,1.374817,0.0975271,-0.4476903,1.357237,-0.0690206,0.02704647,1.370986,0.02237641,-0.4357225,1.329491,-0.1224657,-0.218964,1.345251,0.3188381,-0.2320111,1.317711,NA,NA,NotTracked,NotTracked,
0.8857422,0.465332,-0.1181641,0.8857422,-0.4350586,-0.09472656,-2,-1,0,-1,-1,-1,-2,-1,1,0,0,2,-1,-4,-1,1,-2.5625,-2.5625,-2.5625,5.125,5.125,5.125,7.807615,3.281329,6.981759,2.111773,3.242588,9.323091,-0.1178015,-0.4639414,1.277591,0.3234673,-0.4786019,1.200879,0.1065836,0.2602408,1.386391,-0.1673878,-0.4666194,1.267313,0.2868158,-0.4800581,1.210696,0.1027964,-0.1486818,1.372541,0.09708244,-0.4478776,1.352615,-0.06844144,0.02710338,1.371957,0.02214351,-0.4354103,1.325055,-0.1216958,-0.219446,1.343944,0.3196925,-0.2328721,1.313377,NA,NA,NotTracked,NotTracked,
0.8886719,0.4648438,-0.1171875,0.8745117,-0.4257813,-0.1064453,-1,0,-1,2,1,-2,-1,0,1,2,14,22,5,1,-1,0,-7.1875,-7.1875,-7.1875,4.6875,4.6875,4.6875,7.807013,3.290702,6.976822,2.116125,3.243567,9.32506,-0.1191626,-0.4629971,1.276506,0.324762,-0.4780344,1.199025,0.1073567,0.2600593,1.386819,-0.1636157,-0.4485424,1.254026,0.289339,-0.477406,1.19032,0.1027987,-0.148683,1.372221,0.09877569,-0.4475744,1.350546,-0.06839819,0.02702108,1.372543,0.02361456,-0.4355776,1.323473,-0.1213989,-0.2196437,1.343653,0.3199503,-0.2320487,1.312706,NA,NA,NotTracked,NotTracked,
0.9008789,0.4458008,-0.1079102,0.8662109,-0.394043,-0.1074219,-1,0,-2,1,-2,-2,-2,-1,1,4,17,18,2,0,1,2,-5.1875,-5.1875,-5.1875,-0.5,-0.5,-0.5,7.808,3.298217,6.968873,2.113657,3.241437,9.328876,-0.1187325,-0.4622395,1.276089,0.3252032,-0.4774784,1.19698,0.1080405,0.2598353,1.387104,-0.1630398,-0.4486015,1.254913,0.2909556,-0.4725855,1.20995,0.1028396,-0.1489036,1.371672,0.09825891,-0.4482362,1.349737,-0.06822386,0.02699091,1.372751,0.02320278,-0.4359633,1.322803,-0.1211154,-0.2196987,1.343144,0.3199211,-0.2318958,1.312003,NA,NA,NotTracked,NotTracked,
0.8564453,0.4458008,-0.08935547,0.8886719,-0.3935547,-0.1088867,0,-2,0,0,0,0,0,-2,0,0,1,-5,-2,-2,-1,0,-4.9375,-4.9375,-4.9375,-8.9375,-8.9375,-8.9375,7.806449,3.298604,6.964124,2.097936,3.237571,9.33711,-0.1183783,-0.4621111,1.276713,0.3269975,-0.4788532,1.197086,0.1085703,0.259756,1.387577,-0.1638778,-0.4473419,1.255053,0.2893389,-0.4778032,1.204422,0.1029878,-0.1488806,1.371281,0.09813805,-0.4482138,1.349383,-0.06807843,0.02696639,1.372981,0.02313596,-0.4359608,1.322565,-0.120767,-0.2200453,1.34265,0.3203753,-0.2319309,1.311152,NA,NA,NotTracked,NotTracked,
0.8720703,0.4208984,-0.07861328,0.9057617,-0.3994141,-0.1152344,-1,-2,0,-1,-2,0,-1,0,1,-2,-9,-5,2,1,0,0,-0.5,-0.5,-0.5,-11,-11,-11,7.809236,3.298225,6.959772,2.081594,3.232355,9.341705,-0.1178058,-0.4452382,1.278844,0.3284032,-0.4783141,1.197593,0.1088359,0.2596279,1.387908,-0.1645055,-0.4226623,1.254143,0.2913955,-0.4837953,1.190897,0.103273,-0.1488707,1.370862,0.09824641,-0.4482643,1.348988,-0.06704753,0.02495959,1.369458,0.02320133,-0.436025,1.322273,-0.1205215,-0.2200896,1.34231,0.3208956,-0.2314167,1.310565,NA,NA,NotTracked,NotTracked,
0.8632813,0.4174805,-0.06982422,0.9121094,-0.4331055,-0.1391602,1,-1,-2,-1,-2,0,-2,0,0,-1,-3,-1,-1,-6,-2,-3,1.125,1.125,1.125,-7.125,-7.125,-7.125,7.811055,3.29615,6.958323,2.071725,3.228368,9.341739,-0.1168566,-0.4624278,1.277259,0.3289443,-0.4778713,1.196563,0.1090533,0.2596568,1.38807,-0.1629525,-0.4485285,1.255015,0.29137,-0.4894053,1.209167,0.1034577,-0.1487745,1.370583,0.09823462,-0.4481786,1.348828,-0.06685014,0.02517385,1.369924,0.02319529,-0.4359573,1.322163,-0.1201019,-0.2201685,1.341815,0.3216626,-0.2315657,1.309699,NA,NA,NotTracked,NotTracked,
0.887207,0.4116211,-0.07275391,0.8666992,-0.4350586,-0.1469727,-2,1,-2,0,-1,-1,0,0,-1,-1,0,-3,-2,0,0,-3,11.5625,11.5625,11.5625,-1.25,-1.25,-1.25,7.827877,3.284003,6.954622,2.07134,3.226921,9.337899,-0.1156055,-0.4632732,1.277299,0.3308311,-0.4777922,1.197633,0.1091384,0.2596771,1.388036,-0.1597182,-0.4486564,1.254375,0.3008423,-0.4825527,1.215889,0.1039278,-0.1485857,1.370058,0.09856372,-0.4479107,1.348464,-0.06658042,0.02532723,1.370582,0.02353897,-0.4357926,1.321859,-0.1190496,-0.2205571,1.340638,0.3227177,-0.2305004,1.308277,NA,NA,NotTracked,NotTracked,
0.8818359,0.4301758,-0.0859375,0.8642578,-0.4301758,-0.1347656,-1,-2,0,0,-1,-2,0,-2,-1,-1,0,3,-1,-2,-1,0,11.5,11.5,11.5,6.1875,6.1875,6.1875,7.840339,3.272835,6.955649,2.071837,3.229516,9.343367,-0.1154327,-0.4627296,1.278236,0.3306787,-0.4784759,1.198665,0.1093537,0.2597597,1.38798,-0.1603641,-0.444677,1.253995,0.2957363,-0.4745234,1.2189,0.1041025,-0.1485238,1.369921,0.09865709,-0.44785,1.348412,-0.06641432,0.02545662,1.370998,0.02363614,-0.4357482,1.321826,-0.1187686,-0.2206817,1.340581,0.3229676,-0.2303667,1.308165,NA,NA,NotTracked,NotTracked,
0.8842773,0.4516602,-0.1044922,0.875,-0.4272461,-0.1171875,-1,-2,-1,-3,-1,-2,0,-2,-1,1,9,17,0,0,-2,-3,5.4375,5.4375,5.4375,10.3125,10.3125,10.3125,7.843884,3.262035,6.959692,2.073511,3.228662,9.353228,-0.1151171,-0.4622961,1.27988,0.3293137,-0.4800406,1.202056,0.1097716,0.2598695,1.387715,-0.1594214,-0.4463523,1.257512,0.294047,-0.4803742,1.211734,0.1047396,-0.1484573,1.369666,0.100841,-0.4476929,1.348026,-0.06512584,0.02376856,1.36861,0.02570223,-0.4359521,1.321298,-0.117548,-0.2198606,1.340955,0.3234729,-0.2304091,1.30768,NA,NA,NotTracked,Unknown,
0.8803711,0.4799805,-0.1225586,0.8842773,-0.4155273,-0.109375,0,-2,0,-1,-2,-1,-1,0,-2,-2,-4,-6,-3,-7,-3,-2,2.125,2.125,2.125,10.4375,10.4375,10.4375,7.854707,3.252768,6.963287,2.075171,3.225403,9.364775,-0.1158811,-0.4618785,1.281113,0.328667,-0.4809712,1.204848,0.1100182,0.2598141,1.387609,-0.160897,-0.4430771,1.257313,0.2915926,-0.4860981,1.20064,0.1048411,-0.1484591,1.369674,0.1017363,-0.4476844,1.348044,-0.06541108,0.02401984,1.370177,0.02653181,-0.4361092,1.32127,-0.1168176,-0.2196384,1.341327,0.3236546,-0.2302689,1.307833,NA,NA,NotTracked,NotTracked,
0.8813477,0.4716797,-0.1357422,0.8754883,-0.425293,-0.112793,-1,-1,-3,-3,-1,0,-2,0,-2,-2,1,-1,-1,-1,-2,-1,2.375,2.375,2.375,2.6875,2.6875,2.6875,7.857781,3.252677,6.962092,2.0723,3.221845,9.373844,-0.115863,-0.4609804,1.282345,0.329401,-0.4820587,1.206814,0.1105668,0.2597591,1.387617,-0.1605432,-0.4439324,1.257885,0.2884044,-0.4922491,1.209437,0.1051127,-0.1484627,1.369728,0.1026297,-0.4477108,1.348202,-0.06544849,0.0244536,1.371277,0.0274299,-0.4362889,1.321452,-0.1163752,-0.2194304,1.341714,0.3238539,-0.2301888,1.308062,NA,NA,NotTracked,NotTracked,
0.8837891,0.4702148,-0.1210938,0.8793945,-0.4311523,-0.1083984,-2,0,0,-1,-3,-1,1,-2,0,3,6,18,2,-1,-1,-2,-7.5625,-7.5625,-7.5625,-1.375,-1.375,-1.375,7.859641,3.254127,6.954085,2.069233,3.220515,9.376569,-0.1157436,-0.4618617,1.283839,0.3302966,-0.481065,1.207918,0.1107005,0.2597882,1.387672,-0.1602259,-0.4437613,1.257595,0.2937278,-0.4788926,1.212108,0.105245,-0.1484707,1.369773,0.1026347,-0.4477321,1.348511,-0.06537325,0.02459739,1.371817,0.02744486,-0.4362799,1.321848,-0.116239,-0.2195985,1.341964,0.3244558,-0.2308765,1.308429,NA,NA,NotTracked,NotTracked,
0.8764648,0.4526367,-0.1040039,0.8740234,-0.4370117,-0.1020508,-1,-1,-1,-1,2,-1,0,0,-2,1,1,5,-1,0,-1,-2,-9.1875,-9.1875,-9.1875,-5.0625,-5.0625,-5.0625,7.861851,3.255796,6.939977,2.062299,3.218828,9.379812,-0.1150024,-0.4616201,1.283202,0.3305628,-0.4814304,1.207733,0.1109354,0.2598527,1.387605,-0.159866,-0.443459,1.256718,0.2928508,-0.4848757,1.204883,0.1056291,-0.1484751,1.369785,0.1027709,-0.4477613,1.348647,-0.06338326,0.0229686,1.368274,0.02756589,-0.4363197,1.322029,-0.1160412,-0.2199325,1.342134,0.3247037,-0.2307166,1.308727,NA,NA,NotTracked,NotTracked,
0.8759766,0.4306641,-0.0859375,0.8896484,-0.4316406,-0.1083984,1,-1,0,-2,-2,-2,-2,-3,-2,0,2,0,-1,-1,0,2,-3.75,-3.75,-3.75,-7,-7,-7,7.866855,3.25666,6.927155,2.056422,3.217629,9.378808,-0.1148226,-0.4612046,1.284502,0.3313244,-0.4802524,1.207828,0.1112785,0.2598704,1.387532,-0.1588261,-0.444727,1.260436,0.2934252,-0.4843396,1.209847,0.1057428,-0.148449,1.369835,0.1026867,-0.4476733,1.348966,-0.06334625,0.02366433,1.369443,0.02749611,-0.4361376,1.322506,-0.1158771,-0.2198865,1.342438,0.3250421,-0.2310001,1.30892,NA,NA,NotTracked,NotTracked,
0.878418,0.4360352,-0.08642578,0.8857422,-0.4121094,-0.112793,-2,-3,-2,-1,-2,0,-4,1,-3,0,-2,-7,-2,0,1,0,-1.9375,-1.9375,-1.9375,-6.5625,-6.5625,-6.5625,7.872039,3.258137,6.918534,2.05411,3.217057,9.373977,-0.114754,-0.4616396,1.285294,0.3330932,-0.4801142,1.208863,0.1116733,0.2599028,1.38763,-0.1625118,-0.4591114,1.277875,0.2961402,-0.481618,1.2245,0.105965,-0.148397,1.369935,0.1028029,-0.4475328,1.349409,-0.06334869,0.02419162,1.370386,0.02763691,-0.4359887,1.323001,-0.1157007,-0.2201732,1.342646,0.32553,-0.2312106,1.309107,NA,NA,NotTracked,NotTracked,
0.8847656,0.4204102,-0.07714844,0.887207,-0.4086914,-0.1240234,-2,-2,-1,0,0,-1,-2,-1,-3,0,9,3,-4,-4,-4,-1,-4.875,-4.875,-4.875,-7.375,-7.375,-7.375,7.868032,3.255389,6.917009,2.049852,3.215308,9.369267,-0.1144988,-0.4607431,1.286454,0.3343157,-0.4793355,1.211504,0.1122524,0.2600669,1.387951,-0.1587305,-0.4448731,1.264009,0.2965206,-0.486522,1.228417,0.1063525,-0.1485794,1.370332,0.1034276,-0.4478818,1.35094,-0.06252731,0.02238056,1.368118,0.02815871,-0.4363678,1.324519,-0.1153082,-0.220769,1.343332,0.326211,-0.2310243,1.310256,NA,NA,NotTracked,NotTracked,
0.8842773,0.4282227,-0.0859375,0.8833008,-0.4077148,-0.1347656,0,-1,-2,-1,-1,-1,0,-2,-2,-1,0,-3,1,1,-1,0,0.5,0.5,0.5,-5.625,-5.625,-5.625,7.864388,3.249474,6.918599,2.042783,3.213506,9.364069,-0.1132279,-0.4620456,1.287293,0.3342328,-0.4806406,1.213554,0.1124334,0.2601293,1.388197,-0.1578849,-0.4458437,1.264875,0.2963486,-0.482732,1.220458,0.1067049,-0.1485958,1.370655,0.1038085,-0.447997,1.351716,-0.06182614,0.02161805,1.366768,0.02845386,-0.4365263,1.325148,-0.1151742,-0.2209122,1.343616,0.3263685,-0.2308026,1.311097,NA,NA,NotTracked,NotTracked,
0.8867188,0.4360352,-0.09716797,0.8803711,-0.409668,-0.1430664,-1,-1,0,0,-2,0,0,-1,-1,-3,-10,-6,0,2,0,0,5.6875,5.6875,5.6875,-1.9375,-1.9375,-1.9375,7.865714,3.242541,6.92215,2.037958,3.212354,9.365181,-0.1131429,-0.4618224,1.288275,0.3343462,-0.4805031,1.214797,0.1127669,0.2601779,1.38846,-0.158397,-0.4461955,1.265704,0.2997629,-0.4797496,1.223208,0.1069486,-0.1485166,1.370969,0.1039582,-0.4477819,1.352502,-0.06191997,0.02286209,1.369068,0.02862875,-0.436296,1.325915,-0.1149735,-0.2210946,1.34389,0.3264849,-0.2306952,1.311718,NA,NA,NotTracked,NotTracked,
0.887207,0.4414063,-0.1132813,0.8862305,-0.4018555,-0.1396484,0,-1,-3,-1,-1,-2,-1,1,-2,3,3,1,0,-1,0,1,9.4375,9.4375,9.4375,-1.3125,-1.3125,-1.3125,7.872565,3.236629,6.926006,2.03511,3.210805,9.367106,-0.1131091,-0.4628828,1.288583,0.3331331,-0.4810945,1.216556,0.1131495,0.2601717,1.388897,-0.1581247,-0.4510412,1.266003,0.2904966,-0.4960669,1.213333,0.1073036,-0.148602,1.371347,0.1042732,-0.4479899,1.353274,-0.06152038,0.02254325,1.368537,0.02886293,-0.4364674,1.326463,-0.1147811,-0.2211638,1.344232,0.3267631,-0.2309299,1.312279,NA,NA,NotTracked,NotTracked,
0.8896484,0.4418945,-0.1171875,0.8837891,-0.4077148,-0.1279297,1,-3,0,-1,-1,0,-2,-1,0,-1,3,4,1,-1,-2,-1,8.1875,8.1875,8.1875,0.9375,0.9375,0.9375,7.879559,3.232114,6.929484,2.025091,3.206727,9.377426,-0.1130847,-0.4643922,1.290966,0.3331557,-0.4824381,1.219184,0.1139398,0.2605049,1.389758,-0.1582012,-0.4487742,1.267045,0.2946282,-0.4872336,1.218652,0.1081566,-0.1485268,1.372858,0.1068474,-0.4476949,1.355497,-0.06254464,0.02431889,1.372471,0.03122968,-0.4364843,1.328313,-0.1138923,-0.2201122,1.346075,0.3271491,-0.2302121,1.314481,NA,NA,NotTracked,NotTracked,
0.8857422,0.4335938,-0.1162109,0.8813477,-0.4057617,-0.1206055,-2,-2,-1,-1,-1,-1,-3,-1,-2,-5,-26,-10,-2,-1,-2,-1,4.625,4.625,4.625,-0.5,-0.5,-0.5,7.883655,3.228957,6.93198,2.019142,3.202766,9.384621,-0.1134309,-0.463087,1.293266,0.3328233,-0.4824665,1.220964,0.1146782,0.2607448,1.390336,-0.157755,-0.4473811,1.271559,0.2971212,-0.4843242,1.213285,0.1085763,-0.1480127,1.373963,0.1077222,-0.4473772,1.356639,-0.06266682,0.02516472,1.373746,0.03210683,-0.4362709,1.32934,-0.1134889,-0.2194854,1.347376,0.3271437,-0.2300097,1.315768,NA,NA,NotTracked,NotTracked,
0.8916016,0.4267578,-0.1054688,0.8847656,-0.4091797,-0.1186523,-2,-1,0,-2,-2,-2,-1,-1,-2,1,2,4,0,-4,-1,-1,1.625,1.625,1.625,-1.5625,-1.5625,-1.5625,7.886743,3.227379,6.93194,2.013407,3.199452,9.389606,-0.1131909,-0.4508961,1.296023,0.3330323,-0.4807141,1.221366,0.1148641,0.2609467,1.390676,-0.1585614,-0.4457809,1.245833,0.2980241,-0.4868037,1.23,0.1084634,-0.1479808,1.374705,0.10843,-0.4471726,1.357557,-0.06273058,0.02564086,1.374477,0.03279879,-0.436182,1.330283,-0.1133103,-0.2191437,1.348226,0.3272409,-0.2299349,1.316671,NA,NA,NotTracked,NotTracked,
0.8852539,0.4243164,-0.1049805,0.8852539,-0.4111328,-0.1166992,-1,-1,-1,-2,-2,1,0,-3,-2,2,1,3,-4,-5,-2,-3,0.625,0.625,0.625,-1.875,-1.875,-1.875,7.890327,3.226201,6.928736,2.010775,3.197266,9.390998,-0.1126512,-0.4629995,1.295403,0.3323666,-0.4809479,1.222646,0.1149163,0.2611303,1.39101,-0.1552828,-0.4530296,1.272848,0.3002816,-0.4822017,1.234217,0.1086196,-0.1478797,1.375005,0.1082586,-0.4470142,1.358587,-0.06270505,0.02585731,1.374759,0.03267306,-0.4359255,1.331472,-0.1134005,-0.2192917,1.348502,0.3273804,-0.2301861,1.31739,NA,NA,NotTracked,NotTracked,
0.8881836,0.4135742,-0.1035156,0.8896484,-0.4082031,-0.121582,-1,0,-1,-2,0,-2,-1,-1,2,0,2,1,1,-2,-2,0,2.3125,2.3125,2.3125,-1.875,-1.875,-1.875,7.89483,3.221644,6.925714,2.010168,3.196346,9.390716,-0.1129485,-0.4638869,1.297029,0.3328779,-0.4814349,1.22399,0.1150657,0.2613279,1.391315,-0.1574546,-0.4458268,1.276962,0.2933175,-0.4909865,1.223784,0.1087256,-0.1475042,1.376086,0.1088068,-0.4468203,1.359544,-0.06277866,0.02603381,1.375126,0.03318648,-0.4358402,1.332404,-0.113095,-0.219056,1.349561,0.3274216,-0.2292823,1.31888,NA,NA,NotTracked,NotTracked,
0.8881836,0.4135742,-0.1035156,0.8896484,-0.4082031,-0.121582,-1,0,-1,-2,0,-2,-1,-1,2,0,2,1,1,-2,-2,0,2.3125,2.3125,2.3125,-1.875,-1.875,-1.875,7.89483,3.221644,6.925714,2.010168,3.196346,9.390716,-0.1131355,-0.4641619,1.298208,0.3320785,-0.4834547,1.225249,0.1153984,0.2616564,1.391786,-0.1570752,-0.4460282,1.277263,0.2852574,-0.5047259,1.224308,0.1089813,-0.1471225,1.37722,0.1092067,-0.4465055,1.3606,-0.0628681,0.02651624,1.375878,0.03352436,-0.4356128,1.333203,-0.1130455,-0.2187117,1.35087,0.3276477,-0.2292028,1.319758,NA,NA,NotTracked,NotTracked,
0.8945313,0.4174805,-0.1083984,0.8881836,-0.3999023,-0.1269531,0,-3,-1,-1,0,-2,-1,-1,-1,-2,-4,3,0,-1,-1,-1,5.0625,5.0625,5.0625,-0.875,-0.875,-0.875,7.901314,3.21602,6.923859,2.007806,3.193993,9.390868,-0.1136416,-0.4625454,1.299227,0.3318992,-0.4842501,1.226721,0.1157591,0.261795,1.392402,-0.1572708,-0.4441285,1.274404,0.2980585,-0.4753325,1.251619,0.1093564,-0.1471174,1.378185,0.1097646,-0.4466841,1.361711,-0.0620637,0.02600269,1.374569,0.03396924,-0.4358422,1.334126,-0.1129209,-0.21858,1.351536,0.3278435,-0.2292687,1.320655,NA,NA,NotTracked,NotTracked,
0.894043,0.4169922,-0.112793,0.8828125,-0.3955078,-0.1367188,-1,0,-1,0,-2,-1,0,1,-1,1,2,3,0,-4,-1,0,5.875,5.875,5.875,0.5,0.5,0.5,7.908432,3.210831,6.923262,2.005938,3.19215,9.392928,-0.1134442,-0.4527527,1.302733,0.3320012,-0.4840781,1.227564,0.1157752,0.2619422,1.392756,-0.156394,-0.440513,1.277108,0.2958401,-0.4813875,1.243024,0.1095021,-0.1472362,1.379002,0.1099439,-0.4470761,1.362774,-0.06225632,0.02630706,1.375401,0.03413771,-0.4361756,1.335164,-0.1126262,-0.219062,1.352389,0.327843,-0.2290337,1.321579,NA,NA,NotTracked,NotTracked,
0.8901367,0.4267578,-0.1132813,0.8837891,-0.390625,-0.1386719,-1,0,-1,0,-2,0,-1,-1,-1,-2,-10,-5,-1,1,0,-2,5.75,5.75,5.75,0,0,0,7.915013,3.206821,6.923553,2.00347,3.189629,9.395918,-0.1136924,-0.4527737,1.303651,0.3313701,-0.4843278,1.228775,0.1158821,0.2619857,1.393048,-0.1564911,-0.4582178,1.283974,0.2930316,-0.4908833,1.226506,0.1093901,-0.1471872,1.379803,0.1100248,-0.4469797,1.363656,-0.06234536,0.02672931,1.376178,0.03423651,-0.4360978,1.336041,-0.1127158,-0.2190334,1.353141,0.3277249,-0.2289488,1.32226,NA,NA,NotTracked,NotTracked,
0.8959961,0.421875,-0.1196289,0.8925781,-0.4023438,-0.1206055,-1,-1,-1,-1,-1,1,-2,-1,-1,-1,-3,3,0,2,0,0,3.3125,3.3125,3.3125,-2.3125,-2.3125,-2.3125,7.919131,3.205047,6.923426,1.999875,3.18781,9.398074,-0.1139046,-0.4525743,1.30502,0.3314939,-0.4833161,1.23084,0.1161127,0.2621311,1.393575,-0.1569253,-0.4398535,1.277476,0.295262,-0.4817078,1.2494,0.1094497,-0.147096,1.380916,0.1102311,-0.4468125,1.36486,-0.0625873,0.02705795,1.377107,0.03447037,-0.4359351,1.337232,-0.1127399,-0.2200426,1.35447,0.3275223,-0.2291092,1.323283,NA,NA,NotTracked,NotTracked,
0.8969727,0.4238281,-0.1171875,0.887207,-0.4086914,-0.1289063,2,1,0,-1,-2,-2,-1,-1,1,2,7,2,0,2,0,0,0.875,0.875,0.875,-0.625,-0.625,-0.625,7.920358,3.204442,6.924258,1.995509,3.186604,9.401342,-0.1142071,-0.4529361,1.307423,0.3310609,-0.4832013,1.233086,0.1163878,0.2625101,1.394442,-0.1578732,-0.455765,1.285794,0.2936307,-0.4876837,1.229979,0.1096376,-0.1466068,1.382514,0.1109048,-0.4465229,1.367062,-0.06196965,0.02704105,1.376636,0.03509604,-0.4357854,1.339431,-0.112709,-0.219521,1.356033,0.327357,-0.2281446,1.325101,NA,NA,NotTracked,NotTracked,
0.8911133,0.4213867,-0.1162109,0.8901367,-0.402832,-0.1298828,-1,0,-2,-2,0,-1,-2,0,-1,-3,-11,-15,-3,-3,0,-2,-2.9375,-2.9375,-2.9375,0.1875,0.1875,0.1875,7.918661,3.206105,6.923113,1.994319,3.185685,9.402605,-0.114559,-0.453097,1.308841,0.3301248,-0.48384,1.233962,0.1163822,0.2626784,1.394787,-0.1580255,-0.4635919,1.2915,0.290558,-0.4942252,1.230343,0.1097729,-0.1463531,1.383494,0.1110604,-0.4463007,1.368243,-0.06230916,0.02731171,1.377465,0.03528316,-0.4355814,1.340609,-0.1124376,-0.2198982,1.357486,0.327123,-0.2279519,1.325912,NA,NA,NotTracked,NotTracked,
