ALX,ALY,ALZ,ARX,ARY,ARZ,EMG0L,EMG1L,EMG2L,EMG3L,EMG4L,EMG5L,EMG6L,EMG7L,EMG0R,EMG1R,EMG2R,EMG3R,EMG4R,EMG5R,EMG6R,EMG7R,GLX,GLY,GLZ,GRX,GRY,GRZ,ORL,OPL,OYL,ORR,OPR,OYR,LHNX,LHNY,LHNZ,RHNX,RHNY,RHNZ,HX,HY,HZ,LTX,LTY,LTZ,RTX,RTY,RTZ,SpineMidX,SpineMidY,SpineMidZ,SpineBaseX,SpineBaseY,SpineBaseZ,ShoulderLeftX,ShoulderLeftY,ShoulderLeftZ,ShoulderRightX,ShoulderRightY,ShoulderRightZ,ElbowLeftX,ElbowLeftY,ElbowLeftZ,ElbowRightX,ElbowRightY,ElbowRightZ,Myo_Pose_left,Myo_Pose_Right,Kinect_pose_left,Kinect_pose_right
-0.4541016,-0.9487305,0.6054688,-0.2207031,0.8032227,0.5581055,0,0,2,0,-1,-2,0,-2,-1,0,-3,-4,-3,-3,-4,1,-20.625,-20.625,-20.625,51.1875,51.1875,51.1875,3.13352,5.390554,8.072488,6.6293,5.425884,4.675447,-0.1996489,-0.0472501,0.9312491,0.2409046,-0.05081212,0.9309996,0.004880861,0.3233604,1.17212,-0.2096933,-0.07977905,0.9044001,0.2483549,-0.08204015,0.8996667,-0.0003319588,-0.03331154,1.170506,0.00280551,-0.2805504,1.141091,-0.1831237,0.1054042,1.178126,-0.06527153,-0.2788857,1.118643,-0.2483476,-0.130845,1.133034,0.241588,-0.1208653,1.144251,NA,NA,Closed,Closed,
-0.1279297,-0.7207031,0.1542969,-0.2456055,0.7353516,0.6054688,3,0,-1,-3,-5,-6,-6,0,-3,-3,-2,2,1,-4,-3,-8,-38.1875,-38.1875,-38.1875,60.75,60.75,60.75,3.127095,5.401651,8.212786,6.64942,5.447381,4.518439,-0.2216251,-0.04433426,0.9418625,0.2630497,-0.04888819,0.9395068,0.004740013,0.3233878,1.170969,-0.2451046,-0.06953791,0.9208519,0.275037,-0.07957973,0.9089999,-0.0003637995,-0.03348041,1.170096,0.002628785,-0.2808658,1.14081,-0.1832674,0.1053662,1.17808,-0.06551529,-0.2791197,1.11844,-0.2430221,-0.1112344,1.145291,0.2447153,-0.1092064,1.157588,NA,NA,Closed,Closed,
0.1186523,-0.5683594,1.112305,-0.3081055,0.703125,0.640625,2,1,-1,0,0,-1,-13,6,1,2,3,0,-3,-8,-3,2,-13.75,-13.75,-13.75,54,54,54,3.172611,5.377183,8.325474,6.659028,5.462232,4.377061,-0.2392941,-0.04274114,0.95226,0.2818424,-0.04617264,0.9493906,0.004689923,0.3232836,1.170011,-0.2579729,-0.07521018,0.9287693,0.2909925,-0.07791411,0.9195771,-0.0006668837,-0.03362988,1.169795,0.002251143,-0.2813001,1.140506,-0.1833502,0.1054441,1.178042,-0.06602892,-0.2793749,1.118143,-0.2399536,-0.1001667,1.156857,0.2482424,-0.1076026,1.16299,NA,NA,Closed,Closed,
-0.1420898,-0.4682617,1.503418,-0.3598633,0.6469727,0.7036133,-3,-5,-5,-3,-3,-7,7,-5,1,0,3,5,6,2,0,-1,-2.6875,-2.6875,-2.6875,38.6875,38.6875,38.6875,3.268792,5.346863,8.394395,6.657044,5.468976,4.272911,-0.2528915,-0.04272804,0.9627773,0.2959277,-0.04566769,0.9597638,0.004584083,0.3232856,1.169178,-0.2760937,-0.07478794,0.9471289,0.3018141,-0.07369271,0.9221305,-0.0007432346,-0.03374369,1.169556,0.002045754,-0.2815418,1.140378,-0.183399,0.1055272,1.178031,-0.06631001,-0.2795033,1.11802,-0.2400742,-0.0908827,1.16449,0.2496555,-0.1068981,1.167915,NA,NA,Closed,Closed,
-0.4980469,-0.6870117,0.515625,-0.4145508,0.6137695,0.6748047,2,-7,-5,-1,0,1,-9,4,-3,-3,-2,-2,-4,0,1,1,-5.625,-5.625,-5.625,18.625,18.625,18.625,3.280575,5.331491,8.400649,6.647049,5.472476,4.217232,-0.2606582,-0.04351795,0.9690372,0.303546,-0.04556381,0.9662133,0.004375407,0.3232885,1.168413,-0.298384,-0.05429561,0.9667647,0.3079968,-0.07238436,0.9250455,-0.0008237714,-0.03387649,1.169242,0.001809048,-0.2817523,1.140162,-0.1834355,0.1055657,1.178006,-0.06662706,-0.2795733,1.117846,-0.2400036,-0.08759135,1.16926,0.2514265,-0.1070646,1.170908,NA,NA,Closed,Closed,
-0.4365234,-0.8505859,0.6210938,-0.453125,0.6030273,0.6831055,-13,-10,-1,4,7,2,-4,-7,-2,-1,-1,-6,-3,-2,-4,-6,19.375,19.375,19.375,-7.75,-7.75,-7.75,3.294581,5.326399,8.360209,6.623718,5.473831,4.208014,-0.2587499,-0.05120059,0.9694009,0.3025409,-0.04840927,0.9672755,0.004239593,0.3231793,1.167519,-0.2750442,-0.0859106,0.9502189,0.3069527,-0.07640592,0.9293246,-0.001040138,-0.03419583,1.168824,0.001144668,-0.2824816,1.139831,-0.183516,0.1058228,1.178032,-0.06736705,-0.2798815,1.117529,-0.2412658,-0.08678997,1.173786,0.2527238,-0.1062332,1.174421,NA,NA,Closed,Closed,
-0.3291016,-0.7680664,0.6162109,-0.4672852,0.5991211,0.7661133,-1,0,-1,-1,-4,-4,-7,-2,2,1,-3,-12,-9,-4,-2,-1,36.75,36.75,36.75,-47.5,-47.5,-47.5,3.326295,5.321391,8.27483,6.55549,5.475276,4.287541,-0.2526987,-0.05684587,0.9663351,0.292265,-0.05197234,0.9633539,0.004176463,0.3231559,1.167384,-0.2765517,-0.09314684,0.9577727,0.2945819,-0.07897355,0.9251,-0.001140506,-0.0343322,1.168658,0.0007364451,-0.2828608,1.139642,-0.1835565,0.1058552,1.178056,-0.06780617,-0.2800435,1.117397,-0.2410937,-0.08673559,1.175373,0.2527401,-0.1060797,1.174916,NA,NA,Closed,Closed,
-0.7475586,-0.9555664,0.078125,-0.3056641,0.6464844,0.7480469,0,-6,-2,-6,-7,-10,-24,7,-6,-4,-6,-9,-3,3,1,-4,26.375,26.375,26.375,-74.5,-74.5,-74.5,3.324726,5.314383,8.121162,6.511364,5.469611,4.434992,-0.2378906,-0.06230017,0.958364,0.2746426,-0.05504648,0.9522933,0.004160211,0.3231597,1.167377,-0.2554564,-0.09638881,0.940963,0.2832015,-0.08971801,0.929931,-0.001287017,-0.03457399,1.16848,0.0003174791,-0.2834789,1.139395,-0.1836367,0.1059197,1.178113,-0.06818204,-0.2803687,1.117229,-0.2409697,-0.08674101,1.175329,0.2524581,-0.1059719,1.174453,NA,NA,Closed,Closed,
0.06005859,-0.9160156,0.7001953,-0.2050781,0.6210938,0.6831055,2,-1,-2,-6,-19,-51,-26,2,2,0,-1,1,-4,-10,-7,-4,8.6875,8.6875,8.6875,-71.75,-71.75,-71.75,3.308592,5.294494,7.91375,6.490795,5.455927,4.670389,-0.2155628,-0.06707823,0.9485286,0.2481451,-0.05770357,0.9406683,0.004108762,0.3231508,1.16744,-0.2223852,-0.1036138,0.9290625,0.2218391,-0.0870785,0.9692667,-0.001332591,-0.03468997,1.168366,6.50131E-05,-0.2838113,1.139195,-0.1836949,0.1058732,1.17816,-0.06851838,-0.2806109,1.116973,-0.240951,-0.08697461,1.172202,0.2506369,-0.1068272,1.171988,NA,NA,Closed,Closed,
-0.4760742,-1.008789,0.1191406,-0.2490234,0.7387695,0.5073242,-4,9,11,-8,5,14,28,0,-9,-16,-16,6,6,2,1,0,-13.875,-13.875,-13.875,-42.8125,-42.8125,-42.8125,3.231584,5.239279,7.533856,6.514465,5.429739,4.959241,-0.1450391,-0.07886677,0.9305903,0.1594928,-0.06765035,0.9150029,0.003979014,0.3232158,1.16836,-0.1481456,-0.1142593,0.9063334,0.1779963,-0.07726483,0.8956445,-0.001407076,-0.0348347,1.168363,-0.0001362813,-0.284137,1.139167,-0.1842274,0.1056277,1.178395,-0.06870224,-0.2808144,1.116993,-0.2592583,-0.08330566,1.16534,0.2483995,-0.1144606,1.148996,NA,NA,Unknown,Unknown,
0.3085938,-1.239258,0.2749023,0.01904297,1.106934,0.5,-8,-5,-4,-4,-5,1,-12,-26,9,1,1,-5,-6,-3,-3,-3,-86.6875,-86.6875,-86.6875,7,7,7,3.118134,5.197984,7.387383,6.570479,5.394003,5.198901,-0.1036896,-0.08568282,0.9413885,0.1208978,-0.07472066,0.9265667,0.003803421,0.3233195,1.169219,-0.1432947,-0.08883122,0.9289566,0.1402795,-0.0747325,0.8942045,-0.001409016,-0.0348215,1.168401,-0.0001161868,-0.2840434,1.139249,-0.1845066,0.1055044,1.178501,-0.06864702,-0.2807089,1.117045,-0.2594035,-0.08292482,1.161181,0.2482228,-0.1072335,1.145072,NA,NA,Unknown,Unknown,
0.1733398,-1.31543,0.2768555,0.1625977,1.26416,0.4042969,-11,-15,-3,5,8,1,-8,-3,13,-7,-2,10,5,-2,-2,-13,-75.875,-75.875,-75.875,-25.9375,-25.9375,-25.9375,3.062819,5.186086,7.342604,6.610857,5.344667,5.362034,-0.08824412,-0.09056356,0.9289799,0.09973799,-0.07761885,0.9268984,0.003503553,0.32344,1.170403,-0.1083787,-0.08651596,0.9018919,0.1112055,-0.1004925,0.896848,-0.001346322,-0.03477706,1.168484,1.868947E-05,-0.2838908,1.139387,-0.184758,0.1053288,1.178598,-0.06842057,-0.2805854,1.117151,-0.2591645,-0.08177041,1.153098,0.247025,-0.1052997,1.143748,NA,NA,NotTracked,Unknown,
0.02783203,-1.048828,0.3100586,0.08642578,0.9907227,0.3569336,3,1,-1,-1,-2,5,2,2,-11,11,8,5,4,0,-1,-7,13.125,13.125,13.125,1.9375,1.9375,1.9375,3.02224,5.185266,7.31025,6.629501,5.314888,5.423543,-0.07849972,-0.09065177,0.9253475,0.09087344,-0.07978787,0.9240862,0.003302506,0.3234251,1.171123,-0.08753162,-0.0618485,0.9040001,0.07752517,-0.1190201,0.9288571,-0.001326106,-0.03473062,1.168556,0.0001304736,-0.2836577,1.139538,-0.1850219,0.1052339,1.178683,-0.0682535,-0.2804435,1.117288,-0.2583088,-0.08182115,1.144475,0.2462203,-0.1034,1.1428,NA,NA,NotTracked,NotTracked,
-0.04541016,-0.7387695,0.3320313,-0.07080078,0.9384766,0.4394531,-1,2,2,0,1,-2,-7,-6,-3,-2,-6,-8,-1,-4,-4,-6,4.4375,4.4375,4.4375,26.625,26.625,26.625,3.035408,5.204003,7.315837,6.666257,5.304064,5.425431,-0.07720152,-0.07938695,0.9231097,0.0843173,-0.07215569,0.9326149,0.002727215,0.3237526,1.17214,-0.08824022,-0.05026764,0.9026666,0.1094388,-0.103124,0.9131428,-0.001260345,-0.03449929,1.168708,0.0005174154,-0.2828802,1.139894,-0.1854768,0.1051947,1.17879,-0.06777015,-0.2799687,1.117637,-0.2587323,-0.08361354,1.133936,0.2448266,-0.1006304,1.141309,NA,NA,NotTracked,NotTracked,
-0.1352539,-0.7543945,0.3735352,-0.1582031,0.800293,0.4926758,6,6,3,3,1,4,5,6,-2,-2,-5,0,0,-1,-1,-2,0.875,0.875,0.875,14.8125,14.8125,14.8125,3.040277,5.213879,7.318942,6.682885,5.306412,5.409099,-0.07974764,-0.07378145,0.9220714,0.08766504,-0.07197924,0.9333003,0.002515776,0.3238111,1.172345,-0.06246373,-0.03324066,0.9192668,0.1058306,-0.0920252,0.8981928,-0.001246742,-0.03437662,1.168792,0.0006590944,-0.2825205,1.140136,-0.185637,0.1051601,1.178787,-0.06757752,-0.2797647,1.117851,-0.2592992,-0.08379995,1.13242,0.2446998,-0.09998402,1.141299,NA,NA,NotTracked,NotTracked,
-0.1923828,-0.8764648,0.3671875,-0.2832031,0.7475586,0.5415039,1,1,0,-4,-2,4,8,1,-5,2,2,0,-1,-3,-3,-8,-7.5625,-7.5625,-7.5625,-0.9375,-0.9375,-0.9375,3.036885,5.219663,7.316971,6.674242,5.307829,5.393768,-0.07958829,-0.07099327,0.9217091,0.08996293,-0.07345083,0.929499,0.002401549,0.3238343,1.172394,-0.03999631,-0.05058819,0.9277499,0.1112094,-0.07913089,0.8989621,-0.001229624,-0.0342522,1.168888,0.0008443926,-0.2821469,1.140365,-0.1858866,0.1050806,1.178784,-0.06733436,-0.2795095,1.118109,-0.2597091,-0.08333516,1.131562,0.2447264,-0.0994344,1.141291,NA,NA,NotTracked,NotTracked,
-0.1811523,-0.9912109,0.362793,-0.2519531,0.8222656,0.5258789,2,1,-1,0,3,8,5,4,7,1,-3,-3,-1,0,-2,2,13.375,13.375,13.375,-9.3125,-9.3125,-9.3125,3.046283,5.213931,7.309366,6.658974,5.30669,5.376601,-0.07876771,-0.07317322,0.9249189,0.08942274,-0.07667379,0.93486,0.002123212,0.3237958,1.172368,-0.06112054,-0.04148224,0.9507693,0.1125611,-0.1063242,0.9114132,-0.001429093,-0.03400499,1.169267,0.0009075506,-0.2818816,1.140529,-0.1862608,0.1049123,1.17872,-0.06718925,-0.2793491,1.11831,-0.2604449,-0.08282559,1.129925,0.244701,-0.09927143,1.141396,NA,NA,NotTracked,NotTracked,
-0.1391602,-1.004883,0.3178711,-0.1992188,0.8720703,0.4960938,-4,-3,-4,-1,0,2,5,-2,4,4,0,-2,0,1,1,7,19.875,19.875,19.875,-20.25,-20.25,-20.25,3.065115,5.20595,7.311098,6.637095,5.301286,5.369264,-0.07822876,-0.07591519,0.9235545,0.09045514,-0.07778022,0.931563,0.002017526,0.3237657,1.172369,-0.04421959,-0.04613756,0.9400001,0.1115339,-0.1092106,0.9128371,-0.001410455,-0.03395243,1.169259,0.0009538716,-0.281705,1.140587,-0.1864303,0.1048877,1.178721,-0.06713521,-0.2792435,1.118335,-0.2605159,-0.08293065,1.129665,0.244659,-0.0990814,1.141515,NA,NA,NotTracked,NotTracked,
-0.08105469,-0.9726563,0.2612305,-0.1621094,0.887207,0.4770508,-1,3,1,-3,-1,-2,-1,-1,-4,0,-2,-2,-1,-2,-1,-5,15.9375,15.9375,15.9375,-11.4375,-11.4375,-11.4375,3.079897,5.196634,7.324967,6.623775,5.294221,5.363128,-0.07745998,-0.07749593,0.9248895,0.0903638,-0.07942658,0.9355816,0.001893805,0.3237072,1.172346,-0.04011509,-0.04928011,0.9201111,0.1106943,-0.1116954,0.9134254,-0.001404057,-0.03390838,1.169258,0.0009985015,-0.2815166,1.140635,-0.1865336,0.1048882,1.178676,-0.06707329,-0.2791167,1.118375,-0.2604633,-0.08282118,1.129535,0.2445845,-0.09901445,1.141676,NA,NA,NotTracked,NotTracked,
-0.05126953,-0.9360352,0.2001953,-0.1381836,0.8876953,0.4482422,-4,-10,-5,-3,0,2,0,-2,-1,0,0,-1,-2,-1,-1,0,12.5625,12.5625,12.5625,-5.0625,-5.0625,-5.0625,3.08676,5.178714,7.35255,6.619727,5.28933,5.346558,-0.07782676,-0.08037507,0.9258473,0.09014852,-0.08104218,0.9369121,0.001720684,0.3236435,1.172181,-0.0559066,-0.08204207,1.011,0.1161206,-0.1125064,0.9187727,-0.001400936,-0.03389669,1.169253,0.001025549,-0.2814519,1.140659,-0.1866645,0.104804,1.178594,-0.06703336,-0.2790829,1.118383,-0.2604668,-0.08282284,1.129511,0.2444875,-0.09892078,1.141835,NA,NA,NotTracked,NotTracked,
-0.04296875,-0.7353516,0.1376953,-0.09912109,0.8295898,0.390625,-1,2,0,1,-2,-2,0,0,-1,-2,-1,-1,2,7,2,-1,-6,-6,-6,5.6875,5.6875,5.6875,3.083001,5.104015,7.437368,6.624953,5.261302,5.282976,-0.08204976,-0.08747643,0.9255537,0.09852915,-0.09222055,0.9281049,0.001567863,0.3235451,1.172095,-0.06304347,-0.04670177,1.007167,0.1227799,-0.1253293,0.9144849,-0.001392453,-0.03385518,1.169253,0.001062454,-0.2813152,1.140761,-0.1868732,0.1047527,1.17859,-0.06693818,-0.2789621,1.118528,-0.2606568,-0.08293375,1.129923,0.2450794,-0.0978229,1.143148,NA,NA,NotTracked,NotTracked,
-0.02734375,-0.6757813,0.1303711,-0.1376953,0.6557617,0.3183594,-1,-3,-2,1,1,-3,-4,-2,1,0,4,7,8,6,1,6,-18.6875,-18.6875,-18.6875,10.625,10.625,10.625,3.070093,5.056029,7.475303,6.630722,5.208034,5.219599,-0.08513927,-0.09950769,0.9252547,0.1038077,-0.106192,0.924782,0.001521136,0.3235102,1.171946,-0.06631366,-0.1367587,1.002778,0.126664,-0.09798238,0.8935226,-0.00139238,-0.03384774,1.169251,0.001059257,-0.2812988,1.140779,-0.1869924,0.1046892,1.178547,-0.06689732,-0.2789412,1.118617,-0.2606964,-0.08303755,1.130323,0.2461765,-0.09707826,1.144011,NA,NA,NotTracked,NotTracked,
-0.1054688,-0.730957,0.01708984,-0.03173828,0.6098633,0.3579102,2,-1,1,-2,-3,1,-4,0,3,0,1,7,9,7,2,3,-24.9375,-24.9375,-24.9375,75.5625,75.5625,75.5625,3.016742,4.831986,7.585749,6.685625,5.109087,5.133915,-0.08701763,-0.1182225,0.9287388,0.1120207,-0.1271304,0.9230743,0.001463288,0.3235069,1.171813,-0.03016561,-0.1087901,0.9765555,0.1371572,-0.1171407,0.8923242,-0.00140909,-0.03382219,1.16924,0.001032891,-0.2812464,1.140789,-0.1870946,0.1046507,1.178533,-0.06687436,-0.2789013,1.118598,-0.2615802,-0.08310932,1.133698,0.2483757,-0.09604163,1.145981,NA,NA,NotTracked,NotTracked,
0.4243164,-0.7543945,0.5874023,0.009765625,0.7041016,0.3486328,0,0,1,2,1,1,0,-1,1,-4,-4,2,-1,-4,-1,0,-30.875,-30.875,-30.875,79.875,79.875,79.875,2.973637,4.62242,7.662377,6.774862,4.974608,5.044385,-0.09288991,-0.1455556,0.9332544,0.123334,-0.1531016,0.9219633,0.001425457,0.323513,1.171587,-0.07222225,-0.1837537,0.9978124,0.1486542,-0.1453413,0.89255,-0.00161883,-0.03387677,1.169322,0.0009282974,-0.2813611,1.140711,-0.1871978,0.104505,1.178456,-0.06689715,-0.2790006,1.11851,-0.2642487,-0.08400796,1.139533,0.2500264,-0.0963145,1.147429,NA,NA,NotTracked,Unknown,
0.269043,-0.7099609,-0.01611328,0.1328125,0.7138672,0.3549805,-1,1,0,-3,-3,-2,-5,-5,-3,-1,-2,-1,-2,1,-1,-3,-33.4375,-33.4375,-33.4375,79.4375,79.4375,79.4375,2.918738,4.371124,7.72756,6.864013,4.791358,4.953244,-0.1235846,-0.2158802,0.9468092,0.1545317,-0.2246827,0.929805,0.001246239,0.3235426,1.171323,-0.09076168,-0.2647119,0.9855,0.1765191,-0.2143741,0.9012121,-0.001833079,-0.03415557,1.16878,0.0003049229,-0.2825132,1.139252,-0.1873233,0.1044419,1.178399,-0.06739995,-0.2801001,1.116877,-0.2673088,-0.08648285,1.147252,0.2527481,-0.1006792,1.154648,NA,NA,Unknown,Unknown,
0.1430664,-0.8808594,0.2246094,0.324707,0.7832031,0.4038086,-1,-3,-4,-1,1,4,7,3,-2,-1,1,0,1,-2,1,3,-31.5625,-31.5625,-31.5625,41.5625,41.5625,41.5625,2.844728,4.115877,7.810548,6.940051,4.574703,4.873355,-0.1411498,-0.2564035,0.9606164,0.1746561,-0.2611154,0.9342653,0.001209101,0.323566,1.171244,-0.09451804,-0.2752259,1.002308,0.2000705,-0.2923439,0.9117273,-0.002088529,-0.03426258,1.168466,0.0002376906,-0.2833409,1.137413,-0.1874393,0.1043503,1.178364,-0.06762385,-0.2810911,1.1146,-0.2693493,-0.0893584,1.150465,0.2549558,-0.1087717,1.160415,NA,NA,Closed,Unknown,
1.560059,-0.6791992,0.5986328,0.2973633,0.7304688,0.2954102,-4,-1,1,1,1,-4,-9,-5,-2,0,1,-1,0,-2,-3,-3,-73.25,-73.25,-73.25,24.9375,24.9375,24.9375,2.70849,3.848944,7.926577,6.991101,4.330232,4.787783,-0.185287,-0.2909099,0.9692832,0.190492,-0.3020982,0.9504312,0.001105824,0.3235596,1.17123,-0.150981,-0.2740259,0.9443713,0.1898996,-0.2893436,0.918653,-0.002007907,-0.03444017,1.167884,0.0004704061,-0.2838049,1.136146,-0.1876391,0.1041912,1.178357,-0.06764323,-0.2817266,1.113096,-0.2700683,-0.09293293,1.153602,0.2561741,-0.1144284,1.162907,NA,NA,Closed,Unknown,
0.2324219,-1.038086,-0.4082031,0.7319336,0.8256836,0.3164063,1,-1,-2,-2,-1,-3,-4,0,0,0,1,1,-1,-1,0,1,-40.0625,-40.0625,-40.0625,28.125,28.125,28.125,2.535919,3.62505,8.088042,7.127589,3.974429,4.634283,-0.1977927,-0.3342785,0.978743,0.2043154,-0.3401066,0.9669017,0.00106094,0.3235203,1.171152,-0.1599766,-0.3089866,0.9727274,0.2289588,-0.3394528,0.9500385,-0.001868683,-0.03472802,1.167681,0.0007383268,-0.284432,1.135985,-0.1878137,0.1040326,1.178282,-0.06743708,-0.2821957,1.112796,-0.2709827,-0.09891065,1.155024,0.2575155,-0.1228853,1.164797,NA,NA,Unknown,Unknown,
1.413086,-0.875,0.5498047,0.8339844,0.8037109,0.2348633,0,2,0,-2,0,-1,1,3,3,-1,-1,-1,0,1,-1,4,6.625,6.625,6.625,40,40,40,2.369566,3.422791,8.291178,7.252317,3.750052,4.507898,-0.2274242,-0.3893253,1.01322,0.2298775,-0.3958893,1.006637,0.00114359,0.323348,1.170729,-0.1872072,-0.3736084,1.005741,0.2837423,-0.35954,0.99975,-0.002100559,-0.03564068,1.167494,-0.0001094014,-0.2872576,1.136553,-0.1881705,0.1035688,1.178058,-0.0680863,-0.2838436,1.11289,-0.2708278,-0.1163325,1.156108,0.2575026,-0.1315314,1.164952,NA,NA,Unknown,NotTracked,
0.9648438,-0.5849609,-0.1694336,1.082031,0.8422852,0.1772461,-1,-2,-2,-2,-1,0,0,0,-2,-1,-2,-3,-2,-1,0,-1,39.8125,39.8125,39.8125,-24.5,-24.5,-24.5,2.041029,3.212564,8.747279,7.332042,3.536575,4.393159,-0.237908,-0.4158376,1.027531,0.2375097,-0.4125622,1.024223,0.001122457,0.3233229,1.170518,-0.1905996,-0.4138445,1.00025,0.2547069,-0.4200598,1.003969,-0.002615074,-0.03628066,1.167691,-0.0004668002,-0.2886836,1.137205,-0.188319,0.1033415,1.177923,-0.06834259,-0.2848462,1.113267,-0.270775,-0.1233122,1.15631,0.256364,-0.1320266,1.164955,NA,NA,Unknown,NotTracked,
1.017578,-0.4790039,-0.09179688,0.9707031,0.5258789,0.175293,-2,-1,-4,-4,-3,-3,-3,-1,-2,-1,-2,-2,-2,0,-2,-2,17.3125,17.3125,17.3125,-29.375,-29.375,-29.375,1.766491,3.149831,9.076094,7.387153,3.377387,4.273521,-0.2488892,-0.4249218,1.044732,0.2462656,-0.4215858,1.042701,0.001115571,0.3232507,1.170376,-0.2049579,-0.4242046,1.023667,0.2920143,-0.4029465,1.0446,-0.002657319,-0.036685,1.167733,-0.0006654996,-0.2896154,1.137754,-0.1884037,0.1031062,1.177805,-0.06855536,-0.2855919,1.113588,-0.2704043,-0.1290452,1.157082,0.2561142,-0.1324529,1.165362,NA,NA,NotTracked,NotTracked,
1.003906,-0.4746094,-0.1152344,0.9077148,0.4682617,0.1171875,3,1,0,1,1,0,1,3,-1,0,-1,-1,-2,0,-1,0,17.4375,17.4375,17.4375,9.8125,9.8125,9.8125,1.648268,3.133878,9.217406,7.519368,3.30245,4.109842,-0.25759,-0.434378,1.058624,0.2484003,-0.4186173,1.064108,0.0010978,0.3231619,1.169901,-0.2119831,-0.4383097,1.037208,0.2917036,-0.391102,1.0436,-0.002735195,-0.03705405,1.167722,-0.0009125238,-0.2904149,1.13809,-0.1884554,0.1030267,1.177732,-0.06889491,-0.2863959,1.113914,-0.2700702,-0.1327057,1.157757,0.2557912,-0.1328233,1.166161,NA,NA,NotTracked,NotTracked,
0.9619141,-0.4272461,-0.2080078,0.859375,0.7788086,-0.06152344,-2,-2,-1,1,-1,-1,-2,-3,-1,-3,-2,-1,-1,-3,0,-2,22.875,22.875,22.875,43.3125,43.3125,43.3125,1.425289,3.123764,9.503168,7.699392,3.254109,3.94627,-0.2691475,-0.4398887,1.080056,0.2530386,-0.424456,1.085647,0.001008592,0.3228935,1.16853,-0.2248352,-0.4494123,1.0574,0.2957181,-0.4077423,1.051667,-0.002869586,-0.03759302,1.167667,-0.001265405,-0.2913171,1.13861,-0.188448,0.1030692,1.177544,-0.0693498,-0.2871994,1.114293,-0.2685587,-0.1394473,1.159748,0.2541726,-0.1335977,1.167854,NA,NA,NotTracked,NotTracked,
0.9462891,-0.4091797,-0.1933594,0.9262695,0.5883789,-0.08544922,1,3,0,0,-2,2,-1,0,2,0,1,-3,-5,1,2,2,25.8125,25.8125,25.8125,-56.25,-56.25,-56.25,1.370961,3.119088,9.594927,7.765229,3.190304,3.836671,-0.2699509,-0.4504405,1.087976,0.2562698,-0.4284742,1.093677,0.000958652,0.3227804,1.167928,-0.2225875,-0.4185293,1.069625,0.2904309,-0.4355326,1.078154,-0.002938373,-0.03773719,1.167659,-0.001526845,-0.2915925,1.138901,-0.1884857,0.102965,1.177372,-0.06967874,-0.2874855,1.114572,-0.2677911,-0.1413067,1.160739,0.2525777,-0.1341537,1.168395,NA,NA,Unknown,NotTracked,
0.8994141,-0.3867188,-0.1918945,0.9458008,0.3779297,-0.1279297,-2,-2,-3,-1,-2,-1,0,-2,-3,-6,-5,-3,0,1,-2,-1,37,37,37,-45.5625,-45.5625,-45.5625,1.371687,3.118544,9.637648,7.8304,3.145193,3.697336,-0.2727034,-0.4487194,1.09369,0.2578553,-0.432745,1.096947,0.000784709,0.322641,1.167224,-0.2264017,-0.4599508,1.072214,0.2965896,-0.4125299,1.087455,-0.002987842,-0.03799916,1.167575,-0.001706079,-0.2920477,1.139014,-0.1885116,0.1028349,1.177159,-0.06984665,-0.2878062,1.11465,-0.2671815,-0.143575,1.162045,0.2518328,-0.1343009,1.168809,NA,NA,Unknown,NotTracked,
0.8740234,-0.3662109,-0.1611328,0.9624023,0.3574219,-0.09423828,-1,0,1,1,-1,-1,-1,-1,0,-1,-3,-2,-1,-5,1,2,47.25,47.25,47.25,-7.875,-7.875,-7.875,1.394387,3.113817,9.67103,7.936378,3.147398,3.560559,-0.2722338,-0.4505842,1.097809,0.2600255,-0.4341877,1.100725,0.0007079433,0.3225183,1.166471,-0.2240585,-0.4494431,1.068912,0.3031532,-0.4158921,1.098444,-0.003015142,-0.0381959,1.167503,-0.001787829,-0.2923341,1.139124,-0.1885601,0.1026696,1.177002,-0.07001099,-0.2881963,1.114793,-0.2666632,-0.1451433,1.163332,0.2508793,-0.1345586,1.169161,NA,NA,Unknown,NotTracked,
0.8740234,-0.3662109,-0.1611328,0.9624023,0.3574219,-0.09423828,-1,0,1,1,-1,-1,-1,-1,-2,-1,-1,-1,-2,-14,-3,-4,47.25,47.25,47.25,-7.875,-7.875,-7.875,1.394387,3.113817,9.67103,7.936378,3.147398,3.560559,-0.273044,-0.4498624,1.101795,0.262246,-0.4385857,1.103154,0.0007217424,0.3222682,1.165758,-0.2240216,-0.4369118,1.08465,0.3023013,-0.4195445,1.092249,-0.00309083,-0.03843997,1.167444,-0.001959238,-0.2927969,1.139295,-0.1885259,0.1027277,1.176849,-0.07016891,-0.2885133,1.114914,-0.2660555,-0.1463269,1.164448,0.250423,-0.1346726,1.169229,NA,NA,Unknown,NotTracked,
0.8803711,-0.3574219,-0.1850586,0.9282227,0.3457031,-0.07128906,-3,-3,-2,-3,0,-1,2,1,-2,-3,-4,-1,-1,-1,-1,-2,43.4375,43.4375,43.4375,37.9375,37.9375,37.9375,1.435482,3.109221,9.682791,8.030302,3.167554,3.488527,-0.2726595,-0.4473614,1.102793,0.2669254,-0.4399732,1.106723,0.0006305887,0.3221031,1.165302,-0.2249638,-0.4603006,1.078,0.3088488,-0.4366213,1.099091,-0.003138087,-0.03867901,1.167359,-0.002017887,-0.2931576,1.139352,-0.1885759,0.1026368,1.176699,-0.07024621,-0.2887922,1.114916,-0.2655107,-0.1474352,1.16529,0.2498383,-0.1348363,1.169261,NA,NA,Unknown,NotTracked,
0.9150391,-0.3295898,-0.3188477,0.9023438,0.4194336,-0.07177734,0,0,0,-1,0,1,-1,-1,-1,-4,0,0,-1,-2,-1,-1,4.625,4.625,4.625,68.6875,68.6875,68.6875,1.472838,3.096579,9.664873,8.127339,3.187277,3.456114,-0.2702649,-0.451028,1.102461,0.2695128,-0.4414999,1.10778,0.0004970235,0.3220086,1.164651,-0.223572,-0.4326157,1.081182,0.3121754,-0.4396372,1.0972,-0.003205444,-0.03893648,1.167245,-0.002171633,-0.2936396,1.139379,-0.1886367,0.1025476,1.176561,-0.07040347,-0.2893175,1.114871,-0.2648135,-0.1483077,1.165939,0.2494801,-0.1349721,1.168993,NA,NA,Unknown,NotTracked,
0.9130859,-0.3022461,-0.2607422,0.9140625,0.4692383,-0.1088867,0,0,-3,0,-1,1,1,0,-3,-2,-2,-2,-2,-2,-2,-2,-18.3125,-18.3125,-18.3125,42.0625,42.0625,42.0625,1.509423,3.084286,9.606309,8.193511,3.196793,3.44338,-0.2693619,-0.4501331,1.103877,0.2717387,-0.4449349,1.110025,0.0006004155,0.3219438,1.164043,-0.2233506,-0.458876,1.079722,0.3121349,-0.4355,1.101792,-0.00325247,-0.03912529,1.167184,-0.002268883,-0.2939018,1.139428,-0.1885874,0.1026336,1.176393,-0.0705322,-0.2896504,1.114937,-0.2641001,-0.1488746,1.166278,0.2491491,-0.1353535,1.168726,NA,NA,Unknown,NotTracked,
0.9135742,-0.3266602,-0.2553711,0.925293,0.3549805,-0.1743164,0,-1,-1,0,-1,1,1,1,1,0,0,1,-1,1,-1,-2,-20.625,-20.625,-20.625,15.875,15.875,15.875,1.53817,3.088021,9.549685,8.213041,3.187155,3.444161,-0.2678915,-0.450579,1.101914,0.2737197,-0.448925,1.11096,0.000521097,0.3217227,1.16353,-0.2231024,-0.4452549,1.078494,0.3152962,-0.4334728,1.101582,-0.003299865,-0.03937933,1.167092,-0.002339873,-0.294298,1.139459,-0.1886105,0.1025161,1.176184,-0.07061689,-0.2900072,1.114972,-0.2635014,-0.149106,1.166653,0.2489415,-0.1358902,1.168318,NA,NA,Unknown,NotTracked,
0.9013672,-0.324707,-0.2158203,0.921875,0.3632813,-0.2163086,-1,-1,-1,0,-1,1,2,2,-1,-2,-3,-2,-1,-1,1,-1,-17.375,-17.375,-17.375,15.4375,15.4375,15.4375,1.569417,3.104986,9.494963,8.223346,3.169853,3.468752,-0.2666448,-0.4517654,1.101305,0.274627,-0.4510536,1.1124,0.0003593751,0.3216397,1.163017,-0.2209696,-0.4703022,1.069857,0.3182441,-0.4438288,1.106045,-0.003577638,-0.03977,1.166924,-0.002371348,-0.2947623,1.139473,-0.1886519,0.10248,1.175953,-0.07064532,-0.2904542,1.115009,-0.262338,-0.1496896,1.167382,0.2484609,-0.1363414,1.167681,NA,NA,Unknown,NotTracked,
0.8964844,-0.3242188,-0.1967773,0.9160156,0.3486328,-0.1826172,0,0,-2,-1,-1,-2,-3,-2,-2,0,-1,0,-1,-1,-1,-1,-19.5625,-19.5625,-19.5625,2.875,2.875,2.875,1.589601,3.122101,9.449925,8.208336,3.168116,3.492351,-0.2666486,-0.4501851,1.100471,0.2741173,-0.4510509,1.11098,0.0002048184,0.3216693,1.162815,-0.2208756,-0.4646487,1.071323,0.3144858,-0.4420669,1.100703,-0.003589405,-0.03990338,1.166849,-0.002386901,-0.295031,1.139442,-0.1886897,0.1024627,1.175858,-0.0706483,-0.29067,1.115011,-0.2621574,-0.1497299,1.167515,0.2481941,-0.1363831,1.16734,NA,NA,NotTracked,NotTracked,
0.8833008,-0.3115234,-0.1884766,0.9042969,0.3520508,-0.1494141,1,0,1,1,0,0,0,2,-1,-2,-2,-1,-1,-1,-2,-2,-10.8125,-10.8125,-10.8125,6.5,6.5,6.5,1.619632,3.133328,9.393311,8.189849,3.16996,3.518248,-0.267492,-0.4518066,1.097947,0.2716254,-0.4516419,1.108997,0.000133709,0.3215883,1.162598,-0.2214495,-0.4457965,1.080538,0.3135747,-0.4439733,1.100421,-0.003647424,-0.04007308,1.166795,-0.002518785,-0.2953336,1.139475,-0.1887516,0.102392,1.175753,-0.0707341,-0.2908607,1.115016,-0.2619885,-0.1499488,1.167581,0.2480924,-0.1366404,1.167167,NA,NA,NotTracked,NotTracked,
0.8989258,-0.3076172,-0.1928711,0.8969727,0.3588867,-0.15625,-1,-2,-1,0,-1,-1,-3,-1,-2,-1,-2,0,-2,0,0,-1,-9.125,-9.125,-9.125,13.3125,13.3125,13.3125,1.631347,3.131222,9.370277,8.172969,3.171323,3.550689,-0.2682899,-0.4523377,1.096795,0.2716021,-0.451064,1.107438,6.215063E-05,0.3215998,1.162465,-0.2218056,-0.4693868,1.065857,0.3134432,-0.439706,1.100581,-0.003693183,-0.04017384,1.166751,-0.002579072,-0.2954722,1.139489,-0.1888593,0.1022145,1.175621,-0.07080235,-0.2910238,1.115013,-0.2618834,-0.1501357,1.167634,0.2479025,-0.1366564,1.167066,NA,NA,Unknown,NotTracked,
0.9111328,-0.3222656,-0.1953125,0.9057617,0.3525391,-0.171875,-1,1,-2,0,-1,-1,2,0,0,-2,-2,0,0,-2,-1,0,-14.3125,-14.3125,-14.3125,15.375,15.375,15.375,1.647961,3.128885,9.336446,8.167081,3.171748,3.57601,-0.268209,-0.4530642,1.093859,0.2703923,-0.4533236,1.104415,-4.500774E-05,0.3216287,1.162304,-0.2215656,-0.4544008,1.072676,0.3140336,-0.4465185,1.099114,-0.003806484,-0.04046131,1.166658,-0.002801616,-0.2959247,1.139497,-0.1889177,0.1021833,1.175509,-0.07097087,-0.2913691,1.115087,-0.2615945,-0.1504686,1.167607,0.2476002,-0.1369703,1.166579,NA,NA,Unknown,NotTracked,
0.8964844,-0.3374023,-0.1943359,0.8945313,0.3710938,-0.1889648,0,-1,0,-2,-1,0,0,1,-2,-1,1,-3,-2,-2,-3,-1,-13.625,-13.625,-13.625,6.125,6.125,6.125,1.664449,3.129883,9.301675,8.167308,3.175236,3.587445,-0.2673535,-0.453538,1.092799,0.2708904,-0.4534323,1.103624,-0.0001395946,0.321611,1.162223,-0.2205466,-0.4545251,1.068944,0.3131092,-0.4390012,1.097675,-0.003852182,-0.04059389,1.166641,-0.002868108,-0.2961428,1.139538,-0.1889589,0.1021503,1.175467,-0.07102234,-0.2915641,1.115183,-0.2615063,-0.1505115,1.167643,0.2473834,-0.1371805,1.166263,NA,NA,Unknown,NotTracked,
0.8945313,-0.3291016,-0.1884766,0.9072266,0.3535156,-0.1860352,0,0,0,0,0,-1,1,-2,0,-3,-1,-1,-1,-2,0,-1,-8.875,-8.875,-8.875,-6.125,-6.125,-6.125,1.680385,3.129036,9.272568,8.177443,3.182921,3.573056,-0.2665695,-0.4525956,1.09182,0.2721233,-0.4519288,1.102078,-0.0002152432,0.3216147,1.162079,-0.2201369,-0.4524882,1.071295,0.3132299,-0.4468602,1.086591,-0.003897314,-0.04069035,1.166624,-0.002950049,-0.2962802,1.139566,-0.1889798,0.1021933,1.175403,-0.07108945,-0.2916757,1.115201,-0.2613774,-0.1505814,1.167684,0.2471022,-0.1372524,1.165802,NA,NA,NotTracked,NotTracked,
0.8959961,-0.3295898,-0.1904297,0.902832,0.3417969,-0.1811523,0,-1,-2,0,-1,-1,1,-2,-2,-1,0,0,-2,-1,-1,-1,-6.1875,-6.1875,-6.1875,-7.1875,-7.1875,-7.1875,1.689507,3.126636,9.254462,8.184449,3.189516,3.556059,-0.2665112,-0.4534989,1.091686,0.2730071,-0.4522757,1.102501,-0.0002472525,0.3216045,1.162052,-0.2194278,-0.4522857,1.068704,0.31553,-0.443997,1.096498,-0.003906813,-0.04073757,1.166602,-0.002975076,-0.2963355,1.139576,-0.1890456,0.1020649,1.175345,-0.07110173,-0.2917207,1.115212,-0.2613539,-0.1505805,1.167701,0.2467112,-0.1373862,1.165255,NA,NA,NotTracked,NotTracked,
0.8979492,-0.3334961,-0.1865234,0.9213867,0.3320313,-0.1679688,-2,-1,-1,-1,2,-2,-5,-1,-1,1,-1,-1,-3,0,-3,0,-1.75,-1.75,-1.75,-7.4375,-7.4375,-7.4375,1.692931,3.120434,9.246892,8.188378,3.190566,3.542564,-0.2658726,-0.4546986,1.092757,0.2722266,-0.4545493,1.101209,-0.0005787024,0.3215714,1.162055,-0.220038,-0.4506269,1.072632,0.3153073,-0.4500141,1.091091,-0.00397179,-0.04083169,1.166616,-0.003059057,-0.2964556,1.139663,-0.1891799,0.1019536,1.175318,-0.07117213,-0.2918459,1.115242,-0.2612385,-0.150635,1.167711,0.246319,-0.1374474,1.164867,NA,NA,NotTracked,NotTracked,
0.9052734,-0.3310547,-0.1953125,0.909668,0.3569336,-0.1743164,-3,-1,-1,0,-2,-2,-1,-2,-1,-3,-1,0,-2,-2,0,-1,3.9375,3.9375,3.9375,-3.125,-3.125,-3.125,1.691296,3.115746,9.251152,8.190185,3.18518,3.53561,-0.2654024,-0.4544899,1.093379,0.271714,-0.454268,1.101976,-0.0006957314,0.3215675,1.162082,-0.219744,-0.4548941,1.070825,0.3135785,-0.4457874,1.095049,-0.003990487,-0.04085964,1.16662,-0.003097714,-0.296492,1.139719,-0.1892473,0.1018952,1.175318,-0.07120894,-0.291876,1.115274,-0.261216,-0.1506626,1.167703,0.2461901,-0.1373976,1.164823,NA,NA,NotTracked,NotTracked,
0.90625,-0.328125,-0.190918,0.9042969,0.3671875,-0.1796875,-1,0,-1,-1,-2,0,0,-3,-3,0,-2,-2,0,0,-1,-2,9.75,9.75,9.75,-8.3125,-8.3125,-8.3125,1.689741,3.115346,9.263389,8.189672,3.18038,3.528437,-0.2664464,-0.45502,1.093559,0.2730663,-0.4547362,1.102436,-0.0007358071,0.3215493,1.162052,-0.2202172,-0.455226,1.07153,0.3139222,-0.4458422,1.094873,-0.004046438,-0.04091144,1.16664,-0.003144077,-0.296523,1.139759,-0.1892575,0.101935,1.175332,-0.07126281,-0.2919015,1.115312,-0.2611928,-0.1506628,1.167697,0.2460345,-0.1374291,1.164698,NA,NA,NotTracked,NotTracked,
0.902832,-0.324707,-0.1704102,0.9086914,0.3676758,-0.1831055,0,-3,-3,0,-1,-1,-1,-1,-2,-2,-2,1,1,-1,-2,-1,12.8125,12.8125,12.8125,-11.1875,-11.1875,-11.1875,1.689298,3.115648,9.27828,8.188776,3.178194,3.516939,-0.266304,-0.4476673,1.09657,0.27353,-0.4521936,1.103359,-0.0007934993,0.3214961,1.162075,-0.2198852,-0.4529197,1.073412,0.3171661,-0.441514,1.096487,-0.004057297,-0.04091921,1.166648,-0.003166797,-0.2965116,1.139787,-0.1893055,0.1018915,1.175332,-0.07128105,-0.2919164,1.11532,-0.261182,-0.1506805,1.167756,0.2458692,-0.1374468,1.164659,NA,NA,NotTracked,NotTracked,
0.9003906,-0.3232422,-0.1694336,0.9047852,0.3666992,-0.1708984,0,0,-1,0,-1,-3,-2,-2,-3,0,-1,-2,0,-1,-2,-3,9.8125,9.8125,9.8125,-13.8125,-13.8125,-13.8125,1.692594,3.113825,9.288239,8.189048,3.177972,3.500647,-0.2682076,-0.4539068,1.095403,0.2720417,-0.4525884,1.104352,-0.001039627,0.3214093,1.162068,-0.2213494,-0.4532979,1.074206,0.3130296,-0.4378133,1.093688,-0.00412495,-0.04096625,1.166689,-0.003256804,-0.2964979,1.139913,-0.1893377,0.1019486,1.175338,-0.07136545,-0.2919551,1.115471,-0.2611716,-0.1506726,1.167819,0.2456053,-0.1374897,1.164701,NA,NA,Unknown,NotTracked,
0.9082031,-0.3286133,-0.1757813,0.8999023,0.3613281,-0.1611328,-1,-1,1,0,1,-1,-3,-2,1,-1,-1,-2,0,0,-1,0,5.125,5.125,5.125,-11.25,-11.25,-11.25,1.688585,3.108515,9.300018,8.194134,3.181328,3.471918,-0.2689296,-0.4561943,1.09572,0.2722844,-0.4558565,1.105235,-0.001109417,0.3213668,1.162051,-0.2215413,-0.454526,1.074239,0.3149683,-0.4399487,1.099246,-0.004165034,-0.04103936,1.16674,-0.003313084,-0.2965497,1.140042,-0.1894222,0.1018715,1.17536,-0.07142248,-0.2920149,1.115571,-0.2611918,-0.1507376,1.167886,0.2455169,-0.1374923,1.164713,NA,NA,Unknown,NotTracked,
0.9150391,-0.328125,-0.1738281,0.8955078,0.3662109,-0.1635742,-1,1,0,0,0,-1,-1,-1,0,0,0,0,-1,-1,-1,0,-1.5,-1.5,-1.5,-9.8125,-9.8125,-9.8125,1.684228,3.103519,9.305574,8.196568,3.181144,3.463129,-0.2687332,-0.4555044,1.096629,0.2727276,-0.452501,1.105934,-0.001161791,0.321363,1.162038,-0.2216602,-0.4556735,1.075673,0.3149862,-0.4412069,1.09716,-0.004199033,-0.04104848,1.166769,-0.003394779,-0.296513,1.140184,-0.1894493,0.1019108,1.175374,-0.0715156,-0.2919951,1.115715,-0.2611983,-0.1507646,1.167936,0.2454239,-0.1374915,1.164782,NA,NA,Unknown,NotTracked,
0.9130859,-0.3393555,-0.1777344,0.9057617,0.3730469,-0.1616211,0,-1,-1,-2,0,-3,0,0,0,-1,-2,-2,-1,0,-2,-1,-3.6875,-3.6875,-3.6875,-5.125,-5.125,-5.125,1.681601,3.101898,9.304554,8.200742,3.180091,3.450394,-0.2693737,-0.4562906,1.098085,0.2731943,-0.4528125,1.107016,-0.001231761,0.3213338,1.162023,-0.2218052,-0.4552796,1.0768,0.3145391,-0.4434564,1.096055,-0.004225208,-0.0410486,1.16681,-0.003449117,-0.2964371,1.140388,-0.189462,0.1020112,1.175417,-0.07157423,-0.2919627,1.115875,-0.2612369,-0.1506883,1.168073,0.2453119,-0.137491,1.164852,NA,NA,Unknown,NotTracked,
0.9047852,-0.3354492,-0.1791992,0.9125977,0.3579102,-0.1665039,-1,-3,-3,-1,-1,0,0,-1,-1,-2,-2,-1,-1,0,-1,-2,-2.25,-2.25,-2.25,2.0625,2.0625,2.0625,1.683007,3.103004,9.300209,8.204045,3.175304,3.445872,-0.2696981,-0.4564483,1.097878,0.2736177,-0.4550489,1.106151,-0.001319243,0.3212574,1.161955,-0.2217823,-0.4552785,1.075888,0.3147863,-0.4442253,1.096411,-0.00431221,-0.04113738,1.166832,-0.0035516,-0.2965379,1.140451,-0.1895243,0.101931,1.175412,-0.07167602,-0.2920474,1.11593,-0.2611815,-0.1506933,1.168187,0.2452844,-0.137701,1.16487,NA,NA,Unknown,NotTracked,
0.9013672,-0.328125,-0.1850586,0.9140625,0.362793,-0.1679688,-3,-1,-1,-3,-2,-1,0,0,0,0,-1,-2,-1,-1,-2,-1,-0.3125,-0.3125,-0.3125,4.25,4.25,4.25,1.684968,3.106681,9.297421,8.204334,3.173586,3.447959,-0.269312,-0.4565162,1.098866,0.2731705,-0.4560525,1.106192,-0.001454671,0.3212131,1.161968,-0.2225576,-0.4621706,1.076164,0.3150238,-0.4478665,1.097583,-0.004453837,-0.04120877,1.166901,-0.003747026,-0.2965683,1.14063,-0.1895709,0.1018253,1.175407,-0.0719078,-0.292161,1.116089,-0.2612016,-0.1506829,1.168329,0.2452547,-0.1381005,1.164975,NA,NA,Unknown,NotTracked,
0.9067383,-0.3198242,-0.1762695,0.9057617,0.3540039,-0.1665039,0,0,-2,-1,-1,0,1,1,0,-1,-1,-2,0,0,0,-1,-0.6875,-0.6875,-0.6875,10.5625,10.5625,10.5625,1.688744,3.110397,9.292752,8.201982,3.168077,3.466629,-0.2723625,-0.4513129,1.099662,0.2731116,-0.4552119,1.10583,-0.001549533,0.321173,1.161998,-0.2267555,-0.4538814,1.079788,0.3137808,-0.4414238,1.09844,-0.004477867,-0.04120656,1.16694,-0.003808522,-0.2964783,1.140767,-0.1895778,0.1018425,1.175415,-0.07193878,-0.2921593,1.116198,-0.2612456,-0.150608,1.168525,0.2451972,-0.1380636,1.165056,NA,NA,Unknown,NotTracked,
0.9077148,-0.3168945,-0.1762695,0.9111328,0.3569336,-0.175293,-1,0,-1,1,-2,0,-1,1,-1,0,0,-1,-2,-2,-3,-2,-3.75,-3.75,-3.75,11.375,11.375,11.375,1.694836,3.112632,9.28203,8.199459,3.165897,3.483513,-0.2717046,-0.4503973,1.098788,0.2730595,-0.4551407,1.106089,-0.001615988,0.3211288,1.162023,-0.2290062,-0.4514607,1.08269,0.3167251,-0.4481499,1.094888,-0.004532322,-0.04121329,1.166972,-0.003893397,-0.2964307,1.140843,-0.1895984,0.101815,1.175425,-0.07200702,-0.2921812,1.116265,-0.2612506,-0.1506146,1.168592,0.24516,-0.1380367,1.165145,NA,NA,Unknown,NotTracked,
0.9067383,-0.3129883,-0.1743164,0.9008789,0.3588867,-0.1782227,0,1,-1,-1,-1,-3,0,-1,0,0,-1,-1,-1,-1,-2,-1,-7.875,-7.875,-7.875,8.1875,8.1875,8.1875,1.698628,3.112676,9.269886,8.200503,3.166114,3.493885,-0.2704616,-0.4541932,1.097369,0.2726954,-0.455462,1.106435,-0.001708592,0.3210976,1.162059,-0.225006,-0.4527182,1.078842,0.3163784,-0.4464776,1.10115,-0.0045442,-0.0411992,1.167011,-0.00384242,-0.2962575,1.141,-0.1896499,0.1016809,1.175433,-0.07199597,-0.2921865,1.116385,-0.2612904,-0.1506464,1.168772,0.2450189,-0.1379445,1.165231,NA,NA,Unknown,NotTracked,
0.8979492,-0.3173828,-0.1704102,0.9033203,0.3657227,-0.1875,-1,-2,0,-2,1,-2,-1,0,-1,-2,0,0,-1,-1,-1,-2,-9.875,-9.875,-9.875,2.0625,2.0625,2.0625,1.700061,3.111838,9.256778,8.202374,3.16791,3.497133,-0.2702696,-0.4556768,1.09764,0.2719766,-0.4529594,1.107442,-0.001757274,0.3210462,1.162127,-0.2245563,-0.4519218,1.07962,0.3167993,-0.4458434,1.098124,-0.004579675,-0.04118097,1.167078,-0.003921795,-0.2961142,1.141173,-0.1896694,0.1016574,1.175457,-0.07205965,-0.2921724,1.11654,-0.2612817,-0.1507696,1.168858,0.2449587,-0.1379045,1.165363,NA,NA,Unknown,NotTracked,
0.9150391,-0.3120117,-0.1821289,0.9052734,0.3774414,-0.1821289,-2,-2,-1,0,-1,-1,-3,-2,-2,-2,0,-1,0,-1,-1,-1,-12.625,-12.625,-12.625,-6.625,-6.625,-6.625,1.698367,3.110135,9.24427,8.203487,3.170494,3.49064,-0.2694496,-0.4553906,1.096493,0.2724296,-0.4530986,1.106949,-0.001795804,0.3210557,1.162157,-0.2244907,-0.4525311,1.079254,0.3163016,-0.4323491,1.085769,-0.004602954,-0.0411738,1.167104,-0.003959023,-0.2960732,1.141235,-0.1896839,0.1016354,1.175465,-0.07210598,-0.2921865,1.116603,-0.2612693,-0.150778,1.168904,0.2449288,-0.1380203,1.165439,NA,NA,Unknown,NotTracked,
0.8989258,-0.328125,-0.1831055,0.902832,0.3662109,-0.1713867,0,-3,-2,-2,-2,-2,-2,-1,0,0,-2,-1,-1,-3,-1,0,-7.8125,-7.8125,-7.8125,-11.3125,-11.3125,-11.3125,1.695987,3.108081,9.234952,8.203282,3.171708,3.477814,-0.2691798,-0.4559735,1.097965,0.2682594,-0.4551728,1.107022,-0.001838387,0.3210613,1.162209,-0.2245106,-0.4518568,1.081433,0.3152058,-0.4446027,1.097525,-0.004679981,-0.04111048,1.167182,-0.004156777,-0.2957939,1.14143,-0.1897083,0.1015954,1.175476,-0.07229821,-0.2920673,1.11679,-0.2612142,-0.1507684,1.168962,0.2452061,-0.1385638,1.165706,NA,NA,Unknown,NotTracked,
0.9077148,-0.3261719,-0.1762695,0.9042969,0.34375,-0.175293,-2,-1,-1,-1,-1,1,1,1,0,-1,1,-1,0,0,0,1,2.125,2.125,2.125,-7.3125,-7.3125,-7.3125,1.701169,3.106794,9.229552,8.207608,3.17211,3.46298,-0.2682725,-0.4560229,1.09865,0.2690424,-0.4558167,1.107409,-0.001835356,0.3210594,1.162226,-0.2223704,-0.4539344,1.081375,0.3275625,-0.4446016,1.117667,-0.004785041,-0.04100114,1.167329,-0.00446919,-0.2953365,1.141788,-0.1896978,0.1016505,1.175504,-0.07255079,-0.2918593,1.117242,-0.2611724,-0.1507755,1.16908,0.2450906,-0.1384073,1.165799,NA,NA,Unknown,NotTracked,
0.9057617,-0.3242188,-0.1821289,0.9057617,0.3544922,-0.1679688,-1,-1,-1,0,-2,0,0,-1,-2,-1,-1,0,-2,-1,-2,-2,8.375,8.375,8.375,0,0,0,1.705345,3.104543,9.233156,8.214108,3.171762,3.453344,-0.2680686,-0.455676,1.099833,0.2678381,-0.4559232,1.107148,-0.001829215,0.3210199,1.162234,-0.2233734,-0.4540995,1.079556,0.3185839,-0.4618461,1.102462,-0.004936635,-0.04085982,1.167516,-0.005068273,-0.2947316,1.142232,-0.1896825,0.1017256,1.175599,-0.07304411,-0.2916106,1.117699,-0.2610382,-0.1508464,1.169314,0.2449224,-0.1382513,1.165928,NA,NA,Unknown,NotTracked,
0.90625,-0.3208008,-0.1826172,0.9057617,0.3564453,-0.1616211,-1,-1,-2,-2,0,-3,-1,0,0,1,-2,-1,0,-1,0,0,10.75,10.75,10.75,7.6875,7.6875,7.6875,1.705966,3.102678,9.24471,8.220376,3.169027,3.453396,-0.2677888,-0.4554729,1.100901,0.2695083,-0.4562215,1.109344,-0.001820308,0.3210074,1.162241,-0.2232335,-0.4533523,1.080976,0.31088,-0.4558646,1.094091,-0.005017709,-0.0407909,1.167653,-0.005276202,-0.2945221,1.142513,-0.1896837,0.1016992,1.175634,-0.07321765,-0.2915601,1.117982,-0.2609253,-0.1508505,1.169518,0.2448983,-0.1381378,1.166088,NA,NA,Unknown,NotTracked,
0.9023438,-0.3237305,-0.1801758,0.9145508,0.3579102,-0.1762695,-1,0,1,0,1,0,0,0,-2,-2,-1,-2,-2,0,-1,0,8.875,8.875,8.875,11,11,11,1.701581,3.10002,9.26726,8.225372,3.163584,3.467401,-0.2679115,-0.4569122,1.102293,0.2701315,-0.456141,1.108185,-0.00184468,0.320984,1.162287,-0.2226987,-0.4530484,1.083453,0.318391,-0.4513708,1.101426,-0.00511598,-0.04069583,1.167821,-0.005590417,-0.2942574,1.142824,-0.1897024,0.1016666,1.175731,-0.07349804,-0.2913792,1.1183,-0.2608203,-0.1505325,1.169894,0.2451997,-0.1386354,1.166358,NA,NA,Unknown,NotTracked,
0.90625,-0.3261719,-0.1655273,0.9033203,0.3535156,-0.1870117,-1,-1,0,-1,-3,-1,2,-2,-1,-2,-2,-2,-1,-1,-1,0,5.4375,5.4375,5.4375,7.0625,7.0625,7.0625,1.698905,3.097816,9.278214,8.226323,3.161485,3.476794,-0.2676688,-0.4577785,1.102922,0.2686078,-0.4564455,1.108832,-0.001837976,0.3209717,1.162289,-0.2206258,-0.4549928,1.085716,0.3181067,-0.4620408,1.100722,-0.005191242,-0.04061739,1.16806,-0.005780864,-0.2939785,1.143308,-0.1896746,0.1015979,1.175842,-0.07365881,-0.2912959,1.118801,-0.2603708,-0.1506319,1.170707,0.2451616,-0.1384235,1.166453,NA,NA,Unknown,NotTracked,
0.9008789,-0.3183594,-0.1772461,0.9091797,0.3520508,-0.1801758,-1,-2,1,-1,0,-2,-2,-1,-1,0,0,0,-2,-1,0,-1,0.9375,0.9375,0.9375,2.5625,2.5625,2.5625,1.696484,3.095761,9.283683,8.224653,3.160522,3.482916,-0.2673918,-0.4574264,1.103432,0.2691713,-0.4560901,1.108878,-0.001842457,0.3209091,1.162284,-0.2218365,-0.4534402,1.082924,0.3187644,-0.4530593,1.102746,-0.00522031,-0.04058785,1.168151,-0.005848592,-0.2938604,1.143524,-0.1896197,0.1016639,1.175883,-0.07371857,-0.2912444,1.11908,-0.260227,-0.1506694,1.171141,0.2450851,-0.1382668,1.166552,NA,NA,Unknown,NotTracked,
0.9116211,-0.3227539,-0.1694336,0.9189453,0.3515625,-0.1791992,-2,0,0,0,0,-1,-1,0,0,0,-1,-1,-1,-1,-1,-1,-2.5,-2.5,-2.5,0.75,0.75,0.75,1.695736,3.096213,9.283214,8.225127,3.159023,3.484053,-0.2663166,-0.4541985,1.10538,0.275321,-0.4332675,1.114317,-0.00180408,0.320874,1.162296,-0.2207299,-0.4563826,1.086088,0.316012,-0.4196961,1.104375,-0.005239656,-0.04057929,1.168288,-0.005947731,-0.2938275,1.143805,-0.1896107,0.1016279,1.175961,-0.07381875,-0.2912596,1.119442,-0.2601753,-0.1507307,1.171485,0.2451461,-0.1383535,1.166684,NA,NA,NotTracked,NotTracked,
0.9072266,-0.3237305,-0.175293,0.9042969,0.3452148,-0.1762695,-1,0,0,-1,0,-2,-1,0,-2,-2,0,0,0,1,0,1,-2.125,-2.125,-2.125,0.125,0.125,0.125,1.695634,3.096696,9.28212,8.226714,3.157093,3.482556,-0.2671686,-0.4551832,1.106286,0.2705696,-0.4561155,1.110144,-0.001753952,0.3208427,1.162375,-0.2217628,-0.4548632,1.084872,0.3186902,-0.4438617,1.10676,-0.005243132,-0.04051474,1.168475,-0.00602659,-0.2936582,1.144223,-0.1896002,0.101582,1.176075,-0.07388215,-0.2911499,1.120011,-0.2600453,-0.1506608,1.171954,0.2452048,-0.1382555,1.166853,NA,NA,NotTracked,NotTracked,
