ALX,ALY,ALZ,ARX,ARY,ARZ,EMG0L,EMG1L,EMG2L,EMG3L,EMG4L,EMG5L,EMG6L,EMG7L,EMG0R,EMG1R,EMG2R,EMG3R,EMG4R,EMG5R,EMG6R,EMG7R,GLX,GLY,GLZ,GRX,GRY,GRZ,ORL,OPL,OYL,ORR,OPR,OYR,LHNX,LHNY,LHNZ,RHNX,RHNY,RHNZ,HX,HY,HZ,LTX,LTY,LTZ,RTX,RTY,RTZ,SpineMidX,SpineMidY,SpineMidZ,SpineBaseX,SpineBaseY,SpineBaseZ,ShoulderLeftX,ShoulderLeftY,ShoulderLeftZ,ShoulderRightX,ShoulderRightY,ShoulderRightZ,ElbowLeftX,ElbowLeftY,ElbowLeftZ,ElbowRightX,ElbowRightY,ElbowRightZ,Myo_Pose_left,Myo_Pose_Right,Kinect_pose_left,Kinect_pose_right
-0.08154297,-0.7788086,0.2006836,-0.2099609,0.6054688,0.293457,6,-2,1,9,7,2,22,2,0,-1,3,5,3,4,2,7,11,11,11,-14.4375,-14.4375,-14.4375,3.046354,5.185411,7.985718,6.697107,5.365303,2.86605,-0.1517031,-0.100121,0.946362,0.1105215,-0.07870758,0.9229163,-0.02283211,0.3182108,1.186917,-0.1502208,-0.04305069,0.969402,0.1065888,-0.01957151,0.9622667,-0.03138598,-0.04315162,1.19163,-0.03417664,-0.2941649,1.172242,-0.2048116,0.09915427,1.206172,-0.1006579,-0.2903356,1.152573,-0.2766387,-0.08829081,1.185818,0.2296712,-0.1009705,1.168708,NA,NA,Lasso,Lasso,
0.1611328,-1.112793,0.5175781,-0.1801758,0.7319336,0.3925781,-5,2,-1,2,-1,2,-8,-5,6,10,0,-1,-1,2,1,12,-4.125,-4.125,-4.125,4.125,4.125,4.125,3.047394,5.133485,7.97478,6.705688,5.382071,2.88462,-0.1515955,-0.1036747,0.9456689,0.1086359,-0.07675144,0.923473,-0.02259431,0.3182548,1.187591,-0.1506259,-0.04377756,0.9695981,0.1039357,-0.01573669,0.9662309,-0.03128499,-0.0430151,1.191811,-0.03407058,-0.2939588,1.172434,-0.2046754,0.09908433,1.206303,-0.1004783,-0.2901175,1.152978,-0.2762505,-0.08844258,1.185467,0.2290548,-0.1005916,1.167584,NA,NA,Lasso,Lasso,
-0.01464844,-1.075684,0.3945313,-0.269043,0.7753906,0.4277344,-8,-5,-3,-1,-1,-9,-18,-13,-4,-1,-1,-3,-5,-5,-6,-13,12.1875,12.1875,12.1875,-5.0625,-5.0625,-5.0625,3.057528,5.110873,7.96014,6.704261,5.381674,2.891047,-0.1496509,-0.1067356,0.9469535,0.107065,-0.08350187,0.9226233,-0.02243572,0.3181651,1.188322,-0.1472602,-0.04146831,0.9679831,0.09910183,-0.02781274,0.975,-0.0311581,-0.04289089,1.191957,-0.03393099,-0.2937494,1.172573,-0.2045954,0.09892226,1.206432,-0.1003482,-0.2899251,1.153157,-0.2758789,-0.0886958,1.185033,0.2287253,-0.1004152,1.167188,NA,NA,Lasso,Lasso,
-0.08789063,-1.025391,0.3452148,-0.1987305,0.7871094,0.4345703,0,-1,3,6,2,-1,7,19,-6,-6,-6,-3,-5,-5,-3,10,-5.3125,-5.3125,-5.3125,-7.375,-7.375,-7.375,3.062293,5.098108,7.942462,6.687012,5.346266,2.900456,-0.147322,-0.1091517,0.9462429,0.1062075,-0.08329965,0.9268739,-0.02220388,0.3181261,1.188815,-0.1469478,-0.04028802,0.9755,0.1005833,-0.01583935,0.9583001,-0.03103413,-0.04275637,1.192075,-0.03383388,-0.2935362,1.17263,-0.2044348,0.09883377,1.206551,-0.1002798,-0.2896894,1.153316,-0.274737,-0.08912605,1.184196,0.2285722,-0.1002587,1.167087,NA,NA,Lasso,Unknown,
-0.03710938,-0.9814453,0.328125,-0.1625977,0.9106445,0.4892578,-1,-6,-7,-4,-3,-5,11,-5,-12,-13,-6,-2,3,3,-2,-13,20.0625,20.0625,20.0625,5.5,5.5,5.5,3.074048,5.086976,7.936721,6.694298,5.311808,2.902597,-0.1439933,-0.1103922,0.9472046,0.1056083,-0.08958524,0.9249802,-0.02201256,0.3180912,1.189296,-0.1407563,-0.04399971,0.9695556,0.102286,-0.0261789,0.9629204,-0.03093153,-0.04268199,1.192189,-0.0336972,-0.293388,1.172714,-0.2043218,0.09878118,1.206646,-0.1001164,-0.2895698,1.153465,-0.2985648,-0.09443074,1.187426,0.2285228,-0.1000879,1.167123,NA,NA,Unknown,Unknown,
-0.009765625,-0.9189453,0.3378906,-0.1787109,0.9711914,0.4921875,11,16,9,1,-2,-1,5,14,3,10,5,2,1,2,1,0,2.9375,2.9375,2.9375,-7.25,-7.25,-7.25,3.08266,5.073849,7.94056,6.692474,5.29728,2.90536,-0.143146,-0.1189412,0.949519,0.1049834,-0.0972755,0.9268913,-0.02166799,0.3180507,1.190039,-0.135983,-0.06689,0.9788572,0.09997535,-0.03738208,0.9649475,-0.03050265,-0.04207752,1.194223,-0.03318668,-0.292658,1.173204,-0.1994526,0.09995454,1.208503,-0.09952576,-0.2888448,1.154152,-0.2777796,-0.09083175,1.185691,0.2287524,-0.0996986,1.167977,NA,NA,Lasso,Lasso,
0.001464844,-0.9389648,0.3730469,-0.184082,0.8569336,0.5014648,-9,-2,-1,1,1,-1,-12,-40,-1,2,1,-3,-6,-15,0,5,-7.125,-7.125,-7.125,-1.3125,-1.3125,-1.3125,3.079299,5.067752,7.943672,6.6765,5.269897,2.904412,-0.1429725,-0.121717,0.9470572,0.1048929,-0.09881622,0.9280123,-0.02145336,0.3180944,1.19034,-0.1358677,-0.07029747,0.977375,0.1003689,-0.0332782,0.9620912,-0.03031088,-0.0416967,1.195319,-0.03290967,-0.2923416,1.173471,-0.1966703,0.1007899,1.209409,-0.09922194,-0.2885134,1.15445,-0.2759939,-0.09018285,1.185958,0.2293298,-0.09972482,1.168961,NA,NA,Lasso,Lasso,
0.01123047,-0.9897461,0.4135742,-0.1889648,0.9375,0.4736328,-7,-8,-6,-4,-3,-9,-17,3,-13,0,1,-3,-2,-2,1,-10,-0.6875,-0.6875,-0.6875,0.875,0.875,0.875,3.078678,5.056969,7.949116,6.681354,5.262186,2.902263,-0.1427857,-0.1225825,0.9465769,0.1048977,-0.1001642,0.9262015,-0.0213318,0.3181155,1.190473,-0.1356094,-0.06922751,0.9739999,0.09982362,-0.03197703,0.9620086,-0.03018551,-0.04163979,1.195248,-0.03274404,-0.2922211,1.173527,-0.1972238,0.100454,1.20928,-0.09907386,-0.2884536,1.154511,-0.2743466,-0.08998477,1.185441,0.2293924,-0.0993204,1.169217,NA,NA,Lasso,Lasso,
0.001953125,-0.9853516,0.3803711,-0.1669922,0.9165039,0.4790039,-4,-4,-2,1,4,6,3,-13,2,-1,-3,-1,1,2,1,7,4.5,4.5,4.5,-2.875,-2.875,-2.875,3.084374,5.049471,7.956266,6.681047,5.258284,2.901464,-0.1434855,-0.1237405,0.9469863,0.1060482,-0.1017826,0.925558,-0.02108392,0.318048,1.190555,-0.1379275,-0.07070813,0.9798138,0.0998779,-0.03953384,0.9617058,-0.02989748,-0.04163128,1.196193,-0.03229558,-0.2919449,1.173696,-0.1946056,0.1008087,1.209733,-0.098703,-0.2882204,1.154685,-0.2729556,-0.08933483,1.185387,0.2295878,-0.09922009,1.169498,NA,NA,Lasso,Lasso,
-0.03369141,-1.039063,0.3017578,-0.1333008,0.8720703,0.4853516,-2,-1,-1,-1,-9,-12,-1,9,-9,-2,-1,-3,-2,0,-1,-6,6.875,6.875,6.875,2.8125,2.8125,2.8125,3.08785,5.051312,7.971787,6.681977,5.250508,2.900459,-0.143556,-0.1253196,0.9475302,0.1065064,-0.1038251,0.9247522,-0.02097072,0.3180289,1.190635,-0.1381281,-0.0742209,0.9794167,0.1000031,-0.03666446,0.9550383,-0.02957882,-0.04163346,1.196677,-0.03202306,-0.2917988,1.173768,-0.1927599,0.1007151,1.209655,-0.09847538,-0.2880936,1.154797,-0.2726745,-0.0890801,1.185537,0.2297706,-0.09921775,1.169732,NA,NA,Lasso,Lasso,
-0.06787109,-1.225586,0.1713867,-0.1289063,1.008789,0.3808594,1,1,1,1,-3,-12,-21,-6,0,-5,-7,-1,-3,-1,-1,0,-7.4375,-7.4375,-7.4375,7.125,7.125,7.125,3.071343,5.079651,8.018821,6.707283,5.254065,2.894255,-0.1456454,-0.1199699,0.9517734,0.1079403,-0.1035313,0.9243928,-0.0207652,0.3180399,1.190769,-0.1423169,-0.05290888,0.97575,0.1018018,-0.04553412,0.9625,-0.02920889,-0.04160812,1.197118,-0.03164696,-0.2915369,1.173869,-0.1919045,0.1012233,1.210181,-0.09813903,-0.2878454,1.154899,-0.2720816,-0.08877888,1.185715,0.2305721,-0.09860994,1.170304,NA,NA,Lasso,Lasso,
0.02099609,-1.308594,0.15625,-0.1484375,1.039063,0.2602539,-15,-7,-5,-5,-6,-10,-13,-30,-18,-19,-17,-8,-6,-6,-7,-6,-27.375,-27.375,-27.375,12.0625,12.0625,12.0625,3.047414,5.106573,8.062432,6.722771,5.261195,2.886908,-0.1507611,-0.1225692,0.9472684,0.1119495,-0.1023731,0.923878,-0.02043122,0.3179891,1.190879,-0.1367163,-0.08134089,0.9626666,0.1054571,-0.04012018,0.9575899,-0.02902806,-0.04161797,1.197351,-0.03151484,-0.2915365,1.1739,-0.1934889,0.1006173,1.209832,-0.09797522,-0.287873,1.154939,-0.2717189,-0.08841442,1.186228,0.2307127,-0.09857856,1.170207,NA,NA,Lasso,Lasso,
-0.03662109,-1.385742,0.125,-0.1381836,1.150879,0.3417969,12,-1,0,0,3,4,-2,20,-5,1,-2,-3,-5,-6,-10,-14,-14.4375,-14.4375,-14.4375,66.9375,66.9375,66.9375,3.018383,5.254881,8.280807,6.790208,5.291384,2.844443,-0.1626852,-0.1148629,0.9473833,0.1215966,-0.0992255,0.9224499,-0.02008376,0.3179418,1.190981,-0.1545749,-0.071247,0.9757693,0.1154487,-0.04388401,0.9658333,-0.02882327,-0.04157465,1.197032,-0.03129261,-0.2914833,1.173884,-0.1944842,0.1004228,1.20968,-0.09781104,-0.2878743,1.154952,-0.2720187,-0.08765235,1.186916,0.2312468,-0.0989761,1.169607,NA,NA,Lasso,Unknown,
-0.05664063,-1.240234,0.1020508,-0.2094727,1.335938,0.2666016,14,4,-1,-5,-4,-6,3,10,-6,-19,-6,-2,-1,-1,-1,1,-18.25,-18.25,-18.25,39.375,39.375,39.375,3.024732,5.320026,8.387874,6.847262,5.347315,2.752438,-0.1830592,-0.09740136,0.9437264,0.140163,-0.08926451,0.9201062,-0.01984274,0.3179165,1.190991,-0.183198,-0.06995234,0.9236429,0.1329669,-0.03525674,0.9662728,-0.02867935,-0.04159225,1.196597,-0.03115584,-0.2915216,1.173754,-0.19521,0.1002381,1.209446,-0.09775952,-0.2879123,1.154853,-0.295679,-0.09229228,1.196724,0.2344333,-0.1008498,1.169331,NA,NA,Lasso,Unknown,
-0.03271484,-1.033691,0.1625977,-0.128418,1.015625,0.3110352,-16,2,2,-4,-3,-8,-11,-39,-5,1,1,-2,-2,0,-2,-9,-29.8125,-29.8125,-29.8125,25.0625,25.0625,25.0625,3.048564,5.447054,8.630559,6.84017,5.4304,2.59195,-0.2513818,-0.04473344,0.9541711,0.198782,-0.04689241,0.9252103,-0.0193668,0.318029,1.190612,-0.2382737,0.01600493,0.9821333,0.1902135,0.01990937,0.9616364,-0.02857611,-0.04156743,1.196765,-0.0311472,-0.2914306,1.173674,-0.189232,0.1030171,1.208934,-0.09796429,-0.287676,1.15473,-0.2373659,-0.09185048,1.171852,0.2264873,-0.1465832,1.16735,NA,NA,Lasso,Lasso,
0.02636719,-0.7021484,0.3188477,-0.2075195,0.8486328,0.3432617,-2,1,0,-2,-5,-9,-3,4,-5,-8,-2,-1,7,15,2,0,-66.8125,-66.8125,-66.8125,55.4375,55.4375,55.4375,3.062188,5.542391,8.880715,6.832983,5.523825,2.395482,-0.2908747,-0.02541908,0.9670483,0.2335946,-0.03619071,0.9377118,-0.01918659,0.3180379,1.190396,-0.2759406,0.03433168,1.0035,0.2196185,0.02251047,0.9759091,-0.02848087,-0.04156913,1.196835,-0.03112881,-0.2914222,1.173671,-0.1882673,0.1034227,1.208989,-0.09797527,-0.2876497,1.154732,-0.249899,-0.09188392,1.183621,0.2321851,-0.108004,1.174424,NA,NA,Lasso,Lasso,
-0.02246094,-0.5708008,0.3212891,-0.2128906,0.7436523,0.3378906,-4,-3,-1,0,-1,1,0,-61,-1,-4,-3,-1,-2,2,10,45,-72.9375,-72.9375,-72.9375,75.3125,75.3125,75.3125,3.061359,5.568942,8.993853,6.838301,5.567214,2.286827,-0.3277617,-0.01225254,0.9834898,0.2688805,-0.02363365,0.9497278,-0.0188869,0.3181376,1.190042,-0.3054034,0.04432705,1.019333,0.2510851,0.03546795,0.9768667,-0.02834706,-0.04156963,1.196855,-0.03108851,-0.2913802,1.173626,-0.187002,0.1046719,1.209049,-0.09797748,-0.2875385,1.154656,-0.2602878,-0.09414931,1.191359,0.2362122,-0.105602,1.177335,NA,NA,Unknown,Lasso,
-0.1938477,-0.4033203,0.4130859,-0.2885742,0.5317383,0.296875,-5,-2,-3,-3,-2,-7,-13,8,10,0,-3,-2,-1,-4,0,5,-113.0625,-113.0625,-113.0625,89.0625,89.0625,89.0625,3.027984,5.59027,9.206222,6.853263,5.616609,2.067582,-0.3598533,-0.005395452,1.002231,0.3027752,-0.01932563,0.9614665,-0.01848991,0.3181688,1.189642,-0.3327192,0.05229907,1.031333,0.2820409,0.04160221,0.9866923,-0.02829824,-0.04154997,1.196874,-0.03107158,-0.2913757,1.173611,-0.1867564,0.104711,1.209067,-0.09799936,-0.2875102,1.154628,-0.2671482,-0.09489348,1.194603,0.2422591,-0.1037662,1.18106,NA,NA,Unknown,Unknown,
-0.359375,-0.484375,0.2963867,-0.3476563,0.4682617,0.296875,6,6,3,4,6,-1,-9,22,-11,-6,-5,-2,2,20,-3,-7,-83.875,-83.875,-83.875,86.625,86.625,86.625,2.993811,5.531887,9.39808,6.872383,5.600992,1.861666,-0.3881627,-0.007336371,1.016389,0.3359727,-0.02876118,0.9735581,-0.01821088,0.3182009,1.189109,-0.3594022,0.05267297,1.040563,0.3181211,0.02699555,1.011706,-0.02822029,-0.04153222,1.196825,-0.0310115,-0.2913567,1.173499,-0.1864913,0.1048257,1.209086,-0.09801307,-0.2874458,1.154496,-0.2724205,-0.09451067,1.200518,0.2478148,-0.1052569,1.183518,NA,NA,Unknown,Unknown,
0.2128906,-0.9423828,0.6049805,-0.3388672,0.5708008,0.2905273,21,11,12,9,8,14,18,51,-1,8,7,2,0,-3,3,21,-65.5625,-65.5625,-65.5625,69.9375,69.9375,69.9375,2.977565,5.423018,9.589594,6.894181,5.506643,1.689527,-0.4163654,-0.02061244,1.025795,0.3684716,-0.0444213,0.9756984,-0.01804466,0.3182872,1.188696,-0.3855789,0.04455779,1.048,0.3526846,0.02070601,1.000833,-0.02813745,-0.04149983,1.196761,-0.03097276,-0.2913384,1.173432,-0.1863183,0.1047824,1.209041,-0.09802676,-0.2873954,1.154414,-0.278145,-0.09555041,1.205059,0.2510979,-0.1065508,1.185984,NA,NA,Unknown,Open,
-0.06542969,-1.22998,0.6694336,-0.3730469,0.6782227,0.3110352,8,7,1,-4,1,5,4,17,-21,9,14,7,4,-1,6,12,-18.0625,-18.0625,-18.0625,46.3125,46.3125,46.3125,2.97244,5.331964,9.733438,6.916403,5.353912,1.562781,-0.4425737,-0.03444623,1.036189,0.4021619,-0.06243546,0.9698225,-0.01790126,0.3182187,1.188279,-0.4111198,0.03284808,1.043143,0.3831429,0.002520567,0.9824616,-0.02801246,-0.04146083,1.196667,-0.03091861,-0.2913339,1.173312,-0.1860833,0.1049208,1.209061,-0.09800866,-0.2873531,1.154286,-0.2819491,-0.09694263,1.209202,0.2549525,-0.1075768,1.188049,NA,NA,Open,Open,
-0.1054688,-1.101074,0.7636719,0.4394531,1.029785,0.887207,-18,-9,-5,-2,-2,1,-5,-28,-21,-15,-10,0,1,10,1,-11,13.9375,13.9375,13.9375,106.375,106.375,106.375,3.010137,5.276166,9.824445,6.995792,5.199584,1.44411,-0.4618498,-0.04515993,1.048672,0.4292838,-0.08590075,0.9716279,-0.01776288,0.3181971,1.188003,-0.4286622,0.02418939,1.053571,0.4563072,-0.04927316,0.9785626,-0.02785916,-0.04152218,1.195683,-0.03093269,-0.2914579,1.173079,-0.1900721,0.1031359,1.208258,-0.09811841,-0.2875535,1.153834,-0.2844814,-0.09886815,1.211773,0.2592072,-0.1097033,1.189567,NA,NA,Open,Open,
-0.2612305,-1.026367,0.3964844,0.3105469,1.354492,0.5771484,-2,-8,-7,-8,-10,-21,-19,24,10,-1,3,-1,-1,-5,1,30,20.8125,20.8125,20.8125,44.5625,44.5625,44.5625,3.053899,5.242162,9.845993,7.038284,5.077377,1.378254,-0.4727155,-0.06000789,1.063203,0.4506965,-0.1096158,0.9801333,-0.01750522,0.3181739,1.186999,-0.443718,0.01075368,1.06725,0.4309812,-0.04034393,0.9750978,-0.02755583,-0.04161038,1.194141,-0.0307549,-0.2916654,1.172538,-0.1928195,0.1019582,1.20744,-0.09809873,-0.2878192,1.153279,-0.2876194,-0.102722,1.215932,0.2689987,-0.1127966,1.188711,NA,NA,Unknown,Open,
-0.2768555,-0.9194336,0.4692383,0.2314453,1.174805,0.7236328,-3,-8,-3,-1,3,5,0,6,34,5,-5,-2,-2,-5,-1,2,-25.125,-25.125,-25.125,4.1875,4.1875,4.1875,3.04363,5.241665,9.832631,7.031136,5.039614,1.360402,-0.4722372,-0.06244225,1.064509,0.4491558,-0.1081439,0.9820189,-0.01745047,0.3181932,1.186554,-0.4403497,0.006768997,1.067875,0.4236728,-0.04018736,0.9775,-0.02747019,-0.0416278,1.193693,-0.03066834,-0.2917183,1.172344,-0.1934512,0.1017655,1.207255,-0.09804586,-0.2879177,1.1531,-0.2883253,-0.1045,1.218128,0.2702609,-0.1133738,1.189078,NA,NA,Open,Open,
-0.2895508,-1.05957,0.3427734,-0.07910156,1.075195,0.5048828,7,4,0,-1,-1,2,12,16,-1,11,2,-1,-1,-3,0,15,-20,-20,-20,-19.25,-19.25,-19.25,3.013084,5.251475,9.815306,7.014413,5.058039,1.365868,-0.4696361,-0.06378685,1.061943,0.4449847,-0.1032117,0.9812018,-0.0172421,0.3181719,1.185873,-0.4366042,0.01099655,1.064468,0.4188575,-0.04103543,0.9854211,-0.02735652,-0.0416933,1.193186,-0.03058589,-0.2918353,1.172106,-0.1939336,0.1015444,1.207055,-0.09797969,-0.2880899,1.152865,-0.2886611,-0.1055677,1.219669,0.2718471,-0.1145473,1.189435,NA,NA,Open,Open,
-0.2661133,-0.965332,0.2993164,-0.3286133,0.7866211,0.2709961,-19,-24,-10,-4,-5,-8,-12,-31,-14,-1,8,4,6,17,13,21,28.375,28.375,28.375,-28.8125,-28.8125,-28.8125,3.029249,5.261152,9.802483,6.95764,5.132295,1.379449,-0.4678073,-0.06386405,1.05983,0.4409839,-0.09896742,0.9798858,-0.01712453,0.3181691,1.185353,-0.4320137,0.001721825,1.062632,0.40925,-0.03927933,0.9841764,-0.02728542,-0.04177269,1.192743,-0.03058516,-0.2920341,1.171887,-0.1944775,0.1012628,1.207028,-0.09800137,-0.2882812,1.152697,-0.288648,-0.1060446,1.220371,0.2719677,-0.1156413,1.190806,NA,NA,Open,Open,
-0.1875,-0.9199219,0.2768555,-0.222168,0.8706055,0.2631836,0,-2,-4,-4,-3,-5,-2,-4,16,8,0,1,-1,0,7,39,22.9375,22.9375,22.9375,8.125,8.125,8.125,3.03953,5.261816,9.797579,6.961543,5.163546,1.385734,-0.4661331,-0.06381533,1.056814,0.4388352,-0.09649803,0.9772838,-0.0170826,0.3181127,1.185022,-0.431602,0.003828704,1.060288,0.4054549,-0.03652564,0.9818825,-0.02723421,-0.04182456,1.192374,-0.03051138,-0.2922199,1.171559,-0.1949687,0.1008943,1.206897,-0.09798119,-0.2884783,1.152437,-0.2887264,-0.1065918,1.22081,0.2716879,-0.1158438,1.191222,NA,NA,Open,Open,
-0.1660156,-0.949707,0.2768555,-0.112793,0.9819336,0.2817383,-1,10,5,-1,-2,-1,-6,-6,2,-1,-2,0,-2,-6,-7,-27,-10.9375,-10.9375,-10.9375,6.1875,6.1875,6.1875,3.031101,5.263716,9.787763,6.974098,5.170818,1.388201,-0.4662793,-0.06533238,1.054326,0.4366575,-0.09620256,0.9755934,-0.01691134,0.318068,1.184639,-0.429799,0.0002771276,1.056588,0.4050562,-0.03636859,0.9818889,-0.02720523,-0.04188367,1.19211,-0.03047571,-0.2923347,1.171374,-0.1951707,0.1008958,1.206828,-0.09801924,-0.2886203,1.152152,-0.2887822,-0.1067875,1.220897,0.2714007,-0.116111,1.191373,NA,NA,Unknown,Open,
-0.08935547,-1.063965,0.2905273,0.01367188,1.008301,0.2998047,0,-5,-5,-4,-4,-5,1,2,1,-8,-3,-1,3,6,-5,-5,-14.5,-14.5,-14.5,-12.3125,-12.3125,-12.3125,3.007007,5.262894,9.778459,6.970166,5.159133,1.389751,-0.4653057,-0.06549065,1.050891,0.4360686,-0.09666461,0.9730726,-0.01674137,0.3180325,1.184379,-0.4288359,-0.001274051,1.053778,0.4040512,-0.03580082,0.97575,-0.02712298,-0.04193712,1.1921,-0.03049493,-0.2925693,1.171151,-0.195446,0.1006182,1.206649,-0.09808372,-0.2888222,1.151851,-0.2888011,-0.106952,1.220792,0.2712975,-0.116378,1.191339,NA,NA,Unknown,Open,
-0.109375,-1.04248,0.2709961,-0.05371094,0.9345703,0.3007813,3,0,-2,1,0,-1,0,23,-22,-6,-2,-2,-2,0,-7,-22,14.0625,14.0625,14.0625,-11,-11,-11,3.008048,5.259106,9.768135,6.957894,5.151378,1.39293,-0.4648603,-0.06529434,1.050447,0.4362485,-0.09689671,0.9738467,-0.01661205,0.3180452,1.184257,-0.4315478,0.00217617,1.056088,0.4061124,-0.03724721,0.9781423,-0.02713196,-0.04193409,1.191959,-0.0305645,-0.2926019,1.171105,-0.1956482,0.1004666,1.206555,-0.09816257,-0.2888581,1.151818,-0.2887716,-0.1070008,1.220726,0.2711947,-0.1163687,1.19132,NA,NA,Unknown,Open,
-0.137207,-0.9365234,0.2578125,-0.06396484,0.9248047,0.3120117,-4,-4,-1,0,-2,-3,-2,-5,-3,7,2,-1,3,10,-1,-1,4.25,4.25,4.25,-0.0625,-0.0625,-0.0625,3.012134,5.260307,9.762316,6.95867,5.151583,1.393256,-0.4639906,-0.06473578,1.047365,0.4336275,-0.09706275,0.972387,-0.01623939,0.3179701,1.18379,-0.4269997,-0.001147531,1.050316,0.4036403,-0.03555815,0.9756078,-0.02712064,-0.04197551,1.191789,-0.03063947,-0.2927303,1.170919,-0.1961409,0.1001312,1.206296,-0.09825978,-0.2889612,1.151606,-0.2888531,-0.1070577,1.220253,0.2703456,-0.1166776,1.191317,NA,NA,Unknown,Open,
-0.1704102,-0.9741211,0.2705078,-0.08837891,0.9858398,0.3193359,3,0,1,-1,0,2,6,23,25,8,-1,-1,-3,-2,-3,7,-13.625,-13.625,-13.625,13.5,13.5,13.5,2.996569,5.265602,9.760907,6.973414,5.158821,1.394675,-0.4627735,-0.06414345,1.047056,0.432646,-0.09542095,0.9718437,-0.01618222,0.3179365,1.183655,-0.4262382,-0.002662634,1.050508,0.4019315,-0.03473117,0.976633,-0.02709051,-0.0419637,1.191562,-0.03064,-0.2927264,1.170845,-0.1962508,0.1001216,1.206223,-0.09827469,-0.2889655,1.151549,-0.2888285,-0.1070903,1.220219,0.2702423,-0.1168052,1.191294,NA,NA,Unknown,Open,
-0.2138672,-1.001465,0.2661133,-0.1425781,1.012207,0.3032227,-4,-2,-4,-4,-5,-5,-10,-6,17,8,1,0,0,1,2,15,-5.0625,-5.0625,-5.0625,-0.875,-0.875,-0.875,2.984847,5.271855,9.759021,6.980134,5.168737,1.400098,-0.4631262,-0.06326472,1.047009,0.4313257,-0.09467699,0.9717635,-0.01616192,0.3179129,1.183582,-0.4247167,-0.004618828,1.05096,0.4014266,-0.03497748,0.9785738,-0.02710719,-0.04198956,1.191429,-0.03066342,-0.2927775,1.170775,-0.196493,0.09992259,1.20607,-0.09830828,-0.2890292,1.151428,-0.2888294,-0.1072644,1.220089,0.2701651,-0.1169233,1.191275,NA,NA,Unknown,Open,
-0.1884766,-0.9882813,0.296875,-0.1235352,0.9414063,0.3134766,-4,-4,-1,-1,-1,1,-3,-4,7,10,0,-2,-3,-5,-3,-2,-11.1875,-11.1875,-11.1875,3.5,3.5,3.5,2.973776,5.281897,9.757246,6.981325,5.18183,1.405642,-0.4617487,-0.06306355,1.046071,0.4291254,-0.09353553,0.972977,-0.01611805,0.3178811,1.183423,-0.4257905,-0.001331417,1.051225,0.3955992,-0.03347259,0.9752499,-0.02713992,-0.04200985,1.191214,-0.03073545,-0.2928803,1.170635,-0.1966464,0.09979587,1.205992,-0.09841549,-0.2891037,1.151268,-0.2889299,-0.107389,1.220037,0.2701433,-0.1169386,1.19129,NA,NA,Unknown,Open,
-0.2207031,-1.036133,0.2382813,-0.1298828,0.980957,0.3076172,-1,4,3,-12,-9,-3,-3,-1,3,-4,-1,3,3,1,2,3,-21.8125,-21.8125,-21.8125,22.9375,22.9375,22.9375,2.948792,5.296211,9.755029,7.003892,5.200578,1.416852,-0.4606109,-0.06212745,1.044724,0.4265515,-0.09095277,0.9735795,-0.01614439,0.3178665,1.183365,-0.4225454,-0.002983886,1.04715,0.3897033,-0.0314284,0.9712728,-0.02716926,-0.04201842,1.191087,-0.03075979,-0.292908,1.17058,-0.1968086,0.09968496,1.205952,-0.09845351,-0.2891307,1.1512,-0.289015,-0.1076562,1.220047,0.2697023,-0.1169546,1.191444,NA,NA,Unknown,Open,
-0.253418,-1.076172,0.2358398,-0.1313477,1.032715,0.3066406,-3,-4,-5,5,9,2,-1,-4,-4,-5,-8,-11,-9,-5,-2,-3,-27,-27,-27,24.8125,24.8125,24.8125,2.931332,5.308554,9.753184,7.019201,5.211327,1.424925,-0.4573472,-0.06081924,1.042768,0.4225611,-0.08693257,0.9726316,-0.01613758,0.3178279,1.183179,-0.418889,-0.002992757,1.045143,0.3873184,-0.02978529,0.9764737,-0.02711368,-0.04202894,1.191124,-0.03076573,-0.2929296,1.170526,-0.1969249,0.0996184,1.20592,-0.09846784,-0.2891494,1.151136,-0.2890705,-0.1078764,1.220123,0.2694836,-0.116922,1.191544,NA,NA,Unknown,Unknown,
-0.1855469,-1.03418,0.2958984,-0.109375,1.02002,0.3066406,-2,-4,-10,-6,-3,-2,3,-1,-2,0,2,6,2,-4,-2,-1,-34.25,-34.25,-34.25,18.125,18.125,18.125,2.894971,5.335745,9.747487,7.044912,5.235773,1.446403,-0.4488149,-0.06091136,1.042409,0.4149663,-0.08469632,0.9712761,-0.01618216,0.3177883,1.182951,-0.4112137,-0.001898753,1.036579,0.3756385,-0.02729265,0.9669334,-0.02715736,-0.04207404,1.190974,-0.03078355,-0.2929729,1.170472,-0.1971132,0.09947189,1.205846,-0.09848707,-0.2891841,1.151044,-0.2892545,-0.1081526,1.220399,0.2692383,-0.1170078,1.191969,NA,NA,Unknown,Unknown,
-0.1601563,-0.9414063,0.3764648,-0.1860352,0.9384766,0.3056641,2,-3,-5,6,6,4,1,2,-1,-1,-2,1,-1,-3,-3,2,-39.625,-39.625,-39.625,25.1875,25.1875,25.1875,2.852632,5.353213,9.705316,7.071458,5.273654,1.480579,-0.4374014,-0.06470037,1.042376,0.4037838,-0.0824376,0.9693132,-0.01621852,0.3177299,1.182687,-0.3998492,-0.004661371,1.0254,0.3610192,-0.02502503,0.954375,-0.0272008,-0.04209155,1.190821,-0.0308371,-0.2930243,1.170387,-0.1972424,0.09944016,1.205794,-0.09853251,-0.2892119,1.150978,-0.2893609,-0.1083259,1.220872,0.268937,-0.1170659,1.192503,NA,NA,Unknown,Open,
-0.09912109,-0.8359375,0.2875977,-0.1860352,0.8774414,0.2783203,-1,-2,-2,0,-1,0,0,-1,0,2,1,8,8,2,1,0,-14.375,-14.375,-14.375,29.125,29.125,29.125,2.818659,5.337189,9.61231,7.109815,5.303983,1.534469,-0.425012,-0.07128737,1.043215,0.3915606,-0.0854235,0.9664236,-0.0163304,0.317676,1.182442,-0.3849564,-0.009330268,1.013727,0.3421035,-0.03543103,0.9381818,-0.02723996,-0.04210381,1.190661,-0.03088349,-0.2930419,1.170317,-0.1973743,0.09949455,1.205796,-0.09858476,-0.2892258,1.150893,-0.2898763,-0.1080925,1.221387,0.2679723,-0.1168654,1.194395,NA,NA,Unknown,Open,
-0.09912109,-0.8359375,0.2875977,-0.1860352,0.8774414,0.2783203,-1,-2,-2,0,-1,0,0,-1,0,2,1,8,8,2,1,0,-14.375,-14.375,-14.375,29.125,29.125,29.125,2.818659,5.337189,9.61231,7.109815,5.303983,1.534469,-0.4127186,-0.0781136,1.040318,0.3785042,-0.0926052,0.9599143,-0.01636676,0.3176602,1.182304,-0.3687731,-0.02153092,1.007231,0.3230466,-0.05481621,0.9331111,-0.02728064,-0.04208624,1.190593,-0.03092206,-0.293031,1.170294,-0.1975174,0.09946617,1.205797,-0.09864936,-0.2892131,1.150875,-0.2900139,-0.1077361,1.223631,0.2650297,-0.1152245,1.198294,NA,NA,Unknown,Unknown,
-0.05126953,-0.6567383,0.2519531,-0.1879883,0.8066406,0.2358398,-3,-4,-6,-6,-1,2,-2,-1,1,-2,1,6,5,-2,-1,1,-24.875,-24.875,-24.875,17.8125,17.8125,17.8125,2.771953,5.278799,9.472338,7.144413,5.300901,1.617353,-0.4011548,-0.09362739,1.024764,0.3640249,-0.1056899,0.953028,-0.01649833,0.317614,1.182099,-0.3499467,-0.06284968,0.9950001,0.310055,-0.07859037,0.9214,-0.0273549,-0.04204607,1.190465,-0.03107658,-0.2929594,1.170194,-0.1976669,0.09942999,1.205799,-0.09882878,-0.2891271,1.150814,-0.2905584,-0.106057,1.226974,0.264108,-0.1145706,1.201016,NA,NA,Unknown,Unknown,
-0.03466797,-0.7026367,0.1420898,-0.1625977,0.7290039,0.2124023,1,0,9,21,9,1,1,0,-2,-1,-1,-4,-4,-3,-2,-2,-41,-41,-41,3.375,3.375,3.375,2.706424,5.175667,9.317588,7.164884,5.25987,1.716159,-0.3867121,-0.1125043,1.025236,0.3469822,-0.1243077,0.9389045,-0.01661275,0.3176081,1.182006,-0.3431441,-0.07849122,1.010125,0.3054527,-0.100696,0.9409286,-0.02743615,-0.0420183,1.190386,-0.03116735,-0.2929193,1.170151,-0.1978692,0.09937552,1.205832,-0.09889664,-0.2891047,1.15082,-0.2844201,-0.1054174,1.240818,0.2629333,-0.1137032,1.203538,NA,NA,Unknown,Unknown,
-0.005371094,-0.7109375,0.1123047,-0.1582031,0.6855469,0.1811523,-2,-2,-6,-10,-7,-4,-2,-4,-3,-1,-1,-3,-4,-2,-2,-2,-58.0625,-58.0625,-58.0625,-1.5625,-1.5625,-1.5625,2.636627,5.047377,9.18646,7.170281,5.222731,1.767152,-0.3721215,-0.1301364,1.031387,0.3336889,-0.14668,0.9365606,-0.01680068,0.3176319,1.181964,-0.3226876,-0.1199367,0.9973636,0.2867087,-0.1325464,0.9269091,-0.02760403,-0.04197951,1.190562,-0.03144092,-0.2928582,1.170119,-0.1980825,0.09932666,1.205896,-0.09915153,-0.2890346,1.150835,-0.2841291,-0.1025401,1.244455,0.2622631,-0.1120532,1.206743,NA,NA,Unknown,Unknown,
0.1469727,-0.8422852,0.004882813,-0.1030273,0.6928711,0.1689453,1,0,-2,-4,-2,-1,1,1,2,5,2,-1,0,0,0,0,-39.0625,-39.0625,-39.0625,19.75,19.75,19.75,2.584816,4.868201,9.087062,7.192524,5.117361,1.856343,-0.3605442,-0.1543601,1.030071,0.3225037,-0.1750871,0.9428866,-0.01706509,0.3176024,1.181953,-0.3244673,-0.1872205,1.037572,0.2688508,-0.1678372,0.9175455,-0.02775144,-0.04199524,1.190506,-0.0316798,-0.292878,1.170128,-0.198366,0.09923752,1.205966,-0.09935988,-0.2890843,1.150854,-0.2870685,-0.09817167,1.245465,0.2620337,-0.1113845,1.207592,NA,NA,Unknown,Unknown,
0.07470703,-0.9160156,-0.06005859,0.05126953,0.7773438,0.1704102,-3,-2,-2,-5,-4,-1,-1,-2,-2,-3,-2,-2,-1,-1,-2,-2,-22,-22,-22,15.625,15.625,15.625,2.57597,4.775418,9.047976,7.216944,4.974875,1.932158,-0.3501756,-0.1861899,1.032318,0.3118536,-0.2077462,0.9539678,-0.01730321,0.3175669,1.181977,-0.2875067,-0.1826986,0.9973636,0.2595929,-0.2028657,0.9293333,-0.02791392,-0.0419846,1.190437,-0.03193808,-0.2928607,1.170137,-0.198764,0.0992347,1.206131,-0.09970725,-0.2890969,1.150945,-0.2897675,-0.09575917,1.245762,0.2616868,-0.1107028,1.208124,NA,NA,Unknown,Unknown,
0.2250977,-0.8535156,0.02929688,0.1962891,0.8276367,0.1074219,-1,-2,-4,-3,-1,-1,-2,-1,-3,-2,0,-1,0,-2,-1,-2,-23.125,-23.125,-23.125,15.6875,15.6875,15.6875,2.557744,4.585377,9.013919,7.228555,4.710515,2.000373,-0.3424315,-0.2146662,1.038953,0.3025857,-0.2441365,0.9626788,-0.01772999,0.3175912,1.182143,-0.2958569,-0.2298492,1.046684,0.2924794,-0.2284513,0.9301636,-0.02805614,-0.04198349,1.190399,-0.0321131,-0.2928647,1.170163,-0.1990629,0.09915575,1.206264,-0.09991816,-0.2891034,1.150999,-0.291338,-0.09532693,1.245376,0.2615972,-0.1105583,1.208212,NA,NA,Unknown,Unknown,
0.4316406,-0.9399414,-0.05517578,0.3105469,0.8745117,0.1318359,0,-2,-1,-2,-3,-1,0,-2,-4,-3,-2,-4,-2,-1,-3,-2,-1.6875,-1.6875,-1.6875,17.875,17.875,17.875,2.547454,4.366724,9.016477,7.236194,4.613421,2.011472,-0.3279615,-0.2569441,1.041208,0.295456,-0.2786223,0.9750203,-0.01803952,0.3175494,1.182232,-0.2646818,-0.2586345,1.009571,0.2897219,-0.2554415,0.9446596,-0.02816918,-0.04200948,1.19037,-0.03225578,-0.2928939,1.170193,-0.1995192,0.09915742,1.206514,-0.1000648,-0.2891295,1.151045,-0.2936213,-0.09775448,1.243559,0.261504,-0.111012,1.207824,NA,NA,Unknown,Unknown,
0.5405273,-0.940918,0.04931641,0.3105469,0.953125,0.08544922,-2,-1,-1,-2,-3,-1,-1,-1,-2,-4,-4,-2,-1,-2,-1,-2,-18.375,-18.375,-18.375,15.25,15.25,15.25,2.520615,4.160212,9.037088,7.253127,4.431265,2.00971,-0.3220659,-0.2870208,1.047843,0.2878614,-0.3098059,0.9889743,-0.01821991,0.3175746,1.182295,-0.2678513,-0.2902692,1.031667,0.2836897,-0.2847826,0.9574715,-0.02827987,-0.04203705,1.190373,-0.03239983,-0.2929425,1.170267,-0.1997696,0.09909789,1.206569,-0.1002086,-0.2892116,1.151143,-0.2962922,-0.1025106,1.241235,0.2607883,-0.1132649,1.207127,NA,NA,Unknown,Unknown,
0.8110352,-0.9472656,-0.04882813,0.5424805,1.022949,0.1030273,-1,-2,0,-1,-1,-2,-1,0,-1,-1,-2,-2,-1,-2,0,0,-13.125,-13.125,-13.125,26.6875,26.6875,26.6875,2.468428,3.967395,9.100136,7.271478,4.333385,2.001653,-0.3165906,-0.3427729,1.06636,0.2780417,-0.3575742,1.013738,-0.01876009,0.3174683,1.182476,-0.2718942,-0.3357252,1.0465,0.2430173,-0.3793972,1.080667,-0.02862166,-0.04227516,1.190528,-0.03291346,-0.2935792,1.170892,-0.2003847,0.09881011,1.206759,-0.1004858,-0.2898701,1.151653,-0.2975222,-0.1141263,1.237161,0.2580848,-0.1231667,1.205446,NA,NA,Unknown,Unknown,
0.7119141,-0.887207,-0.1386719,0.6289063,0.9433594,0.1166992,-2,0,0,-1,-1,-1,-2,0,0,0,-1,-1,-1,0,-3,-2,5.1875,5.1875,5.1875,11.5,11.5,11.5,2.428831,3.768526,9.157288,7.295249,4.155341,1.99684,-0.3153245,-0.3607888,1.078082,0.2736875,-0.3753484,1.026936,-0.01892846,0.3174739,1.182587,-0.2670122,-0.352416,1.062263,0.2279819,-0.3830486,1.005062,-0.02885932,-0.04251932,1.190688,-0.0333379,-0.2942228,1.171443,-0.2005952,0.09872055,1.206794,-0.100689,-0.2904245,1.152068,-0.2965112,-0.1237442,1.234361,0.2557124,-0.1291701,1.203241,NA,NA,Unknown,Unknown,
0.8051758,-0.7680664,-0.1435547,0.7255859,0.9667969,-0.04638672,-1,-2,-2,-1,-2,-1,-1,0,-1,-3,-3,-2,-1,-2,-2,-3,-1.1875,-1.1875,-1.1875,30.375,30.375,30.375,2.352751,3.612742,9.264577,7.341596,3.926273,1.968646,-0.3147105,-0.378774,1.089814,0.268692,-0.392473,1.039941,-0.01908736,0.3175038,1.182725,-0.272164,-0.3793962,1.066769,0.2255028,-0.3980431,1.09925,-0.0291568,-0.04273509,1.190898,-0.03387451,-0.2947903,1.172021,-0.2007592,0.09866092,1.206852,-0.1009684,-0.2908944,1.152448,-0.2953799,-0.128644,1.232597,0.2512491,-0.1321339,1.200175,NA,NA,Unknown,Unknown,
0.987793,-0.7675781,-0.152832,0.5854492,0.8920898,0.015625,0,0,2,0,-1,-2,1,-2,0,1,-2,0,0,-2,-1,-3,-7.625,-7.625,-7.625,-4.375,-4.375,-4.375,2.288762,3.540789,9.340708,7.37984,3.819831,1.924034,-0.3141578,-0.3915474,1.101047,0.2678996,-0.3990648,1.046241,-0.01940519,0.3173805,1.183062,-0.2708143,-0.3969968,1.08265,0.2227189,-0.4084156,1.033409,-0.02942842,-0.04297073,1.191111,-0.03427345,-0.2953817,1.172568,-0.2009126,0.09854297,1.20691,-0.1011669,-0.2914383,1.152861,-0.2938227,-0.1338082,1.230353,0.2475966,-0.1340303,1.198617,NA,NA,Unknown,Unknown,
0.9155273,-0.5717773,-0.1342773,0.7797852,0.7900391,-0.04248047,-1,-2,1,-3,-1,-3,-3,-2,-2,-2,-2,-1,-1,-2,-1,-1,2.5625,2.5625,2.5625,-13,-13,-13,2.112171,3.357058,9.55652,7.425052,3.719043,1.838231,-0.3115274,-0.4058383,1.110239,0.2655099,-0.4089516,1.054735,-0.01956172,0.3172835,1.183171,-0.2718228,-0.4128088,1.090231,0.220666,-0.4186627,1.041682,-0.03016442,-0.04370535,1.192512,-0.03489293,-0.2961542,1.173281,-0.2010403,0.09855276,1.206954,-0.1015542,-0.2920462,1.153113,-0.2915936,-0.1392594,1.227752,0.2445158,-0.1356263,1.197579,NA,NA,Unknown,Unknown,
0.9462891,-0.5131836,-0.1850586,0.7587891,0.6147461,-0.0078125,0,-1,-1,-3,-1,-2,-4,0,-1,-2,-1,-1,-1,0,-2,-1,-8.5625,-8.5625,-8.5625,-5.1875,-5.1875,-5.1875,2.036646,3.308712,9.63788,7.479373,3.59485,1.757759,-0.3111934,-0.4203907,1.12156,0.2629524,-0.4179109,1.064138,-0.01976675,0.3171838,1.183367,-0.2688784,-0.4341827,1.096,0.2182903,-0.420669,1.06395,-0.0303176,-0.04383988,1.192616,-0.03522719,-0.2965117,1.173739,-0.2011895,0.09849096,1.207,-0.1018267,-0.2924609,1.153532,-0.2904316,-0.1417785,1.226609,0.2401219,-0.137503,1.19642,NA,NA,Unknown,Unknown,
0.9741211,-0.53125,-0.2460938,0.7617188,0.5805664,0.002929688,-1,0,-2,1,1,-2,1,0,-5,-8,0,-1,-2,0,-2,-2,-56.5,-56.5,-56.5,4.6875,4.6875,4.6875,1.854028,3.238407,9.786718,7.510873,3.53517,1.721019,-0.3039075,-0.4394468,1.144538,0.2602216,-0.4380665,1.08605,-0.02023801,0.31704,1.183859,-0.2598695,-0.4485313,1.1225,0.2208238,-0.4519828,1.06197,-0.03085736,-0.0442665,1.192913,-0.03627558,-0.2976781,1.174742,-0.2014677,0.09836602,1.207083,-0.1025891,-0.2936169,1.154069,-0.2879348,-0.1460899,1.223907,0.2367046,-0.1392121,1.194659,NA,NA,Unknown,Unknown,
0.9360352,-0.5805664,-0.1992188,1.015137,0.5180664,-0.06347656,0,-2,-2,-2,-3,1,0,-1,6,15,5,0,0,-1,0,2,-27.6875,-27.6875,-27.6875,41.0625,41.0625,41.0625,1.725035,3.201287,9.886307,7.626913,3.42221,1.618485,-0.3063278,-0.4394653,1.155127,0.2583537,-0.4441381,1.095926,-0.02052995,0.3169142,1.184171,-0.2586105,-0.4298197,1.135636,0.2002676,-0.4215972,1.151,-0.03110135,-0.04448096,1.193078,-0.03662951,-0.2981283,1.175105,-0.2015779,0.09837727,1.207092,-0.1028795,-0.2940562,1.154283,-0.2871363,-0.1469255,1.222909,0.2348205,-0.140251,1.193626,NA,NA,Unknown,Unknown,
0.8930664,-0.4023438,-0.265625,0.9394531,0.5009766,-0.1098633,-2,-1,-3,-2,-1,-1,-1,-2,-1,-2,-2,-3,-3,-3,-2,-3,23.3125,23.3125,23.3125,81.125,81.125,81.125,1.671374,3.193755,9.959232,7.790502,3.340667,1.524873,-0.307156,-0.4431375,1.161275,0.2590336,-0.4497505,1.105325,-0.02106338,0.3167681,1.184813,-0.2578039,-0.4339456,1.140188,0.2158929,-0.4746985,1.084105,-0.03131315,-0.04467215,1.193233,-0.03688722,-0.2985533,1.175503,-0.2017903,0.09823603,1.207105,-0.103076,-0.2944432,1.154443,-0.2868221,-0.1479121,1.222332,0.233167,-0.1410819,1.192652,NA,NA,Unknown,Unknown,
0.9067383,-0.359375,-0.2197266,0.9829102,0.6230469,-0.1967773,-1,0,1,1,-1,0,-1,-1,0,3,1,0,0,-2,0,0,16.9375,16.9375,16.9375,60.125,60.125,60.125,1.661897,3.197205,9.980062,7.935452,3.300929,1.449732,-0.3075328,-0.4456781,1.166075,0.2607562,-0.4413173,1.111272,-0.02143479,0.3166479,1.184986,-0.2537716,-0.44981,1.133714,0.2203494,-0.4353342,1.104636,-0.031504,-0.04481858,1.193346,-0.03704946,-0.2988434,1.175751,-0.2019571,0.09815308,1.207145,-0.1032149,-0.2947744,1.15458,-0.286721,-0.1481737,1.222152,0.2315045,-0.1419153,1.191913,NA,NA,Unknown,Unknown,
0.90625,-0.4018555,-0.1621094,0.9174805,0.597168,-0.1850586,-1,0,0,0,-1,1,-1,0,-1,-2,0,-2,-2,-1,-2,0,-1.9375,-1.9375,-1.9375,14.6875,14.6875,14.6875,1.655346,3.210639,9.979278,7.997715,3.27813,1.411767,-0.307983,-0.4461069,1.167743,0.2575106,-0.4444594,1.117908,-0.0218526,0.3166117,1.185374,-0.2572807,-0.4444049,1.1425,0.210483,-0.4441377,1.0985,-0.03161715,-0.04491321,1.193514,-0.03710423,-0.2990146,1.176061,-0.2021389,0.09809418,1.207215,-0.1032617,-0.2950217,1.154839,-0.2866229,-0.1487282,1.221928,0.2303893,-0.1421582,1.191529,NA,NA,Unknown,Unknown,
0.8886719,-0.3442383,-0.1606445,0.8413086,0.512207,-0.1240234,-1,-1,0,-3,0,-1,-1,-1,-1,-3,-2,-1,0,-1,-1,-2,-2.875,-2.875,-2.875,-10.375,-10.375,-10.375,1.683976,3.207649,9.947692,7.995942,3.264581,1.404233,-0.3090959,-0.4506904,1.168638,0.2508467,-0.4593083,1.120803,-0.02233309,0.3166344,1.185727,-0.2570533,-0.4428409,1.140853,0.1959195,-0.4426351,1.127818,-0.03175782,-0.04502057,1.193696,-0.03723369,-0.2992409,1.176415,-0.2023433,0.09804327,1.207318,-0.1033924,-0.2952605,1.15517,-0.2866196,-0.1488668,1.221935,0.2297016,-0.1423865,1.191722,NA,NA,Unknown,Unknown,
0.9072266,-0.3725586,-0.199707,0.8789063,0.4814453,-0.1044922,0,-1,0,-1,-1,0,0,0,-3,0,-2,-1,-2,-1,-1,-1,-24.4375,-24.4375,-24.4375,-14.6875,-14.6875,-14.6875,1.697751,3.198014,9.910114,7.991214,3.260667,1.390696,-0.3111828,-0.4500665,1.16369,0.2505774,-0.4426893,1.126075,-0.02274176,0.3166008,1.185995,-0.2592893,-0.4416898,1.142886,0.2068013,-0.4470122,1.098625,-0.03193172,-0.04525619,1.193917,-0.0373012,-0.2996445,1.1768,-0.2027144,0.09796913,1.207533,-0.1034894,-0.2956958,1.155335,-0.2866508,-0.1496662,1.221955,0.2284126,-0.1427155,1.19203,NA,NA,Unknown,Unknown,
0.8662109,-0.3842773,-0.2275391,0.8823242,0.4511719,-0.112793,-1,-2,1,1,0,0,-1,-1,-2,0,-3,0,0,-3,-1,-2,-30.3125,-30.3125,-30.3125,-11.8125,-11.8125,-11.8125,1.701157,3.198146,9.869967,7.97391,3.259856,1.391996,-0.3110229,-0.4493701,1.161407,0.2497066,-0.4443726,1.126039,-0.02316195,0.3166607,1.186256,-0.2591675,-0.4436928,1.142971,0.2063798,-0.446059,1.108584,-0.03213925,-0.04532414,1.194103,-0.03748453,-0.2996937,1.177114,-0.2029827,0.09794763,1.207662,-0.1036743,-0.2957759,1.155649,-0.2867177,-0.1501884,1.222065,0.2278538,-0.1428976,1.192314,NA,NA,Unknown,Unknown,
0.8676758,-0.3808594,-0.2197266,0.8842773,0.4306641,-0.1386719,1,-1,-3,-1,-1,-1,-1,0,-2,0,0,-1,0,0,-2,0,-32,-32,-32,-3.1875,-3.1875,-3.1875,1.700828,3.199295,9.85033,7.97726,3.258211,1.386467,-0.3105876,-0.448402,1.157625,0.2497017,-0.4528393,1.122935,-0.02336882,0.3166277,1.186389,-0.2600355,-0.441864,1.140289,0.2127245,-0.46093,1.110091,-0.03234912,-0.04543069,1.194174,-0.03766938,-0.2998426,1.177243,-0.2031742,0.09792238,1.207764,-0.1038477,-0.2958914,1.155714,-0.2867023,-0.1506802,1.221864,0.2274199,-0.1430609,1.192348,NA,NA,Unknown,Unknown,
0.8769531,-0.3886719,-0.2114258,0.8862305,0.4345703,-0.1855469,0,-2,-2,0,-2,0,-1,-1,-1,-1,1,-1,0,0,-1,-1,-29.75,-29.75,-29.75,21.8125,21.8125,21.8125,1.698875,3.205381,9.814406,7.993559,3.258861,1.388298,-0.3103778,-0.4467922,1.157843,0.2485731,-0.4460328,1.126542,-0.02365993,0.3166204,1.186682,-0.2599104,-0.4455132,1.140515,0.2097685,-0.4365973,1.150571,-0.03341271,-0.04582885,1.196203,-0.03792164,-0.2999768,1.177804,-0.2019111,0.09871043,1.208777,-0.1040768,-0.2959693,1.156065,-0.2867156,-0.1506602,1.221868,0.2281116,-0.1457846,1.193458,NA,NA,Unknown,Unknown,
0.8901367,-0.3623047,-0.2055664,0.8867188,0.4326172,-0.1655273,0,-2,-2,-1,0,0,-2,-1,-2,-2,-1,-1,0,-1,-2,-2,-12.5,-12.5,-12.5,26.6875,26.6875,26.6875,1.697662,3.214464,9.795186,8.011149,3.261508,1.404015,-0.3097728,-0.4464692,1.154187,0.2486155,-0.4432249,1.125581,-0.02401845,0.3166851,1.186906,-0.2603639,-0.4416451,1.13578,0.2049277,-0.4381125,1.107571,-0.03347556,-0.04586637,1.196197,-0.03806238,-0.3001089,1.177973,-0.2023534,0.09848976,1.208725,-0.1042316,-0.2961183,1.156132,-0.2867488,-0.1507765,1.22177,0.2273517,-0.1455277,1.193311,NA,NA,Unknown,Unknown,
0.8759766,-0.324707,-0.203125,0.8989258,0.4155273,-0.1640625,-1,0,0,0,-1,-2,0,0,-1,-1,0,-1,-3,0,0,-1,-4.4375,-4.4375,-4.4375,26.625,26.625,26.625,1.688248,3.214635,9.798032,8.026404,3.259511,1.42128,-0.314123,-0.4472733,1.152945,0.2480224,-0.4554935,1.121612,-0.024292,0.3167387,1.187135,-0.2736644,-0.4484986,1.13616,0.1995614,-0.4524113,1.098333,-0.03352103,-0.04589236,1.196195,-0.03813327,-0.3002307,1.178089,-0.2027362,0.09832119,1.208725,-0.1043114,-0.2962604,1.156199,-0.286772,-0.1509555,1.221579,0.2267081,-0.1454217,1.193121,NA,NA,Unknown,Unknown,
0.8876953,-0.3496094,-0.2006836,0.8823242,0.4150391,-0.1416016,-1,-1,1,-1,0,2,0,-1,-2,0,-2,0,0,-3,-2,0,0.75,0.75,0.75,21.25,21.25,21.25,1.680966,3.20565,9.804839,8.0282,3.259954,1.432649,-0.3119204,-0.4533415,1.152303,0.2464114,-0.4429846,1.12633,-0.02448329,0.3167438,1.187271,-0.2624444,-0.4349464,1.150222,0.1982756,-0.4571754,1.105,-0.03353578,-0.04589411,1.196198,-0.03816399,-0.3002358,1.178194,-0.2029309,0.09826787,1.208726,-0.1043671,-0.2962981,1.156297,-0.2868364,-0.1512119,1.22138,0.2263079,-0.1452834,1.192984,NA,NA,Unknown,Unknown,
0.8969727,-0.3496094,-0.2114258,0.8745117,0.4194336,-0.1396484,-1,-2,0,-1,-1,-1,0,-2,0,-2,-2,0,-3,-2,-1,-1,5.5,5.5,5.5,5.3125,5.3125,5.3125,1.680393,3.195644,9.810884,8.024895,3.260929,1.448141,-0.3125592,-0.4528508,1.150755,0.2456686,-0.4436397,1.124933,-0.02468328,0.3167829,1.187362,-0.2630899,-0.4324061,1.136562,0.1989613,-0.4547455,1.104256,-0.03358268,-0.04592234,1.196196,-0.03826287,-0.300367,1.178298,-0.2031816,0.09803916,1.208646,-0.1044646,-0.2964145,1.156327,-0.2868354,-0.1515304,1.221079,0.2259088,-0.1453479,1.192787,NA,NA,Unknown,Unknown,
0.8974609,-0.3530273,-0.2133789,0.8833008,0.4135742,-0.1552734,-2,-1,-4,-3,-3,-1,0,1,0,-1,-3,0,0,-1,-1,-1,5.25,5.25,5.25,-8.8125,-8.8125,-8.8125,1.679243,3.190869,9.81501,8.015526,3.259239,1.447527,-0.3122393,-0.4500164,1.152929,0.2453483,-0.4408992,1.126972,-0.02493785,0.3168148,1.187539,-0.2599058,-0.442012,1.135121,0.1937461,-0.4214825,1.1192,-0.03366169,-0.04596063,1.196213,-0.03843911,-0.3004982,1.178446,-0.2034815,0.09793428,1.208691,-0.1046304,-0.2965272,1.156388,-0.2869378,-0.1517565,1.220835,0.2254253,-0.1454569,1.192619,NA,NA,Unknown,Unknown,
0.8974609,-0.3530273,-0.2133789,0.8833008,0.4135742,-0.1552734,-2,-1,-4,-3,-3,-1,0,1,0,-1,-3,0,0,-1,-1,-1,5.25,5.25,5.25,-8.8125,-8.8125,-8.8125,1.679243,3.190869,9.81501,8.015526,3.259239,1.447527,-0.3125624,-0.4494205,1.152916,0.2442212,-0.4393189,1.125557,-0.02512524,0.3167832,1.18761,-0.2628474,-0.4437251,1.141405,0.1908918,-0.4112218,1.119375,-0.03378314,-0.046049,1.196168,-0.03864662,-0.3006888,1.17848,-0.2037132,0.09784013,1.20866,-0.1048893,-0.2967451,1.156342,-0.2869868,-0.1519687,1.220627,0.2249967,-0.1455439,1.192477,NA,NA,Unknown,Unknown,
0.8974609,-0.3603516,-0.1987305,0.8916016,0.4174805,-0.1621094,-2,-1,-2,-5,-2,0,-1,-1,0,0,0,-2,0,-1,-1,0,-0.3125,-0.3125,-0.3125,-4.75,-4.75,-4.75,1.681268,3.181152,9.817207,8.011588,3.256697,1.445272,-0.3123062,-0.4530169,1.152411,0.2417423,-0.4398997,1.12429,-0.02531341,0.3167944,1.187615,-0.2622879,-0.4405416,1.140331,0.2035577,-0.464502,1.100364,-0.03419922,-0.04621816,1.196627,-0.03867603,-0.3007204,1.178446,-0.2038906,0.09776176,1.208603,-0.1049639,-0.2968356,1.156273,-0.2870609,-0.1522039,1.220321,0.2242878,-0.1452418,1.192025,NA,NA,Unknown,Unknown,
0.8955078,-0.3427734,-0.1967773,0.8964844,0.4375,-0.1821289,1,-1,0,0,-2,0,-1,0,-1,0,-1,-2,-2,-1,0,0,-11.6875,-11.6875,-11.6875,-3.1875,-3.1875,-3.1875,1.678624,3.177009,9.808584,8.009971,3.255649,1.444631,-0.3117018,-0.4564077,1.153554,0.2417116,-0.439185,1.124303,-0.0256038,0.3167875,1.187657,-0.2607266,-0.4315746,1.139385,0.2011479,-0.447,1.108454,-0.03423922,-0.04625364,1.196536,-0.03868658,-0.3007478,1.178416,-0.2041931,0.09766699,1.208574,-0.1049927,-0.2968982,1.156185,-0.2870622,-0.1523031,1.220103,0.223685,-0.1449973,1.191671,NA,NA,Unknown,Unknown,
0.8925781,-0.3442383,-0.1987305,0.8818359,0.4213867,-0.1503906,0,-2,1,1,-1,0,0,-1,0,-2,-1,-1,-1,0,-3,-2,-15.125,-15.125,-15.125,-9.9375,-9.9375,-9.9375,1.676894,3.175498,9.801216,8.004006,3.254119,1.441907,-0.3110367,-0.4538073,1.154262,0.2408987,-0.4395768,1.124624,-0.02585077,0.316845,1.187659,-0.2622522,-0.4444821,1.141995,0.1927092,-0.4503895,1.093333,-0.03458164,-0.04629296,1.196914,-0.03875762,-0.3007223,1.178421,-0.2043874,0.09760825,1.208522,-0.1050704,-0.2968833,1.156155,-0.2871252,-0.1523821,1.219782,0.223672,-0.1450766,1.191893,NA,NA,Unknown,NotTracked,
0.8916016,-0.3364258,-0.2104492,0.8730469,0.418457,-0.1362305,-1,0,0,1,1,1,0,-1,-2,0,-1,-1,-2,-3,-1,-2,-17.125,-17.125,-17.125,-8.75,-8.75,-8.75,1.670735,3.172514,9.786508,8.001412,3.252931,1.439422,-0.3102313,-0.454494,1.154128,0.2416818,-0.4521956,1.12012,-0.02610367,0.316846,1.187593,-0.2574938,-0.4294173,1.132514,0.2003972,-0.4605389,1.114846,-0.03462616,-0.04632492,1.196731,-0.0388138,-0.3007838,1.178357,-0.2044797,0.09762577,1.208488,-0.1051815,-0.296984,1.156058,-0.2871692,-0.1522814,1.219619,0.2233698,-0.1451614,1.191636,NA,NA,Unknown,NotTracked,
0.9033203,-0.3349609,-0.215332,0.8842773,0.4106445,-0.1293945,-1,-2,-1,-2,0,-1,-1,-1,1,-1,-1,-1,-4,-1,-1,-2,-10.75,-10.75,-10.75,-3.5625,-3.5625,-3.5625,1.665043,3.171615,9.768371,7.999892,3.2512,1.434685,-0.3098337,-0.4531134,1.153469,0.2408372,-0.4457994,1.121348,-0.02637256,0.3168751,1.187529,-0.2604868,-0.4469447,1.13528,0.2018426,-0.4599625,1.101906,-0.03472307,-0.04637625,1.196537,-0.03893986,-0.3008658,1.178225,-0.2046221,0.09752888,1.20838,-0.1053517,-0.2971059,1.155835,-0.2872758,-0.1522467,1.219216,0.2231522,-0.1451433,1.191428,NA,NA,Unknown,NotTracked,
0.8989258,-0.3334961,-0.2099609,0.8754883,0.4140625,-0.1376953,2,-3,-1,0,-1,0,-2,-1,-1,-1,-2,-1,0,-1,-1,-1,-8.75,-8.75,-8.75,4.5,4.5,4.5,1.661815,3.171794,9.765955,8.005955,3.25062,1.431325,-0.3095439,-0.4537006,1.152298,0.2408031,-0.4441225,1.121417,-0.02673203,0.3169267,1.187501,-0.2585609,-0.4346472,1.133906,0.1999527,-0.4569418,1.10452,-0.03473693,-0.0464032,1.196338,-0.03892554,-0.3009256,1.178106,-0.2047981,0.09740382,1.20827,-0.1053734,-0.2972158,1.155687,-0.2873028,-0.1521094,1.218871,0.2227456,-0.1452322,1.191102,NA,NA,Unknown,NotTracked,
0.8935547,-0.3408203,-0.2070313,0.8857422,0.4130859,-0.1425781,0,-2,-2,-1,-1,1,0,-1,-2,0,-3,-1,-1,-1,0,-1,-3.375,-3.375,-3.375,7.5625,7.5625,7.5625,1.657024,3.172366,9.765348,8.016467,3.250561,1.428481,-0.3146836,-0.4488192,1.153555,0.2409681,-0.4408672,1.122497,-0.02689154,0.316967,1.187456,-0.2747501,-0.4539565,1.136609,0.1886191,-0.4082339,1.121231,-0.03478668,-0.04643428,1.196157,-0.03898064,-0.300977,1.178026,-0.2048842,0.09745028,1.208224,-0.1054601,-0.2972885,1.155612,-0.2873241,-0.1521589,1.218598,0.2225842,-0.1453241,1.190887,NA,NA,Unknown,Unknown,
0.8916016,-0.3349609,-0.2041016,0.8876953,0.4033203,-0.1401367,-1,-2,1,-1,-1,-2,1,1,-1,-1,-1,1,-2,-1,-2,-1,-0.625,-0.625,-0.625,11.125,11.125,11.125,1.654966,3.17099,9.766939,8.028941,3.249505,1.427063,-0.3113296,-0.4530716,1.150448,0.2416469,-0.4383317,1.122517,-0.02708051,0.3169528,1.187379,-0.2674286,-0.4558168,1.132826,0.1930145,-0.4396784,1.084,-0.03481645,-0.04645564,1.195943,-0.03900638,-0.3010051,1.177885,-0.2049928,0.0974361,1.208118,-0.1055245,-0.2973785,1.155443,-0.2873534,-0.1521585,1.218026,0.2223762,-0.1453203,1.190559,NA,NA,Unknown,Unknown,
0.8994141,-0.3261719,-0.2080078,0.894043,0.4008789,-0.1337891,0,-1,0,-1,0,0,0,-2,-1,-2,0,-2,-1,1,-1,0,2.1875,2.1875,2.1875,16,16,16,1.641901,3.164296,9.783419,8.045941,3.245078,1.426455,-0.3107174,-0.4555671,1.149545,0.2435834,-0.4538783,1.118308,-0.02736907,0.3170189,1.187247,-0.261808,-0.4427533,1.130999,0.1981613,-0.4458043,1.101667,-0.03498183,-0.04647942,1.195682,-0.03930311,-0.3010582,1.177689,-0.2051574,0.09739637,1.208022,-0.105837,-0.2974477,1.155191,-0.2874618,-0.1522499,1.217473,0.2218009,-0.1447008,1.189956,NA,NA,Unknown,Unknown,
0.9013672,-0.328125,-0.2158203,0.8984375,0.4067383,-0.15625,-1,-1,-2,-1,-1,0,0,0,-2,0,0,-1,1,-1,-1,-2,3.0625,3.0625,3.0625,13.0625,13.0625,13.0625,1.628433,3.159374,9.801279,8.061857,3.239609,1.42607,-0.3103963,-0.4556584,1.150081,0.2415449,-0.444356,1.122321,-0.02755445,0.3169938,1.187216,-0.2653238,-0.4476392,1.134973,0.2059135,-0.4806004,1.100083,-0.03500592,-0.04651532,1.195596,-0.03930961,-0.3011246,1.177617,-0.205295,0.09732488,1.20798,-0.105857,-0.2975366,1.155085,-0.2874755,-0.1525441,1.217044,0.2216517,-0.1448307,1.18966,NA,NA,Unknown,Unknown,
0.9296875,-0.3388672,-0.2314453,0.8925781,0.3974609,-0.1679688,-1,-2,-1,-3,-2,-3,-1,0,-1,-1,-1,-1,-1,-2,1,-2,7.75,7.75,7.75,10.125,10.125,10.125,1.619903,3.166153,9.817475,8.073496,3.233301,1.427399,-0.3109314,-0.4566692,1.151314,0.2413021,-0.4423265,1.123447,-0.02764741,0.3169997,1.187172,-0.2642837,-0.4421749,1.141287,0.1976195,-0.4444034,1.102444,-0.03502041,-0.04651183,1.195511,-0.03932616,-0.3011255,1.177575,-0.205359,0.09729886,1.207931,-0.1058682,-0.2975294,1.155008,-0.2874862,-0.1523592,1.216715,0.2214641,-0.1446489,1.189388,NA,NA,Unknown,Unknown,
0.8891602,-0.3447266,-0.2182617,0.8964844,0.4125977,-0.1669922,0,-1,0,1,0,0,-2,0,-2,-1,0,-1,0,-1,-2,-1,18,18,18,3.125,3.125,3.125,1.634999,3.184534,9.820819,8.07791,3.22893,1.429401,-0.3111089,-0.456248,1.151859,0.2403658,-0.4417654,1.122958,-0.02770955,0.3170472,1.187132,-0.2643541,-0.4465476,1.141247,0.1950872,-0.4414583,1.095625,-0.03498614,-0.04650116,1.195377,-0.03927337,-0.3011373,1.17748,-0.2054316,0.09729174,1.207883,-0.1058082,-0.2975493,1.15486,-0.2874791,-0.1523738,1.216591,0.2213481,-0.1447573,1.189178,NA,NA,Unknown,NotTracked,
