ALX,ALY,ALZ,ARX,ARY,ARZ,EMG0L,EMG1L,EMG2L,EMG3L,EMG4L,EMG5L,EMG6L,EMG7L,EMG0R,EMG1R,EMG2R,EMG3R,EMG4R,EMG5R,EMG6R,EMG7R,GLX,GLY,GLZ,GRX,GRY,GRZ,ORL,OPL,OYL,ORR,OPR,OYR,LHNX,LHNY,LHNZ,RHNX,RHNY,RHNZ,HX,HY,HZ,LTX,LTY,LTZ,RTX,RTY,RTZ,SpineMidX,SpineMidY,SpineMidZ,SpineBaseX,SpineBaseY,SpineBaseZ,ShoulderLeftX,ShoulderLeftY,ShoulderLeftZ,ShoulderRightX,ShoulderRightY,ShoulderRightZ,ElbowLeftX,ElbowLeftY,ElbowLeftZ,ElbowRightX,ElbowRightY,ElbowRightZ,Myo_Pose_left,Myo_Pose_Right,Kinect_pose_left,Kinect_pose_right
0.9052734,-0.4135742,0.04345703,0.8828125,0.4116211,-0.03320313,-1,-3,0,0,-1,-2,-2,0,2,-1,-1,-1,-4,-1,1,-1,0.25,0.25,0.25,1.8125,1.8125,1.8125,2.627179,3.186882,8.051188,7.61455,3.20047,3.897317,-0.09119631,-0.4444952,1.129463,0.3003727,-0.4331769,1.085286,0.1109028,0.3724158,1.154452,-0.04701948,-0.4297237,1.097292,0.2560848,-0.4335102,1.067844,0.118414,-0.07468361,1.204053,0.1159203,-0.3903798,1.185766,-0.06139829,0.1096314,1.225354,0.03166331,-0.3790798,1.161763,-0.08608533,-0.1560203,1.235928,0.3282864,-0.1416689,1.183104,NA,NA,NotTracked,NotTracked,
0.9042969,-0.4111328,0.04248047,0.8798828,0.4125977,-0.03222656,0,-1,2,0,-1,1,-2,-2,-3,2,-2,0,-1,-1,-1,-2,-0.5,-0.5,-0.5,-0.4375,-0.4375,-0.4375,2.627834,3.186864,8.050534,7.615377,3.200814,3.898309,-0.08939625,-0.4425066,1.129233,0.3005915,-0.4329855,1.085412,0.1110216,0.3723486,1.154485,-0.04594312,-0.4436159,1.09025,0.2552765,-0.4181739,1.072407,0.1184714,-0.07467474,1.20412,0.1159567,-0.3903593,1.185791,-0.06128391,0.1096957,1.22547,0.03169554,-0.3790521,1.161767,-0.0858396,-0.1559862,1.235896,0.3283608,-0.1417166,1.183154,NA,NA,NotTracked,NotTracked,
0.9067383,-0.4057617,0.04101563,0.8803711,0.4082031,-0.02783203,0,0,-1,0,-2,0,-4,-1,1,2,-4,0,0,-2,0,-3,-2.375,-2.375,-2.375,-2.125,-2.125,-2.125,2.625963,3.186486,8.050673,7.614122,3.200505,3.897437,-0.08955146,-0.4428741,1.129407,0.3005519,-0.4333321,1.08587,0.1112183,0.3722576,1.15463,-0.04694235,-0.4431076,1.092032,0.2554695,-0.4221512,1.07148,0.1185896,-0.07466164,1.204219,0.1160309,-0.3903388,1.185848,-0.06115552,0.1097323,1.225466,0.03176575,-0.3790267,1.161817,-0.08563977,-0.1559427,1.236019,0.3284202,-0.1416819,1.183276,NA,NA,NotTracked,NotTracked,
0.9052734,-0.4135742,0.05322266,0.8803711,0.4101563,-0.03222656,0,-3,-1,0,2,1,-1,-2,-1,0,-1,-1,-2,-1,-3,0,-1.625,-1.625,-1.625,-2.125,-2.125,-2.125,2.625289,3.186481,8.049335,7.614119,3.200044,3.89613,-0.08946913,-0.4433085,1.12953,0.3007329,-0.4325901,1.085993,0.1113282,0.3722983,1.154701,-0.04589062,-0.4422994,1.091051,0.2549659,-0.431636,1.070045,0.1186347,-0.07465964,1.204276,0.1160419,-0.3903341,1.185865,-0.06109591,0.1097912,1.225559,0.03178477,-0.3790138,1.161849,-0.08558972,-0.1558914,1.236041,0.3284587,-0.1416893,1.183373,NA,NA,NotTracked,NotTracked,
0.9082031,-0.4091797,0.04492188,0.8798828,0.4150391,-0.03222656,-2,-2,2,0,0,0,-4,-1,-6,-2,0,-1,-3,-2,-4,-2,-0.75,-0.75,-0.75,-1.9375,-1.9375,-1.9375,2.625972,3.186326,8.04879,7.613771,3.199805,3.89438,-0.08964206,-0.4430961,1.129505,0.3000302,-0.4328962,1.086025,0.1114623,0.372296,1.154773,-0.04376009,-0.4269608,1.095278,0.2551956,-0.4257687,1.070614,0.1187409,-0.07464694,1.204345,0.116101,-0.3903348,1.185891,-0.06099827,0.1098035,1.22565,0.03184373,-0.3789977,1.161887,-0.08540391,-0.155885,1.236152,0.328575,-0.1417042,1.18348,NA,NA,NotTracked,NotTracked,
0.9067383,-0.4072266,0.04785156,0.8828125,0.4125977,-0.02783203,0,0,0,-1,4,1,-1,0,0,0,0,-1,0,1,0,2,-2.1875,-2.1875,-2.1875,-0.75,-0.75,-0.75,2.62541,3.185447,8.047844,7.613689,3.19946,3.892785,-0.08949915,-0.4431464,1.128966,0.3009159,-0.4325853,1.085835,0.1115704,0.3722681,1.154836,-0.04598172,-0.4367486,1.093784,0.2554337,-0.4302591,1.069133,0.1188127,-0.07466182,1.2044,0.1161366,-0.3903283,1.18591,-0.06094344,0.109813,1.225721,0.0318899,-0.3789735,1.16192,-0.08534726,-0.1558857,1.236134,0.3286353,-0.1417425,1.183565,NA,NA,NotTracked,NotTracked,
0.9086914,-0.4160156,0.04980469,0.8759766,0.4165039,-0.03125,0,1,-1,-1,-4,2,-5,-2,0,-1,0,-2,-3,-1,1,-3,-1.4375,-1.4375,-1.4375,0,0,0,2.625365,3.185611,8.04632,7.613176,3.200229,3.893073,-0.08952771,-0.442809,1.129382,0.3006416,-0.4327625,1.085905,0.1117414,0.3723007,1.154852,-0.04597737,-0.4323475,1.095553,0.2552647,-0.4266269,1.070435,0.1189051,-0.07466456,1.204438,0.1163149,-0.3903506,1.185938,-0.06084943,0.1097887,1.225701,0.03205147,-0.3789772,1.161968,-0.08529375,-0.1558949,1.23621,0.3287978,-0.1417794,1.183715,NA,NA,NotTracked,NotTracked,
0.9042969,-0.4150391,0.04101563,0.8803711,0.4145508,-0.02783203,-3,-3,-1,-1,1,-1,-2,-1,1,2,-2,-1,-1,-2,-1,-3,-0.125,-0.125,-0.125,0.6875,0.6875,0.6875,2.626021,3.185593,8.045666,7.613176,3.200229,3.893073,-0.08947577,-0.4424287,1.128649,0.3012194,-0.4334134,1.085998,0.1118106,0.3723196,1.154878,-0.04577845,-0.4363464,1.093463,0.2554212,-0.4276813,1.069792,0.1189984,-0.07466222,1.204429,0.1164103,-0.390352,1.185925,-0.06082408,0.1097781,1.225694,0.032151,-0.3789933,1.161923,-0.08534618,-0.1558971,1.236211,0.3288414,-0.1418076,1.183732,NA,NA,NotTracked,NotTracked,
0.9106445,-0.4091797,0.03857422,0.8808594,0.4116211,-0.02832031,-5,-1,-1,1,-4,-3,-2,-2,2,0,-1,-3,-1,0,3,1,-1.0625,-1.0625,-1.0625,0.4375,0.4375,0.4375,2.625416,3.185283,8.045963,7.613161,3.199976,3.893133,-0.089205,-0.4431801,1.128244,0.3011111,-0.4330685,1.085566,0.1119243,0.3723063,1.154864,-0.04541515,-0.4364336,1.092938,0.2555231,-0.4286876,1.069329,0.1190869,-0.07466774,1.204449,0.1164694,-0.3903434,1.185931,-0.06078659,0.1097817,1.225685,0.0322016,-0.3789811,1.161923,-0.08538227,-0.1558923,1.236153,0.3288687,-0.1418123,1.183748,NA,NA,NotTracked,NotTracked,
0.921875,-0.5,0.04736328,0.8779297,0.4111328,-0.03027344,-2,-2,-2,-2,1,-2,1,-8,1,-2,-1,-1,-1,0,0,-1,11.625,11.625,11.625,0.0625,0.0625,0.0625,2.634594,3.191629,8.043117,7.613161,3.199976,3.893133,-0.08973043,-0.44327,1.128178,0.3016863,-0.433353,1.085607,0.1119916,0.3722617,1.15481,-0.04595172,-0.4416129,1.09027,0.2561643,-0.4339126,1.0676,0.1190993,-0.07466954,1.204458,0.1164715,-0.3903441,1.185932,-0.06076162,0.1097846,1.225679,0.03220377,-0.3789806,1.161923,-0.08535941,-0.1558926,1.236118,0.328907,-0.1418463,1.183763,NA,NA,NotTracked,NotTracked,
1.092285,-0.4833984,0.04589844,0.9150391,0.4536133,-0.04541016,0,-1,0,-3,7,-5,5,0,-5,1,-2,2,0,-1,-2,-13,80.9375,80.9375,80.9375,2.375,2.375,2.375,2.742629,3.222377,8.003864,7.616863,3.201743,3.890934,-0.08947991,-0.4423063,1.128059,0.3009695,-0.4329933,1.085583,0.1120878,0.3722405,1.1548,-0.04577649,-0.4363809,1.093235,0.2555687,-0.4300454,1.068785,0.1192118,-0.07468835,1.204446,0.1165833,-0.3903588,1.185916,-0.06071487,0.1097584,1.225631,0.03230378,-0.378984,1.161898,-0.08533473,-0.1559113,1.236116,0.3289702,-0.1418629,1.183784,NA,NA,NotTracked,NotTracked,
1.16748,-0.3383789,0.03857422,0.9741211,0.5029297,-0.1196289,-3,-6,-32,-11,-11,3,-2,-2,-20,3,-11,-7,-8,-12,-25,-8,50.375,50.375,50.375,-29.6875,-29.6875,-29.6875,2.816958,3.240734,7.951467,7.566785,3.212875,3.928173,-0.0896502,-0.4424693,1.126135,0.300981,-0.4328017,1.084613,0.1121734,0.37221,1.15477,-0.04614441,-0.4378472,1.093295,0.2556012,-0.4288564,1.068521,0.1192383,-0.07468832,1.20444,0.1165918,-0.3903559,1.185911,-0.06065883,0.1097619,1.225585,0.03231492,-0.3789684,1.161887,-0.08533592,-0.155898,1.236112,0.3291003,-0.141856,1.183861,NA,NA,NotTracked,NotTracked,
1.087891,-0.5800781,0.2036133,1.126465,0.3457031,-0.02636719,-10,-3,-23,0,4,-10,-1,-5,3,-8,-2,-5,-2,-1,1,-3,-80.0625,-80.0625,-80.0625,7.1875,7.1875,7.1875,2.931494,3.332262,7.758502,7.450087,3.235236,4.042974,-0.08646292,-0.4357882,1.108501,0.2937287,-0.4254756,1.072536,0.1122793,0.372251,1.15475,-0.04240759,-0.4229494,1.094286,0.2548281,-0.4136645,1.056839,0.1193091,-0.07464888,1.204355,0.1165934,-0.3902891,1.185838,-0.06058649,0.1097611,1.225547,0.03229708,-0.3788432,1.161736,-0.08563166,-0.1557821,1.236768,0.3305097,-0.1415495,1.185433,NA,NA,NotTracked,NotTracked,
1.009277,-0.9282227,0.5883789,1.061035,0.7011719,0.009765625,-1,3,-3,10,1,-5,1,-6,4,2,0,-1,-8,2,-7,-5,-17.125,-17.125,-17.125,56.1875,56.1875,56.1875,3.095985,3.623949,7.43249,7.334348,3.313305,4.245251,-0.08071347,-0.4214591,1.08994,0.2839357,-0.4145794,1.06134,0.1122869,0.372259,1.154738,-0.03806444,-0.413935,1.08855,0.2436216,-0.4005507,1.046833,0.1192914,-0.07451208,1.204219,0.1165091,-0.3899229,1.185623,-0.0605981,0.1097799,1.225567,0.03212353,-0.3783778,1.161494,-0.08674323,-0.1554548,1.238417,0.3329526,-0.1408771,1.187671,NA,NA,NotTracked,NotTracked,
0.8061523,-0.8242188,0.4057617,0.9580078,0.7851563,0.1245117,-5,-1,-8,-2,-9,0,4,0,-1,-1,-4,3,3,2,1,-1,12.4375,12.4375,12.4375,32.5,32.5,32.5,3.179652,3.741248,7.328837,7.179427,3.455764,4.476326,-0.07059473,-0.397495,1.070177,0.2708623,-0.3980561,1.046491,0.1122684,0.3722649,1.1546,-0.04225634,-0.3852825,1.052161,0.2375008,-0.3715238,1.026714,0.1192437,-0.07421707,1.203808,0.1164723,-0.3891164,1.184851,-0.06065203,0.1098549,1.225601,0.03180455,-0.377386,1.160553,-0.09087913,-0.1505364,1.241538,0.3363127,-0.1366285,1.190651,NA,NA,NotTracked,NotTracked,
0.5893555,-0.6850586,0.5161133,0.8305664,0.8623047,0.2973633,-4,-3,-2,-4,8,3,-8,-1,-19,-5,-21,-1,-3,-1,-2,-4,-5.9375,-5.9375,-5.9375,20.8125,20.8125,20.8125,3.291165,3.976534,7.155299,7.054733,3.645578,4.665638,-0.05823815,-0.3550951,1.054577,0.2553541,-0.3597369,1.036108,0.112237,0.3723796,1.154399,-0.02799074,-0.3419544,1.036444,0.2133512,-0.339887,1.016565,0.1192328,-0.07387486,1.203215,0.1164032,-0.3882977,1.183597,-0.06069631,0.1100433,1.225715,0.0314711,-0.3769485,1.159488,-0.09416842,-0.1433351,1.243782,0.3418833,-0.1279298,1.193599,NA,NA,Unknown,NotTracked,
0.4003906,-0.6928711,0.4013672,0.6879883,0.8432617,0.2998047,-2,-1,22,1,0,7,13,-1,5,3,2,-1,1,2,4,1,-2.8125,-2.8125,-2.8125,9.3125,9.3125,9.3125,3.356749,4.217171,7.025245,7.004658,3.750019,4.741026,-0.02837624,-0.3193545,1.043888,0.2326966,-0.3268394,1.031462,0.1121067,0.3722747,1.154012,-0.02287436,-0.3068118,0.9905908,0.2027935,-0.2987807,1.003147,0.1193146,-0.07339169,1.202436,0.1167409,-0.3870807,1.181818,-0.06065692,0.110377,1.225766,0.03145013,-0.3761595,1.157762,-0.09949027,-0.1276458,1.24628,0.3458865,-0.1200183,1.194237,NA,NA,Unknown,NotTracked,
0.3833008,-0.6665039,0.4365234,0.5415039,0.6386719,0.309082,0,-2,9,2,-6,-4,-10,-9,-2,-3,-1,-1,-1,-1,-3,1,4.875,4.875,4.875,-19.5625,-19.5625,-19.5625,3.400171,4.447491,6.92698,6.872766,4.043483,4.901875,-0.004475432,-0.2873021,1.025539,0.2195766,-0.2894353,1.019754,0.1120205,0.3723034,1.153879,-0.02363506,-0.258206,0.9620646,0.1851478,-0.2592396,1.001241,0.1192873,-0.07330141,1.202347,0.1167013,-0.3869378,1.181673,-0.06064234,0.1109854,1.225937,0.03144005,-0.3761266,1.15769,-0.1008588,-0.121602,1.244882,0.3501718,-0.1114082,1.193772,NA,NA,Unknown,NotTracked,
0.3833008,-0.6665039,0.4365234,0.5415039,0.6386719,0.309082,0,-2,9,2,-6,-4,-10,-9,-2,-3,-1,-1,-1,-1,-3,1,4.875,4.875,4.875,-19.5625,-19.5625,-19.5625,3.400171,4.447491,6.92698,6.872766,4.043483,4.901875,0.004971728,-0.2484605,1.005113,0.2108559,-0.2620046,1.008797,0.1119452,0.3723432,1.153846,-0.01276228,-0.2166884,0.9472144,0.199993,-0.2368636,0.9563333,0.1192385,-0.07323536,1.202321,0.1165993,-0.3868822,1.181672,-0.0605524,0.1112987,1.22597,0.03144424,-0.3760978,1.15767,-0.1048962,-0.1102648,1.243162,0.3538189,-0.1051252,1.191256,NA,NA,Unknown,Unknown,
0.2944336,-0.7084961,0.4633789,0.4985352,0.6743164,0.3735352,1,-2,-2,-3,-7,-5,-5,2,-4,2,-4,0,-1,-6,-2,0,4.125,4.125,4.125,-5.5,-5.5,-5.5,3.422367,4.66647,6.855326,6.82162,4.233422,4.980835,0.01497226,-0.2125023,0.9842764,0.1954572,-0.2290452,0.998693,0.1118618,0.3723653,1.153816,-0.002012841,-0.1776847,0.9351999,0.1954818,-0.2042595,0.9402002,0.1191694,-0.07310789,1.202263,0.1165175,-0.3867629,1.181674,-0.06055266,0.1114483,1.226047,0.03151571,-0.3759796,1.157658,-0.1062311,-0.1026259,1.237751,0.3569067,-0.09878831,1.188601,NA,NA,NotTracked,Unknown,
0.1494141,-0.7163086,0.4550781,0.4301758,0.7075195,0.4018555,-1,-3,5,-2,-1,3,-17,-4,5,-2,1,-5,0,-2,0,-2,-9.125,-9.125,-9.125,-3.4375,-3.4375,-3.4375,3.422533,4.863251,6.81391,6.804862,4.326128,5.01332,0.02303297,-0.1788394,0.9722514,0.1468694,-0.195863,0.9901986,0.1117463,0.3724293,1.153853,0.00115947,-0.1450504,0.9336942,0.188908,-0.1703621,0.9369697,0.119164,-0.07291513,1.202292,0.1164988,-0.3864078,1.181769,-0.06054068,0.1114444,1.226082,0.03175281,-0.3755889,1.1578,-0.1055778,-0.09811527,1.233549,0.3619044,-0.08992662,1.184336,NA,NA,NotTracked,NotTracked,
0.04589844,-0.690918,0.4516602,0.3056641,0.7802734,0.3818359,-3,-1,-4,-2,-4,-3,5,5,-1,-2,2,2,-1,2,2,0,-3.25,-3.25,-3.25,-11.0625,-11.0625,-11.0625,3.419088,5.031508,6.788674,6.779931,4.508025,5.058464,0.0378134,-0.1443525,0.9586911,0.1919901,-0.169176,0.9915825,0.1116307,0.3724617,1.153888,0.08041757,-0.1742949,0.9959166,0.187315,-0.1418248,0.9368215,0.1191285,-0.07249654,1.202365,0.1164135,-0.3854749,1.182014,-0.06047998,0.1115244,1.22605,0.03189162,-0.3747445,1.158083,-0.120212,-0.1120541,1.208587,0.3619221,-0.08615012,1.18132,NA,NA,NotTracked,NotTracked,
0.002929688,-0.7641602,0.5239258,0.222168,0.7587891,0.3671875,-2,-2,0,1,0,5,-8,-3,-2,5,-6,-4,0,-1,-1,-2,-3,-3,-3,-20.9375,-20.9375,-20.9375,3.413878,5.160139,6.773866,6.763235,4.588856,5.077197,0.03916135,-0.1158563,0.9546539,0.1822655,-0.1487582,0.9928396,0.1113573,0.3726479,1.154173,0.08618136,-0.1175494,0.9905,0.192216,-0.1166282,0.9443487,0.119236,-0.07206395,1.202484,0.1166827,-0.38442,1.182267,-0.06048868,0.1115564,1.226092,0.03234508,-0.3738042,1.158285,-0.1229324,-0.1163182,1.191909,0.3625852,-0.08190451,1.176437,NA,NA,NotTracked,NotTracked,
-0.07470703,-0.7177734,0.5126953,0.06738281,0.6889648,0.4355469,-3,-3,-3,-2,-4,-2,0,-2,8,3,-1,-1,-2,-1,-1,1,13.1875,13.1875,13.1875,10.375,10.375,10.375,3.442521,5.323968,6.77014,6.721833,4.887722,5.135133,0.02571238,-0.06213153,0.9497433,0.1197742,-0.07781374,0.9534689,0.1105587,0.373264,1.155447,0.07291805,-0.09057992,0.932,0.16938,-0.1124172,0.935,0.1194325,-0.07100742,1.202872,0.1170765,-0.3827,1.182695,-0.06028067,0.1117062,1.226029,0.03319313,-0.371828,1.158304,-0.124902,-0.1231752,1.190694,0.3647404,-0.0741209,1.16395,NA,NA,NotTracked,NotTracked,
-0.1455078,-0.7407227,0.5317383,0.09765625,0.8017578,0.453125,-2,-2,2,0,0,-2,-1,-4,3,-1,2,-1,-1,-1,1,-1,0.5,0.5,0.5,8.9375,8.9375,8.9375,3.449869,5.364082,6.772136,6.740612,4.963136,5.150964,0.02689066,-0.05359761,0.9501083,0.1224831,-0.07219765,0.9543021,0.1102636,0.3734242,1.156219,0.07246687,-0.08266662,0.9378333,0.06395243,-0.04656066,0.9051,0.1194248,-0.0706818,1.203016,0.1171427,-0.3823256,1.182703,-0.06011859,0.1117978,1.22599,0.03339075,-0.3713435,1.158219,-0.1248291,-0.1237871,1.1902,0.3651839,-0.07303493,1.162639,NA,NA,NotTracked,NotTracked,
-0.2006836,-0.7978516,0.5610352,0.0703125,0.8452148,0.4677734,-1,0,4,2,1,-6,-8,-3,1,1,-3,-3,-1,0,0,-4,2.75,2.75,2.75,-0.625,-0.625,-0.625,3.452506,5.386048,6.771454,6.739176,4.975687,5.155153,0.02770005,-0.05147818,0.9521614,0.1251934,-0.06772582,0.9567931,0.1101076,0.3735269,1.15661,0.07816573,-0.07551971,0.9340001,0.06130084,-0.04573082,0.9061875,0.1194899,-0.07045488,1.203096,0.1172809,-0.3819915,1.182718,-0.05980598,0.1119692,1.225939,0.03366287,-0.3709081,1.158195,-0.1246616,-0.1247546,1.188644,0.3658183,-0.07232892,1.161486,NA,NA,NotTracked,NotTracked,
-0.2460938,-0.8022461,0.5629883,0.04638672,0.8491211,0.4975586,1,1,1,0,6,5,-3,-1,3,-4,-1,0,-1,-1,-1,-3,10.6875,10.6875,10.6875,-15.375,-15.375,-15.375,3.461637,5.397513,6.76875,6.723571,4.987038,5.165947,0.02783478,-0.0436086,0.9535231,0.1265554,-0.06483597,0.959539,0.1099529,0.373746,1.157126,0.07409067,-0.07071369,0.9328572,0.1620507,-0.08857188,0.9332632,0.1195809,-0.07022776,1.203185,0.1173901,-0.3816485,1.182683,-0.06313989,0.110952,1.229004,0.03389105,-0.3705786,1.158081,-0.1247366,-0.125045,1.18845,0.3659191,-0.07198278,1.160795,NA,NA,NotTracked,NotTracked,
-0.2719727,-0.7397461,0.5810547,-0.04052734,0.8564453,0.4619141,1,0,-3,-2,-4,-3,-5,-6,5,5,2,1,-1,0,2,-2,5.1875,5.1875,5.1875,-5.75,-5.75,-5.75,3.473282,5.404909,6.764555,6.702626,5.000761,5.168765,0.02858222,-0.04043695,0.956145,0.1282661,-0.06360111,0.9615685,0.109784,0.373919,1.157722,0.07106265,-0.07099453,0.9413001,0.1587218,-0.04056045,0.9377647,0.1196934,-0.07000262,1.203174,0.1175325,-0.381276,1.182584,-0.06484278,0.1104615,1.230804,0.03418491,-0.3701921,1.157937,-0.1249415,-0.125405,1.188894,0.3659152,-0.07194429,1.160491,NA,NA,NotTracked,NotTracked,
-0.2719727,-0.7397461,0.5810547,-0.04052734,0.8564453,0.4619141,1,0,-3,-2,-4,-3,-5,-6,0,0,-6,0,0,-5,-18,-2,5.1875,5.1875,5.1875,-5.75,-5.75,-5.75,3.473282,5.404909,6.764555,6.702626,5.000761,5.168765,0.03781871,-0.04351758,0.9591545,0.1295821,-0.06305024,0.9637886,0.1096255,0.3741982,1.15832,0.0911307,-0.06566204,0.9503334,0.1510414,-0.08120445,0.9338571,0.1197671,-0.06975265,1.203246,0.1176141,-0.3809046,1.182527,-0.06581967,0.1101457,1.231766,0.03436209,-0.3698529,1.157857,-0.125355,-0.1261593,1.192372,0.3659299,-0.07193948,1.160436,NA,NA,NotTracked,NotTracked,
-0.3110352,-0.8173828,0.5527344,-0.02929688,0.8803711,0.4711914,-7,-2,-3,-3,-3,0,-8,-4,-7,-3,0,0,1,2,3,-1,5.4375,5.4375,5.4375,-1.875,-1.875,-1.875,3.476602,5.415134,6.758386,6.701844,5.004922,5.166003,0.02711264,-0.04142996,0.9607759,0.124594,-0.06178811,0.9650608,0.1095404,0.3742829,1.158599,0.07336735,-0.0656043,0.9377001,0.1566788,-0.1008718,0.94415,0.1198423,-0.06958347,1.203277,0.1177178,-0.3806437,1.182494,-0.06667738,0.1099412,1.232583,0.03456686,-0.3696199,1.157839,-0.1254351,-0.1262269,1.19251,0.365875,-0.07202821,1.160357,NA,NA,NotTracked,NotTracked,
-0.3095703,-0.7954102,0.5625,-0.05126953,0.9003906,0.4677734,0,0,-4,1,1,2,2,2,4,0,4,0,0,0,4,0,8.0625,8.0625,8.0625,-2.25,-2.25,-2.25,3.481241,5.418527,6.759734,6.70089,5.011875,5.16082,0.04078393,-0.03883306,0.9613964,0.1248817,-0.06120368,0.9660443,0.1094797,0.3742239,1.158832,0.08323082,-0.06661963,0.9433901,0.1463777,-0.06119649,0.9338,0.1198778,-0.06947435,1.203287,0.1177966,-0.3804605,1.182431,-0.06725823,0.1097611,1.233248,0.03472869,-0.3694437,1.157715,-0.1242478,-0.1275819,1.190067,0.3658746,-0.07202781,1.160361,NA,NA,NotTracked,NotTracked,
-0.2807617,-0.7705078,0.5874023,-0.05273438,0.8950195,0.4594727,-1,-2,-9,-2,1,-1,0,1,2,1,-1,0,-2,-1,0,-2,3.25,3.25,3.25,2.6875,2.6875,2.6875,3.488838,5.420712,6.763235,6.704178,5.019539,5.15259,0.03232992,-0.03910277,0.962536,0.1252728,-0.06007735,0.9673749,0.109459,0.3742427,1.158925,0.06663438,-0.06594167,0.9473572,0.1431442,-0.080932,0.9362728,0.1199403,-0.06935971,1.203318,0.1179432,-0.3802797,1.182359,-0.06770211,0.1095554,1.233758,0.03493779,-0.3692829,1.157624,-0.1241862,-0.1276421,1.190696,0.3656254,-0.07199416,1.160327,NA,NA,NotTracked,NotTracked,
-0.2929688,-0.8139648,0.5454102,-0.04296875,0.9194336,0.4575195,0,0,5,-1,-5,-6,-8,-5,-1,-3,6,0,0,0,1,-1,0.875,0.875,0.875,1.3125,1.3125,1.3125,3.49121,5.425726,6.77025,6.70647,5.020396,5.15137,0.03239001,-0.03831137,0.9640262,0.1238469,-0.0598633,0.9678606,0.1093905,0.3742936,1.159251,0.07244539,-0.06644106,0.9469694,0.1488954,-0.07478935,0.9365715,0.1200198,-0.06924593,1.203326,0.1180814,-0.3801078,1.1823,-0.06796122,0.109445,1.234122,0.03513458,-0.3691454,1.157549,-0.1239377,-0.1280397,1.19053,0.3654384,-0.07203637,1.160299,NA,NA,NotTracked,NotTracked,
-0.2929688,-0.7939453,0.5625,-0.03808594,0.8837891,0.480957,0,0,-3,-1,-6,0,-3,-2,0,-1,0,-1,-2,0,2,2,1.5625,1.5625,1.5625,-2.75,-2.75,-2.75,3.492502,5.425756,6.773508,6.702876,5.019842,5.152951,0.03341647,-0.03743736,0.963727,0.12076,-0.05956758,0.9673749,0.109272,0.3743773,1.159706,0.07446873,-0.066955,0.9453369,0.1413595,-0.09794915,0.9465834,0.1202013,-0.06908011,1.203395,0.1183273,-0.3798599,1.182225,-0.06856313,0.1091539,1.234803,0.03547272,-0.3689556,1.157424,-0.1234519,-0.1290913,1.194003,0.3645117,-0.07229453,1.159791,NA,NA,NotTracked,NotTracked,
-0.2734375,-0.7851563,0.5693359,-0.02050781,0.8867188,0.4838867,-3,-1,-9,-2,0,-5,-4,-3,4,2,1,0,1,0,-4,1,-4.125,-4.125,-4.125,4.0625,4.0625,4.0625,3.494079,5.419975,6.77878,6.705836,5.019537,5.154005,0.02965646,-0.03773751,0.9648855,0.1204329,-0.05961308,0.9676257,0.1092322,0.3744437,1.159987,0.06813288,-0.0649943,0.9459698,0.1067302,-0.07018242,0.9834705,0.1203022,-0.06896576,1.203485,0.1184004,-0.3797376,1.182237,-0.06882142,0.1090111,1.235162,0.03558889,-0.3688508,1.157457,-0.1231388,-0.1292566,1.194369,0.3645134,-0.07227758,1.159817,NA,NA,NotTracked,NotTracked,
-0.2714844,-0.8359375,0.6049805,-0.0234375,0.902832,0.4829102,-1,-2,2,3,2,-1,1,1,-10,-3,-2,-3,-1,-2,-1,-2,-3.8125,-3.8125,-3.8125,5.125,5.125,5.125,3.489754,5.417663,6.781487,6.709031,5.019651,5.155088,0.03024264,-0.03827829,0.9639729,0.1210387,-0.06040122,0.9670358,0.109179,0.3744613,1.160165,0.07330953,-0.06656417,0.9450737,0.1384746,-0.09803095,0.9473333,0.1203826,-0.06888624,1.20353,0.1184689,-0.3796701,1.182243,-0.06899144,0.1089642,1.235434,0.03568901,-0.3687954,1.157457,-0.12302,-0.1289924,1.19496,0.3644485,-0.07228094,1.159857,NA,NA,NotTracked,NotTracked,
-0.2709961,-0.784668,0.5981445,-0.02636719,0.9033203,0.4853516,-1,-5,-1,-4,-4,-3,-4,1,0,2,-5,-2,-1,-2,-3,-2,6.1875,6.1875,6.1875,1.0625,1.0625,1.0625,3.496935,5.419832,6.783166,6.713772,5.022391,5.157345,0.02959164,-0.03910367,0.9637764,0.1198276,-0.06028044,0.9659881,0.1091176,0.3744694,1.160325,0.07236198,-0.06694245,0.946207,0.1023468,-0.07314951,0.9767777,0.1204409,-0.06880565,1.20356,0.1185272,-0.3795968,1.182232,-0.06912649,0.1089083,1.235663,0.03578501,-0.3687315,1.157438,-0.122961,-0.129503,1.196141,0.3643622,-0.07229891,1.159668,NA,NA,NotTracked,NotTracked,
-0.2832031,-0.7646484,0.5703125,-0.006347656,0.8930664,0.4853516,0,-1,0,-1,-4,2,2,2,1,0,-4,-1,0,0,-1,-2,-3,-3,-3,5.5625,5.5625,5.5625,3.498196,5.423053,6.785005,6.718257,5.024843,5.157847,0.03096297,-0.03867642,0.9643356,0.1194764,-0.05973763,0.9667997,0.1089766,0.3746267,1.160912,0.07197733,-0.06632127,0.945246,0.09250104,-0.06920859,0.9907144,0.1204806,-0.06867796,1.203647,0.118585,-0.3794571,1.18223,-0.06940912,0.1088221,1.236057,0.035897,-0.3686199,1.157472,-0.1222576,-0.1292378,1.195832,0.3643261,-0.07233889,1.15968,NA,NA,NotTracked,NotTracked,
-0.2646484,-0.796875,0.5786133,-0.01269531,0.890625,0.4819336,-3,-2,-3,-3,-2,-4,-1,-1,-1,-2,6,-1,-2,-1,-3,-4,-1.6875,-1.6875,-1.6875,6.25,6.25,6.25,3.496339,5.424037,6.78902,6.721519,5.026479,5.158271,0.031276,-0.03841527,0.9652354,0.1205622,-0.0593553,0.9670453,0.1089246,0.3746501,1.161158,0.06894852,-0.06745896,0.9512022,0.1229702,-0.04331807,0.9834706,0.1205242,-0.0685969,1.203706,0.1186111,-0.3793964,1.182237,-0.06950818,0.1087781,1.236258,0.03594628,-0.3685612,1.157456,-0.1222718,-0.1294164,1.195993,0.3642584,-0.07233164,1.159599,NA,NA,NotTracked,NotTracked,
-0.2832031,-0.7783203,0.5786133,-0.02636719,0.8808594,0.4711914,0,2,5,1,0,5,-1,-2,0,-3,-2,3,-1,-1,-4,1,-0.3125,-0.3125,-0.3125,1.9375,1.9375,1.9375,3.498121,5.42526,6.79193,6.725317,5.030726,5.161884,0.029112,-0.0383541,0.9644822,0.1196375,-0.05910208,0.9667414,0.1088604,0.3747284,1.161282,0.07323702,-0.06399491,0.94354,0.1200608,-0.05186485,0.9882731,0.1205319,-0.06853063,1.203724,0.1186043,-0.3793133,1.182227,-0.06961273,0.1087573,1.236437,0.03595681,-0.3685097,1.157459,-0.1222785,-0.1295948,1.196137,0.3642635,-0.07234178,1.159603,NA,NA,NotTracked,NotTracked,
-0.2700195,-0.796875,0.5776367,-0.02050781,0.8901367,0.4814453,-2,-2,-10,0,1,2,-4,-6,2,3,-4,-2,-3,-1,-4,-2,-3.5625,-3.5625,-3.5625,3.875,3.875,3.875,3.495506,5.42525,6.795452,6.727943,5.030358,5.164948,0.03000827,-0.03890964,0.9651459,0.1201279,-0.05930224,0.9667403,0.1087615,0.3746216,1.161508,0.06953953,-0.06564435,0.9484064,0.1274554,-0.04284623,0.9822308,0.1205369,-0.0685063,1.203749,0.1186203,-0.3792907,1.182219,-0.06967927,0.1087219,1.236512,0.03597901,-0.3684982,1.157449,-0.1222785,-0.1297356,1.196525,0.3642867,-0.07227091,1.159574,NA,NA,NotTracked,NotTracked,
-0.2680664,-0.8144531,0.5898438,-0.01806641,0.9042969,0.4858398,-1,0,2,-3,3,1,0,-1,-6,0,-5,-2,-1,-1,1,0,-1.125,-1.125,-1.125,4.25,4.25,4.25,3.495409,5.424621,6.796838,6.729808,5.030851,5.166231,0.02863783,-0.03914126,0.9654027,0.1189493,-0.05943733,0.9672485,0.1085999,0.3745956,1.16177,0.07069057,-0.06594309,0.9463614,0.1514796,-0.03714338,0.9413334,0.1205543,-0.06841928,1.203865,0.1186211,-0.3792428,1.182227,-0.06979267,0.108688,1.23672,0.03599551,-0.3684565,1.157466,-0.1222583,-0.1306162,1.197825,0.3642919,-0.0722779,1.159562,NA,NA,NotTracked,NotTracked,
-0.2890625,-0.7866211,0.5883789,-0.05224609,0.965332,0.4394531,-4,-4,1,-6,-5,1,1,-1,-1,-1,-3,0,0,1,0,0,4.5625,4.5625,4.5625,4.25,4.25,4.25,3.501358,5.427383,6.799875,6.740652,5.042551,5.169026,0.02824773,-0.03837769,0.9659742,0.1201873,-0.05907502,0.9672835,0.108452,0.3746548,1.16206,0.06702043,-0.06545579,0.9471929,0.1117762,-0.02972156,0.9349999,0.1205081,-0.06836948,1.203984,0.1186262,-0.3792387,1.182237,-0.06988505,0.1086414,1.236854,0.03600878,-0.3684573,1.157474,-0.1224328,-0.1306035,1.198086,0.3643223,-0.07229063,1.1595,NA,NA,NotTracked,NotTracked,
-0.2988281,-0.7880859,0.5649414,-0.05224609,0.965332,0.4394531,-3,-2,0,-1,-2,-3,5,-2,-1,-1,-3,0,0,1,0,0,1.9375,1.9375,1.9375,4.25,4.25,4.25,3.502488,5.430644,6.801205,6.740652,5.042551,5.169026,0.02823618,-0.03920654,0.9647921,0.1188497,-0.05739687,0.9665866,0.1082476,0.3747553,1.162335,0.07109248,-0.06649885,0.9472606,0.1513275,-0.07220414,0.9363334,0.1204801,-0.06833345,1.203978,0.1186068,-0.3791859,1.182191,-0.06999713,0.1085967,1.236984,0.03600947,-0.3684376,1.157454,-0.1224138,-0.1307397,1.197658,0.3643246,-0.07225834,1.159364,NA,NA,NotTracked,NotTracked,
-0.2998047,-0.8129883,0.5795898,-0.09667969,1.066406,0.3896484,0,0,2,3,4,-7,-2,0,-3,-2,3,-3,-1,2,-4,0,-1.25,-1.25,-1.25,15.1875,15.1875,15.1875,3.501904,5.438962,6.805583,6.761086,5.067613,5.17106,0.02656421,-0.03788165,0.9663395,0.1206426,-0.054123,0.9673322,0.1079741,0.3749031,1.162895,0.0683353,-0.06473365,0.9491201,0.05603596,-0.02879195,0.921,0.1204477,-0.06827776,1.20404,0.1185728,-0.3791329,1.182203,-0.07011567,0.1085593,1.237145,0.03599841,-0.3684081,1.157471,-0.1234502,-0.1280751,1.201305,0.3646354,-0.07220981,1.159039,NA,NA,NotTracked,NotTracked,
-0.3061523,-0.8144531,0.5869141,-0.2006836,1.220215,0.3422852,1,-1,-8,-2,-6,1,3,4,5,2,-4,2,3,3,-2,0,0.1875,0.1875,0.1875,26.3125,26.3125,26.3125,3.502044,5.44284,6.806858,6.804462,5.124363,5.17783,0.02572076,-0.03532911,0.9652396,0.1184542,-0.04679285,0.9670699,0.1076822,0.3748678,1.163212,0.06942241,-0.06440225,0.9480438,0.1608082,-0.02182344,0.942,0.1204037,-0.06822181,1.204049,0.1185386,-0.3790623,1.182159,-0.07024435,0.1085286,1.237295,0.03599437,-0.3683889,1.157454,-0.123675,-0.1290246,1.199644,0.3653461,-0.07160209,1.157237,NA,NA,NotTracked,NotTracked,
-0.300293,-0.8017578,0.5668945,-0.359375,1.293945,0.3696289,-2,2,4,-1,-2,-2,-2,1,0,-3,-3,0,-2,-4,-1,1,-2.875,-2.875,-2.875,34.8125,34.8125,34.8125,3.499868,5.453661,6.806067,6.860051,5.237675,5.193075,0.02488648,-0.03513757,0.9666009,0.1138862,-0.03843631,0.9671638,0.1073295,0.3750473,1.163731,0.06659863,-0.06321549,0.9493145,0.1391435,-0.007751734,0.9594231,0.1203752,-0.06813215,1.204106,0.1185128,-0.3789586,1.182114,-0.07039134,0.1085168,1.237481,0.03600008,-0.3683554,1.157449,-0.1237429,-0.1293254,1.19922,0.3657969,-0.07127226,1.152108,NA,NA,NotTracked,NotTracked,
-0.3046875,-0.7885742,0.5722656,-0.4711914,1.222168,0.3876953,-2,-2,-2,1,1,-3,-2,-5,-3,2,5,1,0,1,3,-3,-3.9375,-3.9375,-3.9375,28.1875,28.1875,28.1875,3.494598,5.462573,6.80094,6.877825,5.317572,5.198951,0.0231274,-0.03328277,0.965841,0.06229152,-0.0290977,0.9636767,0.1070158,0.3752306,1.164235,0.06585705,-0.06134536,0.9476168,0.02980147,-0.003854017,0.9429231,0.1203365,-0.06802129,1.204243,0.118484,-0.3788889,1.182128,-0.07057607,0.1084932,1.237619,0.03598773,-0.3683343,1.15754,-0.124344,-0.1287335,1.199114,0.3686298,-0.06930344,1.139629,NA,NA,NotTracked,NotTracked,
-0.3120117,-0.7680664,0.5888672,-0.6513672,0.777832,0.4038086,-2,1,8,1,3,-1,-3,0,-3,-9,5,11,10,4,-35,0,-6.6875,-6.6875,-6.6875,56.3125,56.3125,56.3125,3.487534,5.475652,6.794318,6.953969,5.637339,5.196729,0.03233906,-0.03126604,0.9647679,0.1775483,0.05869684,0.9627333,0.1058578,0.3750659,1.166088,0.07550465,-0.05874778,0.9540001,0.1433661,0.04886432,1.020214,0.1199828,-0.06768679,1.204443,0.1183393,-0.3790017,1.182116,-0.07081026,0.1085583,1.237794,0.03559918,-0.3688682,1.158304,-0.124802,-0.1306572,1.197451,0.3635118,-0.06640556,1.096312,NA,NA,NotTracked,NotTracked,
-0.3198242,-0.7788086,0.5908203,-0.6513672,0.777832,0.4038086,0,-1,2,0,-2,-4,-12,-4,-5,-3,-6,-10,-5,-12,-4,-8,-3.875,-3.875,-3.875,56.3125,56.3125,56.3125,3.482535,5.491546,6.789323,6.953969,5.637339,5.196729,0.03259607,-0.02946085,0.9635687,0.1884031,0.08427,0.9447515,0.1051941,0.3750654,1.166712,0.07438418,-0.05682443,0.951923,0.2014148,0.1073808,0.9505556,0.1197764,-0.06765195,1.204535,0.118196,-0.3794435,1.182111,-0.06746507,0.109759,1.235326,0.03505955,-0.3697237,1.159568,-0.1255365,-0.1299214,1.197036,0.3599216,-0.06262562,1.07831,NA,NA,NotTracked,NotTracked,
-0.315918,-0.7578125,0.5844727,-0.4882813,0.5063477,0.2890625,-2,-3,2,-1,0,-2,0,-5,5,-4,5,4,5,-3,-13,1,0.4375,0.4375,0.4375,26.375,26.375,26.375,3.48428,5.506723,6.788428,6.997648,5.913217,5.127327,0.03237837,-0.02711384,0.9647784,0.1919348,0.1026068,0.9294447,0.1046176,0.3755264,1.167418,0.07793166,-0.05929327,0.9757,0.2060962,0.1250598,0.9158499,0.1189678,-0.06777856,1.20485,0.1180429,-0.379722,1.182214,-0.06814137,0.1096456,1.235799,0.03461295,-0.3702904,1.160728,-0.1259333,-0.1299012,1.19672,0.3555594,-0.05800558,1.064498,NA,NA,Closed,NotTracked,
-0.3256836,-0.7578125,0.5766602,-0.3535156,0.3803711,0.2705078,-1,-2,0,2,-1,-3,1,-5,1,4,-2,-7,-30,-5,-4,1,1.625,1.625,1.625,-24.5625,-24.5625,-24.5625,3.48667,5.514837,6.789137,6.934486,5.967704,5.052455,0.03266507,-0.02447004,0.9648476,0.1905741,0.1099031,0.9065392,0.1038736,0.3758592,1.168415,0.07644864,-0.05577901,0.9682162,0.2013633,0.1363889,0.9013572,0.1184017,-0.06788718,1.205133,0.117713,-0.3805451,1.18262,-0.06675528,0.1105653,1.234928,0.03388427,-0.3712044,1.162201,-0.1267111,-0.1291112,1.195618,0.3504129,-0.05492375,1.049008,NA,NA,Closed,Unknown,
-0.3271484,-0.7524414,0.5415039,0.05712891,0.1425781,0.2714844,-1,-3,-8,-5,-2,-3,-3,0,11,4,-3,-14,10,-6,8,-1,2.9375,2.9375,2.9375,20.375,20.375,20.375,3.494494,5.533674,6.800756,6.828142,5.822735,4.905525,0.03263737,-0.02201379,0.9638969,0.1863643,0.09781417,0.8759462,0.1033561,0.3760654,1.169216,0.07573493,-0.05176662,0.9606885,0.1976782,0.1295497,0.8500589,0.1176564,-0.06840651,1.205578,0.1177174,-0.3813932,1.182941,-0.06624191,0.1107489,1.23463,0.03375578,-0.3719526,1.162944,-0.1268617,-0.1286425,1.195104,0.3425889,-0.05227132,1.028994,NA,NA,Closed,Unknown,
-0.3183594,-0.7338867,0.5219727,0.1489258,0.1586914,0.2514648,0,0,-4,-2,3,1,-1,-3,-7,0,-1,1,-52,5,-10,-10,0.25,0.25,0.25,58.375,58.375,58.375,3.499627,5.538288,6.814615,6.843714,5.716357,4.872032,0.0350069,-0.02028534,0.9609879,0.1638934,0.01435316,0.8129537,0.1028565,0.376208,1.171603,0.1040908,-0.04508027,1.02525,0.1461566,-0.003991918,0.78885,0.1175561,-0.06836259,1.20612,0.1179963,-0.3823242,1.183715,-0.06723505,0.1098233,1.235372,0.03398972,-0.3729464,1.163697,-0.1272251,-0.1275876,1.192148,0.335805,-0.05429424,1.015661,NA,NA,NotTracked,Unknown,
-0.3061523,-0.7568359,0.5273438,0.7827148,0.9570313,0.2641602,0,-2,-10,0,3,-2,3,1,2,-3,-4,-3,1,0,-2,3,-4.25,-4.25,-4.25,118.5625,118.5625,118.5625,3.499269,5.53668,6.82262,7.035672,5.274292,4.847978,0.02978117,-0.02008354,0.9584554,0.1692395,-0.05482548,0.8125578,0.1022443,0.3768649,1.172564,0.08492373,-0.03345218,0.972,0.120423,-0.04840475,0.8336667,0.1172176,-0.06735817,1.206828,0.1179907,-0.3802517,1.184724,-0.06840832,0.1095843,1.236244,0.03437647,-0.3709385,1.163946,-0.1262052,-0.1284905,1.187918,0.3366054,-0.03242761,1.056504,NA,NA,NotTracked,Unknown,
-0.2700195,-0.8203125,0.5854492,1.068359,1.096191,0.4379883,-1,-2,8,0,-4,-1,6,4,3,4,-3,2,20,6,-2,4,-16.4375,-16.4375,-16.4375,86.625,86.625,86.625,3.486649,5.519569,6.853675,7.140961,4.95087,4.917892,0.02910694,-0.0217004,0.9562925,0.1684131,-0.1116363,0.8295214,0.1012838,0.3774275,1.173598,0.06880799,-0.05561383,0.9577273,0.129989,-0.1358496,0.8354999,0.1170951,-0.06689816,1.207346,0.1180968,-0.3792669,1.184951,-0.06926261,0.1093293,1.236952,0.03469623,-0.3698831,1.163853,-0.1263926,-0.1284543,1.187884,0.3401873,-0.03930227,1.065378,NA,NA,Closed,Unknown,
-0.2236328,-0.7905273,0.5600586,1.192871,1.382813,0.5556641,-1,-1,0,2,0,1,0,-3,1,-3,10,3,-11,3,-4,2,-14.875,-14.875,-14.875,72.4375,72.4375,72.4375,3.47887,5.494087,6.879738,7.175827,4.830603,4.962007,0.02793187,-0.02401912,0.9533201,0.155553,-0.1496899,0.8617222,0.1001772,0.3777361,1.174237,0.06986376,-0.0536813,0.9474445,0.1366809,-0.190762,0.8658751,0.116798,-0.06667365,1.207727,0.1179778,-0.3790528,1.185022,-0.06834983,0.1101969,1.23682,0.03473252,-0.3694996,1.163773,-0.1260616,-0.1289938,1.188381,0.353082,-0.04765364,1.097075,NA,NA,Closed,Unknown,
-0.2338867,-0.800293,0.5668945,0.2949219,1.768066,0.3349609,1,-3,3,0,-5,-1,1,3,0,0,4,10,16,5,-1,-2,-12.5625,-12.5625,-12.5625,-43.6875,-43.6875,-43.6875,3.475969,5.47991,6.893048,7.141069,4.622155,5.136406,0.02567202,-0.02766575,0.9516542,0.1568796,-0.1673881,0.9033084,0.09887771,0.378071,1.174549,0.06713333,-0.05631895,0.9450909,0.145711,-0.2118434,0.9004444,0.1163917,-0.066409,1.208089,0.1177942,-0.3788485,1.185165,-0.06762338,0.1110411,1.237152,0.0347203,-0.3693018,1.163777,-0.1255832,-0.1293483,1.18794,0.3565667,-0.05134287,1.103441,NA,NA,NotTracked,Unknown,
-0.3046875,-0.7783203,0.6113281,0.2949219,1.768066,0.3349609,0,-1,1,1,1,-5,1,-1,1,-1,5,4,-9,-5,-9,-3,3.75,3.75,3.75,-43.6875,-43.6875,-43.6875,3.488593,5.438353,6.928596,7.141069,4.622155,5.136406,0.02059392,-0.03711238,0.9506742,0.1520142,-0.1631081,0.9713489,0.09640253,0.3784579,1.174329,0.07127634,-0.06753775,0.9585715,0.1656562,-0.1718293,0.9340388,0.1160454,-0.06618232,1.208142,0.1172246,-0.3784098,1.185242,-0.06700593,0.1116876,1.237497,0.03448799,-0.3689592,1.163767,-0.126226,-0.1296923,1.188188,0.3630481,-0.06090912,1.118086,NA,NA,NotTracked,NotTracked,
-0.3046875,-0.7705078,0.5908203,-0.1962891,1.572266,0.1469727,-1,-1,-2,-1,-3,-2,-1,-1,4,-13,13,0,-2,-3,-10,3,3.0625,3.0625,3.0625,-77.5625,-77.5625,-77.5625,3.499349,5.414686,6.942673,7.010028,4.67857,5.268698,0.01823643,-0.04189095,0.950534,0.1256137,-0.1315539,0.9905488,0.0953202,0.3783913,1.173722,0.06579286,-0.07616653,0.9494616,0.1528967,-0.1203578,0.9464762,0.1159361,-0.06605481,1.208051,0.1169903,-0.3780899,1.18512,-0.06688806,0.111733,1.237525,0.03436918,-0.3686667,1.163611,-0.13429,-0.1420174,1.209883,0.363709,-0.06099885,1.120773,NA,NA,NotTracked,NotTracked,
-0.2958984,-0.7817383,0.5854492,-0.4047852,1.192383,0.1523438,-1,-1,-5,2,-3,-4,-1,0,-3,-4,-1,-2,-6,1,3,-1,1.6875,1.6875,1.6875,-29.125,-29.125,-29.125,3.501667,5.405748,6.945768,6.951116,4.904148,5.333462,0.04084252,-0.06018549,0.9636071,0.1515171,-0.1149821,1.000825,0.09483057,0.3782349,1.173122,0.1062812,-0.1072121,0.9731227,0.1461715,-0.1688072,1.040214,0.1157462,-0.06596512,1.208036,0.1168105,-0.3779851,1.185063,-0.06679852,0.1117709,1.237506,0.0341698,-0.3684908,1.163373,-0.1200122,-0.1313464,1.145185,0.3653458,-0.06095534,1.123066,NA,NA,NotTracked,NotTracked,
-0.3022461,-0.7954102,0.6171875,-0.3515625,0.8842773,0.2099609,2,-1,-13,-3,-3,2,4,3,3,5,-2,-3,-4,1,-1,-2,9.125,9.125,9.125,-19.125,-19.125,-19.125,3.510596,5.390713,6.940417,6.931725,5.08379,5.327229,0.007903371,-0.04745485,0.9513118,0.1030326,-0.07394949,0.9700506,0.09451699,0.3781339,1.172683,0.04690786,-0.07470493,0.92875,0.09814703,-0.07736223,0.9974999,0.1156477,-0.06596217,1.207942,0.1165306,-0.3779741,1.184981,-0.06666608,0.1117636,1.237358,0.03392861,-0.368409,1.163262,-0.1297888,-0.1348389,1.209353,0.3671054,-0.06003699,1.124463,NA,NA,NotTracked,NotTracked,
-0.3012695,-0.7905273,0.5898438,-0.293457,0.7446289,0.2304688,1,1,-2,-3,-4,-6,-1,1,-3,2,-1,0,-3,17,8,0,9.1875,9.1875,9.1875,-19.4375,-19.4375,-19.4375,3.518762,5.390841,6.927539,6.920206,5.167601,5.312316,0.007499844,-0.04922122,0.9525681,0.04949249,-0.0462154,0.9601378,0.09437107,0.3780599,1.172361,0.04616097,-0.07595246,0.9298223,0.01891785,-0.0182586,0.9516667,0.1155906,-0.06595943,1.20787,0.1163233,-0.3778991,1.184845,-0.06823939,0.1110444,1.238047,0.03380435,-0.3683401,1.163116,-0.1281694,-0.1349382,1.195472,0.3675939,-0.0599405,1.124161,NA,NA,NotTracked,NotTracked,
-0.265625,-0.796875,0.6005859,-0.1606445,0.5439453,0.3447266,-2,-2,1,-2,-1,1,-8,-5,1,2,-2,-3,1,2,4,-2,5.5,5.5,5.5,0.5,0.5,0.5,3.522722,5.393645,6.914835,6.889549,5.349357,5.232304,0.01760833,-0.05161028,0.9551603,0.1270229,-0.02666685,0.9511976,0.09429926,0.3779481,1.171946,0.06809727,-0.08061074,0.9577001,0.1522764,-0.01723534,0.9139605,0.1154661,-0.06596319,1.207851,0.1161159,-0.3778655,1.184837,-0.06903898,0.1104348,1.238122,0.03369393,-0.368311,1.16312,-0.1279734,-0.1248609,1.1999,0.3652511,-0.06027672,1.114186,NA,NA,NotTracked,NotTracked,
-0.2460938,-0.8032227,0.5864258,-0.1606445,0.5439453,0.3447266,-1,-2,-4,-4,3,-4,0,-2,0,-5,-1,2,1,-4,-6,1,4.75,4.75,4.75,0.5,0.5,0.5,3.524821,5.395309,6.904224,6.889549,5.349357,5.232304,0.009752466,-0.05074986,0.9562157,0.03255289,-0.04457697,0.9495832,0.09430332,0.3779324,1.171892,0.03942298,-0.07847619,0.9351667,0.08100476,0.02386019,0.93725,0.1154314,-0.06597014,1.207867,0.116056,-0.3778495,1.184827,-0.07002021,0.1098466,1.238646,0.03367149,-0.3683103,1.163106,-0.1279292,-0.125178,1.19121,0.36334,-0.06089604,1.10933,NA,NA,NotTracked,NotTracked,
-0.2294922,-0.7890625,0.5727539,-0.04589844,0.6342773,0.4003906,1,0,2,2,5,0,-3,-1,-1,2,-2,-1,1,-1,2,-4,4.125,4.125,4.125,18.75,18.75,18.75,3.526851,5.393358,6.898248,6.880877,5.389256,5.170002,0.01062759,-0.05159518,0.9572743,0.1424716,-0.01810349,0.9290976,0.0943079,0.3779079,1.171839,0.05245129,-0.07807613,0.9338566,0.1251861,0.01790159,0.9064287,0.1154137,-0.06597849,1.207852,0.1159675,-0.3777995,1.184727,-0.07067955,0.1094957,1.238874,0.03363024,-0.3683004,1.163038,-0.1273898,-0.1271944,1.190163,0.3616344,-0.06168297,1.106414,NA,NA,NotTracked,NotTracked,
-0.1972656,-0.7514648,0.5629883,0.1318359,0.8339844,0.4633789,0,-1,0,-3,-3,-1,-1,-2,2,-1,-2,0,-1,-2,-2,0,-1.875,-1.875,-1.875,1.6875,1.6875,1.6875,3.527086,5.381319,6.900662,6.87527,5.302778,5.076414,0.009738162,-0.05175027,0.958417,0.1329153,-0.02767381,0.9279366,0.09431528,0.377903,1.171831,0.04912821,-0.07850282,0.9366584,0.1299706,0.01062738,0.9056443,0.1154123,-0.06597913,1.207849,0.1159023,-0.3777585,1.184623,-0.06978209,0.1097955,1.238158,0.03359089,-0.368262,1.162949,-0.1282559,-0.1109249,1.207255,0.3741391,-0.07721351,1.094474,NA,NA,NotTracked,NotTracked,
-0.1621094,-0.6860352,0.5332031,0.02001953,0.8613281,0.4296875,-1,-1,3,-1,-1,-3,-1,0,-2,4,-1,0,-2,-1,-2,0,-4.875,-4.875,-4.875,-33.6875,-33.6875,-33.6875,3.52613,5.346743,6.913268,6.840338,5.215608,5.063237,0.01015684,-0.05369844,0.9592742,0.1355884,-0.03853181,0.9259275,0.09432246,0.377897,1.171831,0.04618657,-0.08167426,0.9433575,0.1324135,-0.00290609,0.896923,0.1153841,-0.06597979,1.207827,0.1158722,-0.3777549,1.184442,-0.06910894,0.1097458,1.237476,0.03357307,-0.3682323,1.162641,-0.1257376,-0.129481,1.194231,0.3755875,-0.08026676,1.092616,NA,NA,NotTracked,NotTracked,
-0.1635742,-0.6425781,0.4873047,0.009277344,0.8354492,0.4243164,-3,1,7,0,-3,-2,-3,3,1,-4,-3,0,-1,-1,0,1,-5.8125,-5.8125,-5.8125,-43.0625,-43.0625,-43.0625,3.52507,5.315201,6.923402,6.814365,5.164233,5.059379,0.09253605,-0.06547537,0.9365078,0.131679,-0.0691161,0.9280853,0.09434537,0.3778517,1.171843,0.08555133,-0.1026568,0.9555555,0.1566467,-0.0958699,0.89225,0.1153108,-0.06602328,1.207741,0.1156676,-0.377756,1.183895,-0.0685629,0.10975,1.237013,0.0333266,-0.3681125,1.16161,-0.1076528,-0.08992226,1.212358,0.3781617,-0.08716816,1.095188,NA,NA,NotTracked,NotTracked,
-0.06591797,-0.5668945,0.40625,-0.02734375,0.7211914,0.4038086,-1,0,2,0,2,0,0,0,-1,-2,-1,1,-2,-3,0,0,-10,-10,-10,-21.3125,-21.3125,-21.3125,3.51923,5.202818,6.952027,6.755265,4.989275,5.029669,0.1096375,-0.08650837,0.9353913,0.1202449,-0.08993929,0.9330604,0.09438482,0.3778477,1.171756,0.1331887,-0.1137247,0.9107693,0.1343429,-0.07927519,0.8932307,0.115263,-0.06605104,1.20763,0.115584,-0.3778709,1.183314,-0.06830098,0.1095539,1.236634,0.03311838,-0.3681962,1.160628,-0.1070553,-0.08917972,1.212589,0.3756801,-0.0947571,1.091676,NA,NA,NotTracked,NotTracked,
-0.02050781,-0.5742188,0.2719727,0.001953125,0.6079102,0.324707,-3,-2,-1,-3,-1,-5,-1,-3,-1,-1,-1,-1,-2,-2,-4,-4,-25.1875,-25.1875,-25.1875,11.5625,11.5625,11.5625,3.491153,4.919306,7.026479,6.760745,4.830842,4.972041,0.02452968,-0.1100959,0.9478211,0.1662488,-0.1283053,0.9313654,0.09451566,0.3776185,1.171237,0.06654767,-0.133575,0.9453079,0.1665888,-0.09941107,0.9025001,0.1151518,-0.06607684,1.207286,0.1153111,-0.3777588,1.182398,-0.06786592,0.1095009,1.236271,0.03272441,-0.368162,1.159558,-0.1150161,-0.1012535,1.214341,0.3902797,-0.0923681,1.127274,NA,NA,NotTracked,NotTracked,
0.1518555,-0.6489258,0.4140625,0.05175781,0.6044922,0.2592773,-1,0,-3,-1,0,-4,-1,0,0,-5,-2,10,2,10,-3,-1,-47.4375,-47.4375,-47.4375,25.625,25.625,25.625,3.429652,4.673906,7.109171,6.780671,4.73226,4.933658,0.01606737,-0.1503765,0.9562553,0.191072,-0.1704091,0.9488475,0.09469399,0.3775128,1.170823,0.05095476,-0.1985614,0.9907692,0.1830788,-0.1499569,0.9013104,0.1151177,-0.06618045,1.207069,0.1150043,-0.378086,1.181686,-0.06694455,0.1093231,1.235677,0.03245899,-0.3684207,1.158982,-0.1062353,-0.09261244,1.221982,0.3475064,-0.07167477,1.164888,NA,NA,NotTracked,NotTracked,
0.3632813,-0.9301758,0.5488281,0.3447266,0.8774414,0.3041992,0,-2,-1,0,-3,1,-1,0,5,-1,0,-3,2,-6,0,3,-21,-21,-21,3.125,3.125,3.125,3.359084,4.397377,7.215761,6.852357,4.376361,4.83377,0.005233132,-0.1944833,0.9612769,0.1487959,-0.2196763,0.9696012,0.09493779,0.3774117,1.170522,0.05073801,-0.2104045,0.9994001,0.1737774,-0.2224254,0.9026667,0.1150032,-0.06638818,1.206743,0.1144446,-0.3786785,1.180883,-0.06831574,0.1087487,1.236563,0.03209671,-0.3690294,1.15819,-0.1117613,-0.1052298,1.227353,0.3462205,-0.07726374,1.166214,NA,NA,NotTracked,NotTracked,
0.6274414,-0.7495117,0.5307617,0.4614258,0.8613281,0.340332,0,-4,-1,-4,0,1,-7,-3,7,3,-2,-6,-2,-1,2,11,66.875,66.875,66.875,73.625,73.625,73.625,3.365524,4.122286,7.323816,6.946172,4.1379,4.750439,-0.009372225,-0.240897,0.9795545,0.20218,-0.2543873,0.9773754,0.09530133,0.3772378,1.170152,0.02784938,-0.3062184,0.9899999,0.2378885,-0.2964091,0.9674287,0.114955,-0.06684884,1.206123,0.1140736,-0.3799532,1.179255,-0.0676334,0.1089478,1.235801,0.03178098,-0.3702851,1.156647,-0.1127753,-0.1117184,1.232934,0.3688351,-0.1072224,1.159133,NA,NA,NotTracked,Unknown,
0.7749023,-0.5986328,0.4267578,0.7631836,1.060059,0.3886719,0,-1,-2,0,0,3,-6,1,3,-3,4,-1,-2,0,-1,-6,-28.875,-28.875,-28.875,81.75,81.75,81.75,3.2932,3.871946,7.464054,7.016572,4.023865,4.703559,-0.03711305,-0.3341058,1.025384,0.2320786,-0.3378942,1.010614,0.09648383,0.3768796,1.169026,0.01235285,-0.3522291,1.049631,0.2632348,-0.321954,0.9708981,0.114925,-0.06765305,1.203893,0.1140929,-0.3814803,1.174627,-0.06631598,0.1088638,1.233965,0.03047736,-0.3724125,1.152235,-0.09800869,-0.1175462,1.235528,0.3474581,-0.1099637,1.171806,NA,NA,Unknown,Unknown,
1.00293,-1.024902,0.4697266,0.7553711,0.7338867,0.1508789,-3,-3,-2,-4,-5,-9,1,-10,-2,-2,-3,0,-3,3,-1,-4,0.0625,0.0625,0.0625,-22.9375,-22.9375,-22.9375,3.170654,3.657935,7.599003,7.082347,3.719984,4.583872,-0.06420243,-0.3693093,1.030855,0.2552509,-0.3665507,1.012082,0.09726237,0.3767594,1.168201,-0.0408004,-0.3991638,1.039833,0.2826709,-0.3708273,0.9835199,0.1149303,-0.06780394,1.203354,0.1140295,-0.3815904,1.174162,-0.06591709,0.1088739,1.233242,0.03018568,-0.3725459,1.151797,-0.09439923,-0.1239638,1.236987,0.3445281,-0.1148177,1.174508,NA,NA,Unknown,Unknown,
0.9897461,-0.6118164,0.293457,0.8999023,0.7104492,0.2124023,-1,-4,0,1,1,-2,-5,-1,-4,-3,4,10,-1,2,-1,1,85.125,85.125,85.125,30.5,30.5,30.5,3.13451,3.486905,7.751659,7.179614,3.554348,4.479318,-0.07579485,-0.3944629,1.053152,0.2664854,-0.3877344,1.025378,0.09826246,0.3765489,1.166783,-0.04003263,-0.4026369,1.037393,0.2881079,-0.3969668,0.9927813,0.1149428,-0.06808373,1.202879,0.1139051,-0.3817434,1.173999,-0.06560928,0.1085113,1.232206,0.02996209,-0.3726008,1.151656,-0.09148357,-0.1312553,1.237136,0.3415108,-0.1201304,1.175573,NA,NA,Unknown,NotTracked,
