ALX,ALY,ALZ,ARX,ARY,ARZ,EMG0L,EMG1L,EMG2L,EMG3L,EMG4L,EMG5L,EMG6L,EMG7L,EMG0R,EMG1R,EMG2R,EMG3R,EMG4R,EMG5R,EMG6R,EMG7R,GLX,GLY,GLZ,GRX,GRY,GRZ,ORL,OPL,OYL,ORR,OPR,OYR,LHNX,LHNY,LHNZ,RHNX,RHNY,RHNZ,HX,HY,HZ,LTX,LTY,LTZ,RTX,RTY,RTZ,SpineMidX,SpineMidY,SpineMidZ,SpineBaseX,SpineBaseY,SpineBaseZ,ShoulderLeftX,ShoulderLeftY,ShoulderLeftZ,ShoulderRightX,ShoulderRightY,ShoulderRightZ,ElbowLeftX,ElbowLeftY,ElbowLeftZ,ElbowRightX,ElbowRightY,ElbowRightZ,Myo_Pose_left,Myo_Pose_Right,Kinect_pose_left,Kinect_pose_right
0.9082031,-0.3901367,0.05224609,0.8818359,0.394043,-0.05371094,0,-1,-1,-1,1,-2,-1,-1,1,2,1,-2,-1,0,0,0,-0.75,-0.75,-0.75,-5.75,-5.75,-5.75,2.659454,3.149672,8.307793,7.693206,3.179983,3.60755,-0.1411608,-0.4329692,1.184915,0.2523673,-0.4236878,1.161245,0.05810355,0.3830039,1.214273,-0.09364825,-0.4170795,1.155533,0.3012402,-0.4071667,1.155588,0.06596261,-0.0673079,1.258039,0.06825575,-0.3851917,1.238458,-0.1145352,0.1153649,1.264912,-0.01416237,-0.3740636,1.210191,-0.1443279,-0.1478805,1.285915,0.2790358,-0.1339185,1.250652,NA,NA,NotTracked,NotTracked,
0.9077148,-0.387207,0.05273438,0.8789063,0.4018555,-0.05078125,0,-3,0,-3,-1,-1,-2,-1,-1,-2,-3,-1,-2,0,-1,0,-0.875,-0.875,-0.875,-4.6875,-4.6875,-4.6875,2.65679,3.148934,8.309978,7.691416,3.179615,3.600564,-0.1410522,-0.4327997,1.18488,0.2521175,-0.423826,1.161792,0.05785205,0.3829096,1.214433,-0.09386307,-0.414611,1.155798,0.2994336,-0.4122771,1.163041,0.06572429,-0.06732701,1.25818,0.06806379,-0.385171,1.238694,-0.1158511,0.1152209,1.265415,-0.01434878,-0.3740629,1.210445,-0.1448966,-0.1481364,1.286219,0.2787942,-0.133856,1.251066,NA,NA,NotTracked,NotTracked,
0.9208984,-0.3867188,0.05761719,0.8828125,0.4091797,-0.05078125,-3,2,0,-1,-1,-1,-1,-3,-1,-2,1,-2,-1,-1,-1,2,-1.875,-1.875,-1.875,-0.875,-0.875,-0.875,2.643113,3.145284,8.322259,7.69147,3.179358,3.594215,-0.1418879,-0.4340404,1.185691,0.2520214,-0.4242145,1.162743,0.0576291,0.3829682,1.214601,-0.09410506,-0.4175796,1.156133,0.2992071,-0.4188538,1.170611,0.06547967,-0.06737147,1.258442,0.06792837,-0.3851888,1.238879,-0.1169737,0.115146,1.266029,-0.01446316,-0.3740741,1.210569,-0.1452963,-0.1483403,1.286499,0.2785539,-0.1337712,1.251614,NA,NA,NotTracked,NotTracked,
0.9243164,-0.3862305,0.05419922,0.8789063,0.4013672,-0.05566406,-1,-3,0,1,2,-1,0,0,-2,2,-1,0,0,0,-2,-3,0.6875,0.6875,0.6875,-0.4375,-0.4375,-0.4375,2.637097,3.14327,8.329611,7.692163,3.179804,3.592072,-0.1422771,-0.4371159,1.185774,0.2510208,-0.4247577,1.162193,0.05733075,0.3829241,1.214784,-0.09433441,-0.4180247,1.156881,0.3006805,-0.4095132,1.166715,0.06535777,-0.06742532,1.258612,0.06784647,-0.3852589,1.239056,-0.1177244,0.1149746,1.266324,-0.01455371,-0.3741626,1.210769,-0.1456415,-0.14856,1.286741,0.2782822,-0.133749,1.251853,NA,NA,NotTracked,NotTracked,
0.9091797,-0.390625,0.05761719,0.8862305,0.4042969,-0.05566406,0,-1,-1,-3,-3,-2,-1,1,0,1,0,0,-2,-2,0,-1,-0.25,-0.25,-0.25,0.4375,0.4375,0.4375,2.639804,3.142329,8.327113,7.693196,3.180981,3.592804,-0.1423747,-0.4364966,1.187511,0.2513275,-0.4244744,1.162893,0.05708817,0.3829207,1.214898,-0.09429362,-0.4172502,1.156893,0.2998281,-0.4125983,1.173886,0.06497514,-0.06745119,1.259093,0.0674529,-0.3852274,1.239586,-0.1181927,0.1148774,1.266674,-0.01488232,-0.3741313,1.211263,-0.1457982,-0.1486677,1.287218,0.2780791,-0.133627,1.252183,NA,NA,NotTracked,NotTracked,
0.9150391,-0.4199219,0.05273438,0.8833008,0.4008789,-0.04443359,1,-1,0,4,-1,-2,1,1,1,-1,-2,0,-1,-2,0,-2,2.75,2.75,2.75,-2.0625,-2.0625,-2.0625,2.647266,3.144464,8.320992,7.689107,3.180366,3.593038,-0.1426501,-0.4334311,1.188606,0.2508563,-0.4256524,1.163286,0.05671718,0.3829878,1.215296,-0.09529921,-0.4277142,1.159768,0.2837842,-0.4350195,1.148546,0.06470472,-0.06749123,1.259426,0.06710494,-0.3852959,1.240039,-0.1186464,0.1148769,1.26703,-0.01519547,-0.3742068,1.2117,-0.1459577,-0.1487112,1.287488,0.2778447,-0.133588,1.252473,NA,NA,NotTracked,NotTracked,
0.9887695,-0.5,0.140625,0.934082,0.4599609,-0.0703125,-2,-3,1,0,-3,-4,0,-6,1,1,10,3,0,-1,-2,-3,34.6875,34.6875,34.6875,-1.125,-1.125,-1.125,2.743742,3.177071,8.265071,7.678195,3.185013,3.604956,-0.1417573,-0.4365695,1.184771,0.2491956,-0.4261966,1.160987,0.05649709,0.3828545,1.215386,-0.09443041,-0.4177221,1.157046,0.2906597,-0.4239448,1.164159,0.06435382,-0.06759057,1.25961,0.06684239,-0.3854144,1.240221,-0.1188898,0.1148641,1.267211,-0.01545115,-0.3742747,1.211867,-0.1463533,-0.1486913,1.287758,0.2777425,-0.1335702,1.252743,NA,NA,NotTracked,NotTracked,
1.037109,-0.5385742,0.2207031,1.027344,0.5219727,-0.02148438,-1,-4,-5,-1,-1,0,-10,-3,-2,-1,-3,1,0,-2,0,-2,-5.4375,-5.4375,-5.4375,-2.5,-2.5,-2.5,2.95529,3.283455,8.061532,7.499782,3.235177,3.784398,-0.1389444,-0.4306379,1.169302,0.2433034,-0.4211588,1.151035,0.05625532,0.3828155,1.215558,-0.09444118,-0.4184818,1.156808,0.2411507,-0.4295966,1.104955,0.06409426,-0.06756797,1.259787,0.06633778,-0.3852835,1.240382,-0.1193183,0.1147575,1.267652,-0.0160069,-0.3740908,1.212095,-0.1465545,-0.1488098,1.28825,0.2779976,-0.1332231,1.25436,NA,NA,NotTracked,NotTracked,
1.036133,-0.8530273,0.4448242,0.9960938,0.6967773,0.07666016,-1,2,10,3,33,-3,-2,0,-5,-2,-14,-5,-6,-6,-10,-6,-34.375,-34.375,-34.375,12.875,12.875,12.875,3.182898,3.625586,7.697238,7.277511,3.381494,4.060927,-0.1282758,-0.4072493,1.128042,0.2268612,-0.3932215,1.125861,0.05590513,0.3829081,1.215717,-0.08806075,-0.3844175,1.147231,0.2243479,-0.3939663,1.078696,0.06345038,-0.0672635,1.259701,0.06486278,-0.3843517,1.23972,-0.1200114,0.1151823,1.268734,-0.01766837,-0.3730716,1.211683,-0.1500402,-0.1479648,1.289917,0.2800826,-0.1322202,1.257553,NA,NA,NotTracked,NotTracked,
0.7856445,-0.8842773,0.5976563,1.007324,0.847168,0.1689453,1,0,-10,-3,-39,-6,-2,0,3,-2,-6,-39,0,-6,4,0,12.6875,12.6875,12.6875,9.8125,9.8125,9.8125,3.334119,4.02648,7.472874,7.095603,3.660881,4.312504,-0.1000098,-0.3526067,1.07331,0.1882859,-0.3347725,1.094767,0.05533602,0.3827607,1.21582,-0.06412457,-0.345743,1.081045,0.2078426,-0.3330243,1.042289,0.06239857,-0.06664312,1.259145,0.06266538,-0.382466,1.237366,-0.1206543,0.1157854,1.270135,-0.02007871,-0.3717689,1.209552,-0.1538054,-0.1384487,1.289443,0.2861457,-0.1202281,1.261712,NA,NA,Unknown,NotTracked,
0.3007813,-0.6259766,0.4448242,0.6069336,0.965332,0.3491211,-3,-3,18,6,-7,-3,-12,-8,0,0,6,-16,8,1,-3,-1,17.625,17.625,17.625,-9.75,-9.75,-9.75,3.450112,4.471742,7.301094,6.991978,4.046636,4.47148,-0.05531833,-0.2543584,1.04597,0.1720269,-0.2448782,1.066881,0.05477452,0.3826319,1.216244,-0.04117733,-0.3165628,1.058143,0.1723843,-0.3157189,1.087562,0.06207316,-0.0663174,1.258739,0.06231039,-0.3814843,1.235599,-0.1164478,0.1175691,1.269751,-0.02045259,-0.3712326,1.20778,-0.1598214,-0.1122798,1.285149,0.2969907,-0.09492306,1.263191,NA,NA,Unknown,Unknown,
0.06835938,-0.6123047,0.4399414,0.1962891,0.578125,0.3344727,-2,3,15,0,-6,-1,-14,-8,-2,-4,-5,-3,-16,-4,-3,0,-26.25,-26.25,-26.25,-24.0625,-24.0625,-24.0625,3.458202,5.002697,7.139133,6.855302,4.567782,4.591907,-0.02574221,-0.157332,0.9965985,0.1639302,-0.1632713,1.033991,0.05419898,0.3827141,1.217164,0.008413496,-0.2002903,1.049625,0.1482302,-0.2205452,1.075091,0.06159466,-0.06577745,1.258924,0.06174604,-0.3804264,1.235589,-0.115117,0.1182526,1.27031,-0.02083718,-0.3697896,1.207656,-0.1726172,-0.106815,1.267911,0.3037467,-0.07446756,1.252508,NA,NA,Unknown,NotTracked,
-0.09277344,-0.6464844,0.418457,0.01953125,0.6518555,0.3813477,1,-1,-9,-2,-10,1,3,-2,8,-2,10,0,20,-4,-2,1,-15.625,-15.625,-15.625,2,2,2,3.415853,5.294099,7.053994,6.836562,4.886785,4.658143,-0.02347879,-0.07742245,0.98642,0.08672591,-0.08505815,0.9991036,0.05365233,0.3827918,1.218586,0.009851374,-0.1114628,0.9815,0.07432073,-0.07623971,1.033909,0.06102344,-0.06469592,1.259459,0.06044269,-0.3780158,1.236273,-0.1112167,0.1186993,1.268955,-0.02198686,-0.366906,1.207993,-0.1642638,-0.08777884,1.25488,0.3103723,-0.06540239,1.234744,NA,NA,NotTracked,NotTracked,
-0.1303711,-0.7397461,0.4604492,0.02587891,0.6879883,0.3540039,-2,-2,3,1,-3,1,5,-16,3,0,7,4,-12,2,3,0,-6.5,-6.5,-6.5,9,9,9,3.383366,5.457714,7.004837,6.843785,5.041746,4.690752,-0.01444447,-0.03373174,0.9826761,0.01823011,-0.03314014,0.9787825,0.0528665,0.3831377,1.221588,0.03074914,-0.06213135,0.96275,-0.01505645,-0.06125447,0.9736,0.06022599,-0.06333718,1.260821,0.05928446,-0.3753107,1.237103,-0.1128355,0.1196327,1.270573,-0.02249631,-0.3640319,1.208313,-0.1793963,-0.1144424,1.229677,0.312004,-0.06274755,1.221181,NA,NA,NotTracked,NotTracked,
-0.2329102,-0.7885742,0.4921875,-0.02587891,0.7719727,0.4199219,-1,-1,-4,1,2,4,-8,-11,-6,-4,-3,-5,-13,4,3,-5,2,2,2,4.125,4.125,4.125,3.374727,5.555865,6.97909,6.846004,5.228565,4.730698,-0.01223943,-0.0116429,0.981451,0.01776974,-0.008366418,0.9770715,0.05231343,0.3833381,1.224139,0.03111791,-0.0416279,0.9744,0.006109147,-0.03691928,0.9613529,0.06011043,-0.06253862,1.261703,0.05935927,-0.3740274,1.237359,-0.1115875,0.1203195,1.269957,-0.02209279,-0.362691,1.208437,-0.1784685,-0.1150902,1.218004,0.3053043,-0.06800964,1.202881,NA,NA,NotTracked,NotTracked,
-0.2973633,-0.7539063,0.5224609,-0.1259766,0.8837891,0.3989258,-1,0,7,2,1,-1,7,-3,-4,3,-3,6,-4,7,6,-12,5.9375,5.9375,5.9375,3.1875,3.1875,3.1875,3.38463,5.585907,6.975773,6.851495,5.298255,4.739907,-0.01129576,-0.0003615726,0.98259,0.0503662,0.001114819,0.9869871,0.05169175,0.3836674,1.226515,0.03175364,-0.03006331,0.978,0.02134819,-0.02758691,0.975,0.06003874,-0.06209986,1.262314,0.05942791,-0.3736667,1.2374,-0.1095775,0.1206501,1.268932,-0.02190824,-0.3622773,1.208354,-0.1774073,-0.1137971,1.211948,0.3025886,-0.0695059,1.197558,NA,NA,NotTracked,NotTracked,
-0.3676758,-0.7832031,0.5097656,-0.1665039,0.8681641,0.3818359,-2,-2,-1,-2,-3,-4,0,-1,-1,3,1,-4,-1,-4,-1,0,3.6875,3.6875,3.6875,-1.875,-1.875,-1.875,3.393176,5.600798,6.976115,6.844712,5.33237,4.742494,-0.01228958,0.004045364,0.9857045,0.06051052,0.004273402,0.9903176,0.05104586,0.3844408,1.22911,0.03290122,-0.02394657,0.9751667,0.04310902,-0.01863355,0.993125,0.0599825,-0.06175965,1.262909,0.05948415,-0.3734556,1.237414,-0.108736,0.1208508,1.268533,-0.02180869,-0.3621079,1.208341,-0.1672098,-0.1126624,1.210358,0.3016504,-0.06967611,1.195914,NA,NA,NotTracked,NotTracked,
-0.4238281,-0.7553711,0.5073242,-0.1977539,0.9169922,0.3833008,3,1,4,1,3,-5,-9,5,-2,1,0,1,4,4,6,3,0.1875,0.1875,0.1875,-2.25,-2.25,-2.25,3.416553,5.602303,6.979366,6.846046,5.333021,4.745331,-0.01454879,0.00534538,0.9890308,0.06302311,0.002894781,0.9907699,0.05071947,0.3845086,1.2297,0.03196753,-0.0219723,0.9745598,0.01636843,-0.001717102,0.9481539,0.05986735,-0.06149371,1.263343,0.05953373,-0.3732938,1.237408,-0.1082306,0.1209989,1.268309,-0.02172728,-0.361986,1.208328,-0.1652658,-0.1125941,1.210545,0.3004869,-0.06994219,1.19423,NA,NA,NotTracked,NotTracked,
-0.3989258,-0.7832031,0.5258789,-0.2104492,0.8740234,0.3930664,1,-1,-1,-1,-5,-2,-2,-2,-2,-1,0,0,0,-7,-11,2,6.5,6.5,6.5,-2.125,-2.125,-2.125,3.422237,5.600035,6.986322,6.843186,5.326383,4.747698,-0.01370078,0.004810842,0.9915366,0.06663154,0.0004008374,0.9934883,0.05027086,0.3848059,1.230526,0.0320217,-0.024351,0.9738107,0.045081,-0.01166952,0.9563334,0.05979441,-0.06117723,1.26371,0.05950539,-0.3728355,1.237418,-0.1112575,0.122693,1.271162,-0.02166147,-0.3616304,1.208276,-0.1641269,-0.1128623,1.211293,0.2995497,-0.06980597,1.193094,NA,NA,NotTracked,NotTracked,
-0.3979492,-0.7836914,0.5166016,-0.1992188,0.9404297,0.4047852,2,2,24,4,1,-4,-16,-2,2,4,2,0,-1,-7,0,0,-2.875,-2.875,-2.875,3.4375,3.4375,3.4375,3.42924,5.594727,6.990117,6.851966,5.311904,4.754947,-0.01346234,0.003238135,0.9919662,0.06624257,-0.00340322,0.9940361,0.04988403,0.3848552,1.231044,0.02827444,-0.02505149,0.9766337,0.05730329,-0.02719033,1.002659,0.05960011,-0.0610222,1.264013,0.05937933,-0.3726768,1.237454,-0.1099314,0.1222808,1.270416,-0.02172437,-0.3615161,1.208273,-0.1636324,-0.1139636,1.214544,0.2994977,-0.06962453,1.193053,NA,NA,NotTracked,NotTracked,
-0.3808594,-0.7807617,0.5195313,-0.2167969,0.887207,0.4003906,-1,-1,-4,-3,-7,-2,0,0,0,0,1,4,12,2,-11,-1,6.5625,6.5625,6.5625,-2.625,-2.625,-2.625,3.43612,5.588718,6.994823,6.846183,5.301693,4.764972,-0.01418759,0.001238191,0.9925622,0.06687015,-0.004349013,0.9936107,0.0495223,0.3848754,1.231419,0.03110395,-0.02664371,0.9733551,0.07525234,-0.01628383,1.01425,0.05951169,-0.06094908,1.264134,0.05928091,-0.3725539,1.237457,-0.1090302,0.1219848,1.269947,-0.02177543,-0.3614092,1.208281,-0.1621356,-0.1137077,1.214949,0.2987786,-0.06932345,1.192245,NA,NA,NotTracked,NotTracked,
-0.3759766,-0.8261719,0.5307617,-0.2285156,0.9750977,0.3842773,1,0,0,-1,0,5,15,-1,-2,7,3,2,13,4,12,1,-1.8125,-1.8125,-1.8125,4.625,4.625,4.625,3.431161,5.588828,6.994653,6.856701,5.300279,4.772765,-0.01334374,0.0007523068,0.991937,0.06669223,-0.001220347,0.993914,0.04910218,0.3849021,1.231716,0.03156569,-0.02648119,0.9743571,0.07037976,0.01759582,1.002571,0.05915814,-0.06080504,1.264435,0.05917808,-0.3724415,1.2375,-0.1085092,0.1217394,1.269641,-0.02183011,-0.361332,1.208324,-0.1614018,-0.1073314,1.219572,0.2986163,-0.06899161,1.190439,NA,NA,NotTracked,NotTracked,
-0.387207,-0.7734375,0.5024414,-0.6108398,1.051758,0.340332,-1,1,5,0,1,-3,0,-7,3,0,-2,-3,5,-1,-4,-3,3.125,3.125,3.125,10.75,10.75,10.75,3.433716,5.587172,6.988839,6.90302,5.443199,4.799911,-0.01331383,-8.961622E-05,0.9917842,0.0212318,0.004521895,0.989915,0.04873893,0.3850944,1.231978,0.0298947,-0.02654336,0.9752548,0.05862443,0.05226572,0.991125,0.05915774,-0.06076787,1.264561,0.05926073,-0.3723943,1.237493,-0.1081972,0.1217199,1.269478,-0.02173701,-0.3613186,1.208342,-0.16096,-0.1059515,1.219735,0.2988595,-0.06842836,1.177684,NA,NA,NotTracked,NotTracked,
-0.390625,-0.78125,0.5463867,-0.5297852,0.7045898,0.2612305,0,-1,-3,-2,-5,1,9,2,8,-1,1,0,-10,-9,-8,1,-3.5625,-3.5625,-3.5625,9,9,9,3.426886,5.586735,6.981863,6.927116,5.683735,4.766788,-0.005576136,0.0005474631,0.9919286,0.1273339,0.04859329,0.9811391,0.04840715,0.3850679,1.232015,0.04186542,-0.02571785,0.9761251,0.134853,0.09239549,0.96,0.0591224,-0.06074883,1.264517,0.05926343,-0.3724116,1.237602,-0.1133763,0.1235087,1.273041,-0.02177801,-0.361549,1.209025,-0.1703686,-0.1120723,1.217886,0.2932339,-0.06644467,1.152748,NA,NA,NotTracked,NotTracked,
-0.3769531,-0.7827148,0.5332031,-0.3789063,0.4350586,0.2128906,-2,-2,-3,-6,0,-2,2,-7,-5,-2,-3,-8,-7,5,3,-5,4,4,4,-40.75,-40.75,-40.75,3.43311,5.591338,6.982401,6.853755,5.724371,4.689735,-0.004480781,0.0006587762,0.991153,0.1360516,0.05746471,0.9427927,0.04786047,0.3850695,1.231977,0.04468668,-0.02509762,0.978875,0.1477449,0.08285491,0.9363333,0.05910541,-0.06078352,1.264729,0.05946538,-0.372443,1.238074,-0.1153948,0.1242579,1.274002,-0.02155777,-0.3619381,1.211303,-0.1664835,-0.1055065,1.220178,0.285379,-0.06851094,1.108395,NA,NA,NotTracked,NotTracked,
-0.3774414,-0.7543945,0.5053711,0.02294922,0.2583008,0.2583008,-1,-1,-2,-4,-4,-2,-7,-4,3,-3,-6,-11,-4,-3,0,-3,3,3,3,71.0625,71.0625,71.0625,3.446366,5.597919,6.995551,6.834623,5.549489,4.573038,-0.005816992,0.001347785,0.9883721,0.1358137,0.006852843,0.8842806,0.04778567,0.3849933,1.231791,0.03795581,-0.02629142,0.97411,0.1478202,0.04123528,0.86225,0.05881908,-0.06074072,1.265328,0.05975034,-0.3722655,1.239746,-0.1161463,0.1247815,1.274003,-0.02129478,-0.3620418,1.213046,-0.1705566,-0.1076401,1.213284,0.2833056,-0.0622854,1.104947,NA,NA,NotTracked,NotTracked,
-0.3535156,-0.7788086,0.5112305,0.7412109,0.9125977,0.2128906,-4,0,-4,-1,-2,1,0,-2,3,6,-4,11,-17,-9,4,6,1.625,1.625,1.625,123.9375,123.9375,123.9375,3.455575,5.596282,7.01731,7.038551,5.172944,4.524042,-0.005701154,0.0001683319,0.9840956,0.1396614,-0.09184351,0.8659335,0.04754312,0.3850265,1.231657,0.04322622,-0.02521096,0.9811364,0.1387069,-0.05378448,0.8201429,0.05813383,-0.06027013,1.266246,0.06010393,-0.3712603,1.241368,-0.1167393,0.1248212,1.274148,-0.02098101,-0.3612597,1.213988,-0.1589581,-0.1068288,1.208125,0.3056526,-0.05689525,1.096067,NA,NA,NotTracked,Unknown,
-0.293457,-0.8222656,0.543457,1.019531,1.075195,0.4018555,-2,-2,-2,-4,-4,-4,1,-8,-9,6,-5,-18,-28,-8,-4,2,-11.25,-11.25,-11.25,91.9375,91.9375,91.9375,3.451489,5.571419,7.05995,7.192312,4.683358,4.639235,-0.009149523,-0.002390128,0.9803717,0.08211351,-0.167556,0.9074445,0.04618664,0.3853841,1.231413,0.0370004,-0.02693808,0.9697577,0.07915661,-0.1391126,0.8811667,0.05783691,-0.06026677,1.266428,0.05986899,-0.3714967,1.241817,-0.1142372,0.1238498,1.272067,-0.02114516,-0.3614257,1.214209,-0.1553626,-0.1072927,1.205567,0.2740974,-0.08027375,1.110028,NA,NA,Closed,Lasso,
-0.2822266,-0.7807617,0.5400391,0.3642578,1.646973,0.2885742,1,-1,-5,3,-1,-2,-10,-1,1,-1,2,1,-4,-1,-1,-1,-6.5,-6.5,-6.5,-61.9375,-61.9375,-61.9375,3.451067,5.535122,7.09392,7.142981,4.520929,4.815344,-0.01360348,-0.008125572,0.9758717,0.1221039,-0.1836604,0.9848828,0.04342635,0.3857209,1.23004,0.02548943,-0.03634703,0.9630834,0.1075718,-0.1563324,0.9384286,0.05736887,-0.06035446,1.266328,0.0595246,-0.3718985,1.242103,-0.1121387,0.1228223,1.270447,-0.02141178,-0.3617301,1.214395,-0.156678,-0.1045,1.210795,0.3428838,-0.08994935,1.164224,NA,NA,Closed,Unknown,
-0.3344727,-0.7792969,0.5888672,-0.06835938,1.518555,0.1533203,-1,-1,-4,-1,2,-3,1,3,0,0,0,7,-1,-2,-2,1,-1.4375,-1.4375,-1.4375,-50.5625,-50.5625,-50.5625,3.455085,5.48544,7.121508,7.028779,4.584017,4.930678,-0.01714874,-0.01693661,0.9748099,0.1303433,-0.1595091,1.038391,0.04146573,0.3858315,1.228385,0.03045383,-0.04508449,0.9692,0.1118434,-0.1342989,0.9827728,0.05692732,-0.06024409,1.265974,0.05930516,-0.3718247,1.242229,-0.1165338,0.1229372,1.272164,-0.02157733,-0.3617057,1.214509,-0.1583052,-0.1059204,1.212839,0.3161157,-0.05869105,1.207215,NA,NA,Closed,Unknown,
-0.3305664,-0.8076172,0.5898438,-0.2666016,1.187988,0.2172852,-1,2,2,1,2,0,0,-2,-4,-2,-3,-9,-17,-22,-27,-8,2.25,2.25,2.25,-35.5625,-35.5625,-35.5625,3.458246,5.463168,7.12129,6.97811,4.805548,4.980027,-0.02703409,-0.0232706,0.9759636,0.07912622,-0.08688276,1.016433,0.0406267,0.3855287,1.226633,0.01343572,-0.05073521,0.9565386,0.0630656,-0.0740515,1.031583,0.0567882,-0.0600532,1.265565,0.05917634,-0.3715284,1.242203,-0.1183504,0.1227632,1.272649,-0.02171893,-0.3613991,1.21449,-0.1609859,-0.09920193,1.219472,0.3172548,-0.05746177,1.207035,NA,NA,NotTracked,NotTracked,
-0.3266602,-0.769043,0.5673828,-0.2919922,0.8417969,0.2207031,-1,-3,-1,-3,-1,0,2,1,-4,3,-3,-24,-1,-24,1,-4,4.9375,4.9375,4.9375,-24.6875,-24.6875,-24.6875,3.474938,5.459436,7.108356,6.950181,4.972122,4.972091,-0.02418976,-0.02744475,0.9775253,0.06091413,-0.04395753,0.9944523,0.04056687,0.3850718,1.225451,0.01832553,-0.05517681,0.9606154,0.06737877,-0.03032083,1.013476,0.05666385,-0.05985698,1.265102,0.05896639,-0.3713226,1.242091,-0.1191779,0.122569,1.272547,-0.02195639,-0.361011,1.214322,-0.1743497,-0.1122295,1.217476,0.3196073,-0.05416048,1.205027,NA,NA,NotTracked,NotTracked,
-0.3066406,-0.831543,0.5854492,0,0.7431641,0.3789063,-2,-1,-3,-2,-2,-3,6,6,6,-6,-7,-3,-5,-6,-18,-5,2.6875,2.6875,2.6875,19.75,19.75,19.75,3.474794,5.461975,7.098365,6.951002,5.265625,4.861687,-0.02390429,-0.02889488,0.9802843,0.05563839,-0.03168104,0.9863905,0.04072233,0.3849785,1.225105,0.02046067,-0.05378326,0.9595989,0.05543131,-0.0007256842,1.0012,0.05665367,-0.05979439,1.264911,0.05894797,-0.371262,1.241976,-0.1197677,0.1219891,1.272105,-0.02197199,-0.360918,1.214183,-0.1765418,-0.11545,1.215656,0.3189425,-0.05270571,1.200458,NA,NA,NotTracked,NotTracked,
-0.2832031,-0.8041992,0.5629883,0.05517578,0.9072266,0.4448242,-1,-1,0,-2,4,-4,-13,-22,-2,2,-5,3,-6,1,7,-9,0.9375,0.9375,0.9375,9.9375,9.9375,9.9375,3.477181,5.466473,7.093105,6.959643,5.253136,4.829123,-0.02361898,-0.02805023,0.9816401,0.006659131,-0.02650377,0.9780332,0.04084901,0.3850107,1.225137,0.01975491,-0.05456295,0.9602938,0.007419697,0.005513744,0.968625,0.05666489,-0.05967326,1.264732,0.05907105,-0.3708969,1.241651,-0.1202099,0.1216741,1.271815,-0.02175646,-0.360511,1.213654,-0.178079,-0.1165242,1.218763,0.3167776,-0.0528203,1.193943,NA,NA,NotTracked,NotTracked,
-0.2905273,-0.8037109,0.5581055,-0.004882813,0.9467773,0.515625,-1,-1,-1,3,1,2,7,11,5,27,-6,7,-2,0,-1,-7,3.0625,3.0625,3.0625,-19.5625,-19.5625,-19.5625,3.480544,5.469105,7.095532,6.926469,5.225339,4.815243,-0.02278952,-0.02484225,0.9808664,0.006297974,-0.02486935,0.977643,0.04098332,0.3850456,1.225246,0.0191355,-0.05424031,0.962499,0.009559719,-0.006323789,0.95148,0.05668326,-0.05951151,1.264455,0.0590839,-0.3706034,1.241141,-0.1204068,0.1215156,1.271704,-0.02170013,-0.3602235,1.212968,-0.1790719,-0.118012,1.21852,0.3145833,-0.0547679,1.190827,NA,NA,NotTracked,NotTracked,
-0.3041992,-0.7832031,0.5498047,-0.1713867,0.9179688,0.3754883,-3,-1,-1,-2,-2,0,1,-3,0,-7,-9,-2,16,-22,-9,-1,-2,-2,-2,-24,-24,-24,3.482265,5.466076,7.102908,6.889398,5.21887,4.816568,-0.02363282,-0.02449049,0.9822828,0.007882435,-0.02421043,0.9797512,0.04136765,0.3852029,1.225689,0.01889097,-0.05374993,0.9622904,-0.004646562,0.008069473,0.9728572,0.05671385,-0.05938848,1.264348,0.0592343,-0.3702443,1.240649,-0.1205318,0.1214458,1.271728,-0.02148176,-0.3598433,1.212334,-0.1794941,-0.1185292,1.218359,0.313347,-0.05463128,1.190992,NA,NA,NotTracked,NotTracked,
-0.2832031,-0.7788086,0.5722656,-0.1025391,0.9467773,0.3486328,-3,-1,-2,1,0,0,-2,1,2,2,1,2,-3,6,3,-2,-0.9375,-0.9375,-0.9375,-14.75,-14.75,-14.75,3.482854,5.455398,7.109699,6.868725,5.211592,4.806422,-0.02490122,-0.02598554,0.981699,0.006697636,-0.02488378,0.9786035,0.04163375,0.3851647,1.225739,0.01861235,-0.05420773,0.9618779,0.00732732,-0.004457563,0.9550925,0.05673454,-0.05929929,1.264107,0.05909936,-0.3700612,1.240266,-0.1205543,0.1213837,1.271612,-0.02159738,-0.3596199,1.211828,-0.1797851,-0.1193385,1.218669,0.312075,-0.05546598,1.191222,NA,NA,NotTracked,NotTracked,
-0.25,-0.7675781,0.5527344,-0.05517578,0.9101563,0.3779297,-1,-2,0,-1,-4,-1,0,-4,2,10,-3,-2,-2,4,1,-1,1.0625,1.0625,1.0625,-3.0625,-3.0625,-3.0625,3.486499,5.433013,7.115045,6.854468,5.190087,4.786308,-0.02543315,-0.02984384,0.9807201,0.004128928,-0.02899247,0.9781198,0.04210306,0.3850088,1.225647,0.01888283,-0.05479113,0.9611023,0.000606981,0.000822734,0.9620585,0.05678804,-0.05922944,1.263785,0.0590074,-0.3699107,1.239812,-0.1205813,0.1213524,1.271518,-0.02167608,-0.359438,1.211268,-0.1798691,-0.1195219,1.218797,0.3102176,-0.05664571,1.192824,NA,NA,NotTracked,NotTracked,
-0.159668,-0.609375,0.4526367,-0.02832031,0.8408203,0.3813477,-3,-2,-1,0,0,4,-4,-3,-2,-2,-2,-2,0,-4,-7,-6,-8.1875,-8.1875,-8.1875,-7.6875,-7.6875,-7.6875,3.486841,5.336386,7.126051,6.840643,5.142827,4.763277,-0.02724319,-0.04160629,0.9806252,0.06003394,-0.05247277,0.980065,0.04284966,0.3847523,1.225242,0.01754243,-0.06818753,0.9593,0.05104555,-0.02530306,0.9804,0.05689022,-0.05919566,1.263397,0.05897143,-0.369862,1.239475,-0.1206241,0.1211717,1.271153,-0.0216949,-0.3593088,1.210682,-0.1814678,-0.1206985,1.220219,0.3085248,-0.057241,1.194697,NA,NA,NotTracked,NotTracked,
-0.07666016,-0.5322266,0.3583984,0.006835938,0.5839844,0.309082,-4,-2,-3,0,1,-6,-11,-7,-10,-4,1,0,1,0,-4,-3,-29.625,-29.625,-29.625,18,18,18,3.451138,5.134643,7.154966,6.835896,4.985512,4.707207,-0.02805687,-0.07624128,0.9751443,0.00229188,-0.08158004,0.9718345,0.04365501,0.3844961,1.224538,0.008016138,-0.1069548,0.9575385,-0.01604374,-0.0463138,0.9542667,0.05699377,-0.05917492,1.262823,0.05893813,-0.3699338,1.239065,-0.1204299,0.1208556,1.270142,-0.02183739,-0.3593187,1.209803,-0.1780584,-0.1133632,1.196705,0.3066451,-0.05994174,1.200281,NA,NA,NotTracked,NotTracked,
0.234375,-0.7226563,0.378418,0.1469727,0.6113281,0.2314453,-1,0,-2,-2,-6,-2,13,3,15,-2,-2,0,-9,-15,-3,4,-46.375,-46.375,-46.375,38.25,38.25,38.25,3.339926,4.650331,7.251453,6.896142,4.738698,4.640336,-0.02948341,-0.152289,0.9745427,0.1497183,-0.1710436,0.9868484,0.0446577,0.3845302,1.223708,0.01660012,-0.1768895,1.005666,0.1136893,-0.1428493,1.033333,0.05723771,-0.05971028,1.261794,0.05972177,-0.3715271,1.2374,-0.1151242,0.1202475,1.266662,-0.02143942,-0.3606735,1.207688,-0.1754475,-0.1075362,1.246423,0.2996521,-0.06359407,1.217673,NA,NA,NotTracked,NotTracked,
0.5898438,-0.9404297,0.5146484,0.4169922,0.7758789,0.28125,-1,0,-1,-1,-5,-1,-9,5,3,-4,1,6,5,1,-11,-10,47.25,47.25,47.25,31.875,31.875,31.875,3.303178,4.231952,7.355,6.976337,4.39649,4.546257,-0.04766855,-0.253742,0.9979921,0.174478,-0.2572126,1.014555,0.04611317,0.3845703,1.222704,-0.003356558,-0.2653279,1.052538,0.1259491,-0.2517328,1.074857,0.05756152,-0.06053384,1.260293,0.06033633,-0.3736774,1.234637,-0.1145814,0.1201275,1.265005,-0.02095711,-0.3628892,1.204439,-0.1710081,-0.119423,1.243013,0.2921053,-0.08275063,1.23668,NA,NA,NotTracked,Closed,
0.8261719,-0.6337891,0.4711914,0.8378906,0.7822266,0.2734375,-1,0,0,-1,0,-1,-10,-2,-18,-5,-6,-4,-6,-4,0,-11,16.4375,16.4375,16.4375,28.4375,28.4375,28.4375,3.289762,3.832525,7.499579,7.125654,3.920902,4.376088,-0.06827541,-0.3358756,1.056684,0.2018248,-0.3299147,1.061186,0.0476612,0.3843834,1.221873,-0.01787008,-0.3411567,1.094048,0.1720219,-0.3577809,1.106,0.05905043,-0.061472,1.257656,0.06377488,-0.3756333,1.229546,-0.1162904,0.1195177,1.263847,-0.01899111,-0.3663391,1.199532,-0.1640014,-0.1155617,1.259529,0.2865881,-0.1022607,1.238177,NA,NA,Unknown,Unknown,
1.055664,-0.8061523,0.3881836,0.9545898,0.659668,0.09375,0,-2,-1,-6,2,-3,11,3,-13,3,2,3,1,-3,1,14,41.5,41.5,41.5,26.4375,26.4375,26.4375,3.162448,3.510146,7.701385,7.353387,3.533962,4.133049,-0.1060003,-0.3951279,1.083856,0.2309381,-0.3890293,1.08187,0.04960573,0.3843341,1.220318,-0.06694628,-0.3984437,1.084636,0.1871865,-0.3755493,1.068095,0.06003562,-0.06260544,1.256663,0.06530534,-0.3780476,1.229149,-0.1175918,0.118449,1.262964,-0.01755505,-0.3691888,1.199275,-0.158961,-0.1297224,1.265772,0.2818246,-0.1197878,1.237353,NA,NA,Unknown,Unknown,
0.9833984,-0.4389648,0.2192383,0.96875,0.6411133,-0.08154297,-1,-1,-4,-5,-4,-2,5,1,12,0,0,9,3,4,1,0,-31.375,-31.375,-31.375,1.1875,1.1875,1.1875,2.94346,3.201344,8.020645,7.579474,3.34023,3.892447,-0.1251629,-0.427898,1.125019,0.2418639,-0.4287317,1.120542,0.05143658,0.3838527,1.21826,-0.08245777,-0.4015664,1.1314,0.1949812,-0.424288,1.093333,0.06089057,-0.06359322,1.256318,0.06673536,-0.3800833,1.230516,-0.1184588,0.117559,1.262401,-0.01607275,-0.3706542,1.200686,-0.1546105,-0.1451788,1.27246,0.280018,-0.1264774,1.238653,NA,NA,NotTracked,NotTracked,
