ALX,ALY,ALZ,ARX,ARY,ARZ,EMG0L,EMG1L,EMG2L,EMG3L,EMG4L,EMG5L,EMG6L,EMG7L,EMG0R,EMG1R,EMG2R,EMG3R,EMG4R,EMG5R,EMG6R,EMG7R,GLX,GLY,GLZ,GRX,GRY,GRZ,ORL,OPL,OYL,ORR,OPR,OYR,LHNX,LHNY,LHNZ,RHNX,RHNY,RHNZ,HX,HY,HZ,LTX,LTY,LTZ,RTX,RTY,RTZ,SpineMidX,SpineMidY,SpineMidZ,SpineBaseX,SpineBaseY,SpineBaseZ,ShoulderLeftX,ShoulderLeftY,ShoulderLeftZ,ShoulderRightX,ShoulderRightY,ShoulderRightZ,ElbowLeftX,ElbowLeftY,ElbowLeftZ,ElbowRightX,ElbowRightY,ElbowRightZ,Myo_Pose_left,Myo_Pose_Right,Kinect_pose_left,Kinect_pose_right
0.9145508,-0.3842773,-0.0078125,0.9448242,0.6665039,0.05126953,-1,-1,0,2,-2,-1,0,-1,-2,0,-4,-36,-4,-2,1,3,-1.25,-1.25,-1.25,-4.25,-4.25,-4.25,2.422819,3.146001,7.434772,7.405785,3.351168,2.310239,-0.1464299,-0.4443083,1.243187,0.2303376,-0.4113746,1.151239,0.05954797,0.3820461,1.268851,-0.1866404,-0.4630736,1.255556,0.2013322,-0.4026101,1.128366,0.06819913,-0.06757037,1.3074,0.05897859,-0.3825758,1.28582,-0.1100272,0.1154379,1.341385,-0.02138069,-0.3711194,1.26515,-0.1310639,-0.1505746,1.340466,0.2831045,-0.1331287,1.276667,NA,NA,NotTracked,NotTracked,
0.9145508,-0.3842773,-0.0078125,0.9511719,0.6508789,0.09033203,-1,-1,0,2,-2,-1,0,-1,-1,-1,-6,37,1,-3,-3,0,-1.25,-1.25,-1.25,30.1875,30.1875,30.1875,2.422819,3.146001,7.434772,7.352923,3.395772,2.391112,-0.1465042,-0.4447434,1.243073,0.216111,-0.3952368,1.135265,0.05917167,0.3821493,1.269189,-0.1835414,-0.4353081,1.256939,0.1877921,-0.3829449,1.112675,0.06746379,-0.06733327,1.30745,0.05699822,-0.3820921,1.285684,-0.1102033,0.1155048,1.341914,-0.02338721,-0.3703064,1.265189,-0.131099,-0.1505465,1.340558,0.2857319,-0.1295984,1.273117,NA,NA,NotTracked,NotTracked,
0.9145508,-0.3842773,-0.0078125,0.8500977,0.9672852,0.2382813,-1,-1,0,2,-2,-1,0,-1,-20,-4,7,-4,0,0,-1,-3,-1.25,-1.25,-1.25,81.6875,81.6875,81.6875,2.422819,3.146001,7.434772,7.240216,3.611652,2.681411,-0.1464493,-0.4442311,1.242283,0.1951594,-0.3694781,1.113434,0.05867819,0.3824673,1.269674,-0.1838777,-0.4451732,1.252047,0.169162,-0.3544867,1.090325,0.06609962,-0.06705359,1.307426,0.05387193,-0.3817127,1.285049,-0.1103943,0.1154038,1.342356,-0.02630406,-0.3695608,1.264973,-0.1309637,-0.1506906,1.340696,0.2888277,-0.1171771,1.26788,NA,NA,NotTracked,Unknown,
0.9145508,-0.3842773,-0.0078125,0.668457,0.9741211,0.4082031,-1,-1,0,2,-2,-1,0,-1,-12,-5,-11,13,0,-4,-7,-14,-1.25,-1.25,-1.25,47.9375,47.9375,47.9375,2.422819,3.146001,7.434772,7.112219,3.932258,2.9891,-0.1465423,-0.4443609,1.242935,0.1594378,-0.3399327,1.109489,0.05806423,0.3827711,1.270672,-0.1849248,-0.4463852,1.257129,0.1482483,-0.3219869,1.064636,0.06468691,-0.06654175,1.307591,0.05044523,-0.3807509,1.284877,-0.1105526,0.1154613,1.343089,-0.02972829,-0.3680566,1.265363,-0.1309614,-0.1506808,1.340833,0.2943677,-0.102616,1.25789,NA,NA,NotTracked,Unknown,
0.9145508,-0.3842773,-0.0078125,0.668457,0.9741211,0.4082031,-1,-1,0,2,-2,-1,0,-1,13,-1,11,22,5,6,4,7,-1.25,-1.25,-1.25,47.9375,47.9375,47.9375,2.422819,3.146001,7.434772,7.112219,3.932258,2.9891,-0.1461634,-0.4447363,1.244059,0.1348713,-0.3035826,1.090773,0.05733765,0.3834055,1.272451,-0.185214,-0.4659159,1.251,0.1673524,-0.3604427,1.132,0.06394507,-0.06628142,1.308,0.04972147,-0.3804912,1.285027,-0.1107129,0.1153676,1.343884,-0.03026296,-0.3677323,1.265686,-0.1309406,-0.1508146,1.341116,0.300486,-0.08408698,1.251877,NA,NA,NotTracked,Unknown,
0.9145508,-0.3842773,-0.0078125,0.5273438,0.9887695,0.4599609,-1,-1,0,2,-2,-1,0,-1,-13,-5,-3,16,2,-3,-6,-10,-1.25,-1.25,-1.25,41.5,41.5,41.5,2.422819,3.146001,7.434772,7.039601,4.301079,3.272056,-0.1464879,-0.4451254,1.242879,0.1093021,-0.2559878,1.076814,0.05660599,0.3836749,1.273642,-0.1845995,-0.4449455,1.25746,0.1400153,-0.3099695,1.117571,0.06341141,-0.06603445,1.308598,0.04971998,-0.3803568,1.285534,-0.1108471,0.1152832,1.344307,-0.0299469,-0.3676596,1.266445,-0.1308378,-0.1509332,1.341227,0.3019511,-0.0781443,1.243032,NA,NA,NotTracked,Unknown,
0.9145508,-0.3842773,-0.0078125,0.3808594,0.9521484,0.480957,-1,-1,0,2,-2,-1,0,-1,-24,-11,-7,-5,-5,0,0,-6,-1.25,-1.25,-1.25,19.5,19.5,19.5,2.422819,3.146001,7.434772,7.013211,4.426491,3.363528,-0.1459889,-0.4453807,1.242346,0.08877604,-0.206597,1.068025,0.05603827,0.3839449,1.27473,-0.1853769,-0.4515709,1.257246,0.101121,-0.2618361,1.106882,0.06335523,-0.06589757,1.308854,0.04982923,-0.3802522,1.285657,-0.1107426,0.1152572,1.344126,-0.02940918,-0.3676032,1.266857,-0.1307675,-0.150943,1.341285,0.3012826,-0.07580633,1.227286,NA,NA,NotTracked,Unknown,
0.9145508,-0.3842773,-0.0078125,0.2202148,0.7949219,0.4638672,-1,-1,0,2,-2,-1,0,-1,-12,0,-5,-10,-2,-15,2,-10,-1.25,-1.25,-1.25,5.6875,5.6875,5.6875,2.422819,3.146001,7.434772,6.970434,4.666015,3.530395,-0.1451827,-0.4448157,1.2417,0.03335278,-0.1186887,1.053314,0.05501754,0.3847146,1.277841,-0.1827275,-0.4540229,1.249835,0.01014355,-0.1677587,1.099833,0.06328648,-0.06535539,1.309491,0.05029539,-0.3796729,1.285825,-0.1087903,0.1153834,1.345186,-0.0285981,-0.3671454,1.267183,-0.1342699,-0.1504151,1.340578,0.2955091,-0.06267361,1.189909,NA,NA,NotTracked,Unknown,
0.9145508,-0.3842773,-0.0078125,0.1445313,0.7060547,0.4536133,-1,-1,0,2,-2,-1,0,-1,4,-2,-9,-6,2,-8,0,8,-1.25,-1.25,-1.25,-10.5,-10.5,-10.5,2.422819,3.146001,7.434772,6.93862,4.88387,3.673032,-0.1453561,-0.4451201,1.241863,-0.002005629,-0.07695012,1.052381,0.05458021,0.3848689,1.279074,-0.1835639,-0.4523223,1.252974,-0.04605416,-0.1234907,1.095,0.06335779,-0.06463031,1.310073,0.05057915,-0.3782735,1.286281,-0.1087038,0.1160906,1.34662,-0.02774966,-0.3655451,1.268004,-0.1353024,-0.1499484,1.330224,0.2914264,-0.05944327,1.178663,NA,NA,NotTracked,Unknown,
0.9145508,-0.3842773,-0.0078125,0.07714844,0.6762695,0.4047852,-1,-1,0,2,-2,-1,0,-1,24,7,-21,-15,-10,-11,-13,-2,-1.25,-1.25,-1.25,-2.75,-2.75,-2.75,2.422819,3.146001,7.434772,6.933121,4.979582,3.735478,-0.1454269,-0.4446614,1.241914,-0.006116384,-0.04238781,1.04627,0.05432516,0.3852026,1.279965,-0.1847566,-0.4211696,1.267692,-0.03668438,-0.07273943,1.062647,0.06326712,-0.06403659,1.310608,0.05053729,-0.3769931,1.286823,-0.1092173,0.116703,1.347692,-0.02736646,-0.364372,1.268972,-0.1338741,-0.1495251,1.332421,0.2652586,-0.05849322,1.147451,NA,NA,NotTracked,Unknown,
0.9145508,-0.3842773,-0.0078125,0.06689453,0.6455078,0.3354492,-1,-1,0,2,-2,-1,0,-1,-24,1,6,3,-4,-1,4,-6,-1.25,-1.25,-1.25,9.3125,9.3125,9.3125,2.422819,3.146001,7.434772,6.949229,5.204653,3.883613,-0.145228,-0.4448321,1.242109,-0.01531762,-0.01784983,1.046496,0.05406278,0.3855176,1.281135,-0.1857343,-0.4640405,1.2622,-0.05144515,-0.04512607,1.056455,0.06304139,-0.0635443,1.31102,0.05042553,-0.3761379,1.28702,-0.1100037,0.1177895,1.348918,-0.02717647,-0.3637486,1.269665,-0.1321147,-0.1486583,1.335344,0.2554283,-0.05612573,1.139309,NA,NA,NotTracked,Unknown,
0.9145508,-0.3842773,-0.0078125,0.07324219,0.7143555,0.3310547,-1,-1,0,2,-2,-1,0,-1,-19,-11,17,8,-4,5,5,11,-1.25,-1.25,-1.25,6.5625,6.5625,6.5625,2.422819,3.146001,7.434772,6.96342,5.287127,3.951857,-0.1448667,-0.4452443,1.242362,-0.04115357,0.004125797,1.051299,0.0537737,0.3855665,1.281968,-0.1819397,-0.4372292,1.260631,-0.07642809,-0.01941159,1.062,0.06290801,-0.06321329,1.311301,0.05017714,-0.375354,1.287269,-0.1108178,0.1194334,1.350224,-0.02715212,-0.3631908,1.270304,-0.1305049,-0.1472061,1.3379,0.2455095,-0.05362444,1.129418,NA,NA,NotTracked,Unknown,
0.9145508,-0.3842773,-0.0078125,0.1069336,0.7290039,0.3227539,-1,-1,0,2,-2,-1,0,-1,-6,-2,-7,-5,3,-9,-1,18,-1.25,-1.25,-1.25,-2.6875,-2.6875,-2.6875,2.422819,3.146001,7.434772,6.9642,5.311167,3.976663,-0.1449687,-0.4454524,1.243325,-0.04300834,0.0143868,1.051531,0.05351181,0.3858159,1.282634,-0.1815858,-0.4430535,1.257413,-0.08293891,-0.01096131,1.069111,0.06260449,-0.06285827,1.311689,0.05002929,-0.374984,1.287492,-0.1104474,0.1202574,1.349298,-0.02725097,-0.3629074,1.271012,-0.129246,-0.146333,1.341322,0.239026,-0.05079205,1.123651,NA,NA,NotTracked,Unknown,
0.9145508,-0.3842773,-0.0078125,0.05322266,0.7851563,0.3393555,-1,-1,0,2,-2,-1,0,-1,-6,3,5,17,3,5,7,2,-1.25,-1.25,-1.25,-9.4375,-9.4375,-9.4375,2.422819,3.146001,7.434772,6.956879,5.338214,4.015924,-0.1449483,-0.4456219,1.243625,-0.04596847,0.02018994,1.051496,0.05322735,0.3859461,1.28325,-0.1822423,-0.443349,1.260921,-0.06105027,-0.001835578,1.042333,0.0624714,-0.06269999,1.31185,0.04981861,-0.374687,1.287601,-0.1096104,0.1218418,1.348325,-0.0273897,-0.3626818,1.271567,-0.1285387,-0.1446723,1.342498,0.2337149,-0.04765104,1.119107,NA,NA,NotTracked,Lasso,
0.9145508,-0.3842773,-0.0078125,-0.001464844,0.8242188,0.3105469,-1,-1,0,2,-2,-1,0,-1,6,10,4,7,2,3,-1,7,-1.25,-1.25,-1.25,-15.4375,-15.4375,-15.4375,2.422819,3.146001,7.434772,6.944409,5.35087,4.034528,-0.1458115,-0.444148,1.246098,-0.04672919,0.02391743,1.05095,0.05306952,0.3859811,1.283437,-0.1805248,-0.4331708,1.260625,-0.08103291,-0.002314909,1.070286,0.0624366,-0.06259253,1.311922,0.04973851,-0.3745373,1.287592,-0.1088632,0.1230024,1.347453,-0.02740221,-0.3626071,1.271977,-0.1278234,-0.143428,1.343603,0.2315992,-0.04442545,1.11821,NA,NA,NotTracked,Lasso,
0.9145508,-0.3842773,-0.0078125,-0.0390625,0.8168945,0.2978516,-1,-1,0,2,-2,-1,0,-1,-29,3,18,6,5,6,4,-26,-1.25,-1.25,-1.25,-10.1875,-10.1875,-10.1875,2.422819,3.146001,7.434772,6.939251,5.355301,4.036827,-0.1457907,-0.4450767,1.248024,-0.04657716,0.02562119,1.051271,0.05274991,0.3860424,1.283998,-0.1828543,-0.4431729,1.262367,-0.09459208,0.004924243,1.073667,0.06240172,-0.06248037,1.312043,0.04960568,-0.374357,1.287682,-0.1080441,0.1244942,1.347072,-0.02746285,-0.3624865,1.272716,-0.1274665,-0.1418325,1.344763,0.2292926,-0.04340032,1.117228,NA,NA,NotTracked,Unknown,
0.9145508,-0.3842773,-0.0078125,-0.09326172,0.8833008,0.3486328,-1,-1,0,2,-2,-1,0,-1,-14,-8,1,-1,-4,5,1,1,-1.25,-1.25,-1.25,-16.25,-16.25,-16.25,2.422819,3.146001,7.434772,6.923115,5.354154,4.035208,-0.1461416,-0.4449815,1.247843,-0.04811746,0.02622298,1.050092,0.05249985,0.3860121,1.284189,-0.181119,-0.4264259,1.265,-0.09636704,0.01032382,1.0672,0.06214702,-0.06235054,1.312129,0.04924202,-0.3741032,1.287733,-0.1073464,0.1256016,1.3468,-0.02785885,-0.3623171,1.273259,-0.1273191,-0.1406486,1.345275,0.2269462,-0.04287692,1.11549,NA,NA,NotTracked,Unknown,
0.9145508,-0.3842773,-0.0078125,-0.1391602,0.9042969,0.3525391,-1,-1,0,2,-2,-1,0,-1,-2,4,-2,-3,-2,3,-1,-3,-1.25,-1.25,-1.25,-21.3125,-21.3125,-21.3125,2.422819,3.146001,7.434772,6.910795,5.351132,4.033247,-0.1465147,-0.4454353,1.248785,-0.048384,0.02601093,1.049913,0.05221331,0.3859404,1.284375,-0.1792338,-0.4459644,1.253423,-0.0875005,0.002932369,1.069093,0.06191758,-0.06225605,1.312202,0.04890303,-0.3739195,1.287771,-0.1069251,0.1261882,1.34663,-0.02823495,-0.3622185,1.273773,-0.1270389,-0.139954,1.346658,0.2259418,-0.04285253,1.114969,NA,NA,NotTracked,Unknown,
0.9145508,-0.3842773,-0.0078125,-0.2319336,0.8813477,0.3813477,-1,-1,0,2,-2,-1,0,-1,4,-3,-2,-4,-7,-1,2,-10,-1.25,-1.25,-1.25,-9.8125,-9.8125,-9.8125,2.422819,3.146001,7.434772,6.880696,5.344584,4.019221,-0.1463149,-0.445619,1.250728,-0.04932603,0.0252151,1.050766,0.05175278,0.386073,1.284694,-0.1797351,-0.4321284,1.261422,-0.09627405,0.006664719,1.069857,0.06169842,-0.06211491,1.312239,0.04847091,-0.3736857,1.287818,-0.106706,0.1265578,1.346605,-0.02864843,-0.3621029,1.274226,-0.1269426,-0.1395081,1.34761,0.225365,-0.04290986,1.114749,NA,NA,NotTracked,Unknown,
0.9145508,-0.3842773,-0.0078125,-0.277832,0.9121094,0.4018555,-1,-1,0,2,-2,-1,0,-1,12,-3,2,3,3,-2,2,17,-1.25,-1.25,-1.25,-2.5625,-2.5625,-2.5625,2.422819,3.146001,7.434772,6.876784,5.344254,4.011606,-0.1469887,-0.4482665,1.249759,-0.0490853,0.0238932,1.048529,0.05137758,0.3860595,1.284848,-0.1809438,-0.4377157,1.260428,-0.09079061,0.004798463,1.065271,0.06136768,-0.06197003,1.312256,0.04807131,-0.373507,1.287808,-0.1065307,0.126782,1.346471,-0.02901968,-0.3620112,1.274591,-0.1265916,-0.1392142,1.348615,0.2251761,-0.04312255,1.114607,NA,NA,NotTracked,Lasso,
0.9145508,-0.3842773,-0.0078125,-0.152832,0.8984375,0.6655273,-1,-1,0,2,-2,-1,0,-1,12,1,-10,-3,2,-2,0,5,-1.25,-1.25,-1.25,-17.4375,-17.4375,-17.4375,2.422819,3.146001,7.434772,6.846287,5.324418,3.996949,-0.1474439,-0.4479557,1.250386,-0.05023215,0.0225974,1.04814,0.05110337,0.3859954,1.284825,-0.1816995,-0.4353891,1.266749,-0.09260355,0.003539104,1.065549,0.06123105,-0.06188491,1.312168,0.0476911,-0.3733324,1.287762,-0.1063706,0.1270161,1.346349,-0.0292998,-0.3619345,1.274783,-0.1264723,-0.1389388,1.349013,0.2247931,-0.04352314,1.114316,NA,NA,NotTracked,Lasso,
0.9145508,-0.3842773,-0.0078125,-1.031738,0.7744141,0.3901367,-1,-1,0,2,-2,-1,0,-1,-9,-5,-1,-1,-4,-5,0,26,-1.25,-1.25,-1.25,-7.5,-7.5,-7.5,2.422819,3.146001,7.434772,6.848786,5.359023,3.987682,-0.1474413,-0.4495203,1.24963,-0.04962611,0.02096226,1.04688,0.05086303,0.3859582,1.284735,-0.1798023,-0.426858,1.260488,-0.09149939,0.002889435,1.065349,0.06100724,-0.06177573,1.31209,0.04738326,-0.3730984,1.287686,-0.1063564,0.1270487,1.346362,-0.02946539,-0.3618188,1.274865,-0.1264825,-0.1388918,1.349182,0.2249059,-0.04381838,1.114361,NA,NA,NotTracked,Unknown,
0.9145508,-0.3842773,-0.0078125,-0.8579102,0.7822266,0.6298828,-1,-1,0,2,-2,-1,0,-1,4,4,-4,0,2,-1,-2,-8,-1.25,-1.25,-1.25,-9.5625,-9.5625,-9.5625,2.422819,3.146001,7.434772,6.83154,5.380199,3.978571,-0.1478535,-0.4500141,1.250001,-0.05065817,0.01988457,1.046817,0.05070689,0.3859684,1.284634,-0.1813577,-0.4352191,1.262927,-0.09749739,0.002110861,1.066554,0.06085848,-0.06173323,1.312057,0.04711114,-0.3730038,1.287689,-0.1063558,0.1270504,1.346357,-0.02969182,-0.3617582,1.275012,-0.1264964,-0.1388818,1.349263,0.2251521,-0.04420159,1.114611,NA,NA,NotTracked,Unknown,
0.9145508,-0.3842773,-0.0078125,-0.4018555,0.9707031,-0.01220703,-1,-1,0,2,-2,-1,0,-1,1,4,-2,-1,-2,-4,-6,-3,-1.25,-1.25,-1.25,8,8,8,2.422819,3.146001,7.434772,6.848542,5.414338,3.964927,-0.1478613,-0.4493199,1.249498,-0.05024653,0.01929637,1.045179,0.05051491,0.3859028,1.284565,-0.1806931,-0.4292752,1.260755,-0.0968386,0.001172379,1.060701,0.06076416,-0.0616834,1.312032,0.04690431,-0.3729036,1.287695,-0.1063753,0.1270559,1.346357,-0.02984549,-0.3617096,1.275134,-0.1265387,-0.1388611,1.349423,0.2257469,-0.0441292,1.11551,NA,NA,NotTracked,Lasso,
0.9145508,-0.3842773,-0.0078125,-0.7817383,0.871582,0.04101563,-1,-1,0,2,-2,-1,0,-1,-2,5,-8,-5,-3,-1,-3,-5,-1.25,-1.25,-1.25,0.5,0.5,0.5,2.422819,3.146001,7.434772,6.844737,5.405785,3.94334,-0.1482424,-0.4498045,1.249763,-0.0496552,0.01837518,1.043937,0.05032573,0.3859063,1.284562,-0.1840136,-0.4427609,1.26013,-0.09365257,0.0005911955,1.061855,0.06063255,-0.06158914,1.312005,0.04677287,-0.3727836,1.287705,-0.1064247,0.1270481,1.346324,-0.02992783,-0.3616406,1.275204,-0.1266181,-0.1388507,1.349578,0.2265733,-0.04424317,1.117025,NA,NA,NotTracked,Lasso,
0.9145508,-0.3842773,-0.0078125,-0.4423828,0.8789063,-0.159668,-1,-1,0,2,-2,-1,0,-1,-27,0,-6,-6,-4,-12,-6,-5,-1.25,-1.25,-1.25,-3.1875,-3.1875,-3.1875,2.422819,3.146001,7.434772,6.840322,5.377404,3.893815,-0.1480184,-0.4494402,1.246938,-0.04787886,0.01917258,1.041776,0.05022977,0.3858482,1.284482,-0.1820916,-0.4506958,1.254622,-0.08685431,-0.003991463,1.057562,0.0605104,-0.06149311,1.31186,0.04670894,-0.3726234,1.287547,-0.1066706,0.1268864,1.345977,-0.02992975,-0.3615364,1.27506,-0.1267283,-0.1390007,1.349494,0.227314,-0.04538925,1.117794,NA,NA,NotTracked,Lasso,
0.9145508,-0.3842773,-0.0078125,-0.3623047,0.7944336,0.1586914,-1,-1,0,2,-2,-1,0,-1,13,-2,1,1,1,1,2,-2,-1.25,-1.25,-1.25,-6,-6,-6,2.422819,3.146001,7.434772,6.837381,5.385199,3.867538,-0.1479985,-0.4493672,1.246098,-0.0409265,0.01976096,1.039403,0.05011863,0.385835,1.284337,-0.1870726,-0.4710332,1.254857,-0.07734846,-0.008156074,1.057917,0.06049692,-0.06147207,1.311779,0.04673016,-0.3726161,1.287361,-0.1068852,0.1267156,1.345768,-0.0298556,-0.3615673,1.274826,-0.1267584,-0.139202,1.349089,0.2290749,-0.04595922,1.11985,NA,NA,NotTracked,Lasso,
0.9145508,-0.3842773,-0.0078125,0.6103516,1.058594,0.8754883,-1,-1,0,2,-2,-1,0,-1,-1,0,1,8,-1,-1,7,5,-1.25,-1.25,-1.25,0.0625,0.0625,0.0625,2.422819,3.146001,7.434772,6.77264,5.307574,3.728938,-0.1477614,-0.4485668,1.244285,-0.02980518,0.01935937,1.035812,0.05000715,0.3858655,1.284241,-0.1825799,-0.4353237,1.258455,-0.06231827,-0.0104971,1.053,0.06049011,-0.06142445,1.311619,0.04678511,-0.3725469,1.287086,-0.1072821,0.1265282,1.345538,-0.02973631,-0.3615169,1.274551,-0.1268913,-0.1394488,1.34838,0.2344253,-0.04698918,1.123264,NA,NA,NotTracked,Lasso,
0.9145508,-0.3842773,-0.0078125,0.2158203,0.9628906,0.8007813,-1,-1,0,2,-2,-1,0,-1,-1,-2,1,-2,-2,-6,-1,-6,-1.25,-1.25,-1.25,11.0625,11.0625,11.0625,2.422819,3.146001,7.434772,6.739146,5.275479,3.587284,-0.1480447,-0.4480703,1.243837,0.01417292,0.01088253,1.02557,0.04973206,0.3857943,1.284069,-0.1846521,-0.4617499,1.260625,-0.01684688,-0.01159927,1.027571,0.0603599,-0.06135025,1.311431,0.04668331,-0.3724686,1.286915,-0.1099142,0.1260235,1.347481,-0.02976152,-0.3614973,1.274491,-0.1275121,-0.1402833,1.347748,0.2443942,-0.05052978,1.129101,NA,NA,NotTracked,Unknown,
0.9145508,-0.3842773,-0.0078125,-0.2475586,0.8818359,0.515625,-1,-1,0,2,-2,-1,0,-1,8,5,-2,15,-9,1,8,7,-1.25,-1.25,-1.25,19.6875,19.6875,19.6875,2.422819,3.146001,7.434772,6.735352,5.268727,3.502792,-0.1476416,-0.4480377,1.242856,0.02622666,0.01167639,1.023637,0.04905196,0.3859485,1.284117,-0.1846696,-0.4543404,1.258933,-0.01525703,-0.01621511,1.0572,0.06023688,-0.06133342,1.311233,0.04668209,-0.3724864,1.286814,-0.1103941,0.1236244,1.346575,-0.02976782,-0.3615456,1.274471,-0.1281138,-0.142609,1.347346,0.269094,-0.05691883,1.140803,NA,NA,NotTracked,Unknown,
0.9145508,-0.3842773,-0.0078125,-0.3168945,0.9926758,-0.01708984,-1,-1,0,2,-2,-1,0,-1,-4,-1,-2,0,-4,-2,2,1,-1.25,-1.25,-1.25,34.9375,34.9375,34.9375,2.422819,3.146001,7.434772,6.747438,5.246238,3.310656,-0.148364,-0.4463786,1.242362,0.05177132,0.0122232,1.016871,0.04793952,0.3860011,1.28374,-0.182861,-0.4429261,1.248321,0.03220023,-0.01958086,1.028611,0.05994903,-0.06146898,1.310746,0.0466258,-0.3727588,1.286446,-0.1119248,0.1195815,1.347088,-0.02983619,-0.3620148,1.274193,-0.1290203,-0.1467101,1.346844,0.2882489,-0.06182012,1.149744,NA,NA,NotTracked,Unknown,
0.9145508,-0.3842773,-0.0078125,0.3237305,1.179688,0.8388672,-1,-1,0,2,-2,-1,0,-1,4,-1,2,11,11,28,11,3,-1.25,-1.25,-1.25,44.5,44.5,44.5,2.422819,3.146001,7.434772,6.754003,5.224297,3.203875,-0.1481779,-0.4465374,1.242525,0.0953957,0.007101461,1.009033,0.04669518,0.3859292,1.283068,-0.1833513,-0.4354548,1.2597,0.04858585,-0.01136113,1.045333,0.05960588,-0.06158473,1.310293,0.04653603,-0.3731295,1.286039,-0.1119043,0.1185025,1.346153,-0.03009153,-0.3627142,1.273567,-0.1293537,-0.1477186,1.346417,0.3010279,-0.06347127,1.157628,NA,NA,NotTracked,Unknown,
0.9145508,-0.3842773,-0.0078125,0.3237305,1.179688,0.8388672,-1,-1,0,2,-2,-1,0,-1,7,7,3,-2,7,3,5,4,-1.25,-1.25,-1.25,44.5,44.5,44.5,2.422819,3.146001,7.434772,6.754003,5.224297,3.203875,-0.1486514,-0.4475082,1.244502,0.1793031,0.002791421,0.998583,0.04393741,0.38636,1.281642,-0.1835452,-0.4287803,1.2621,0.1411611,-0.01917006,1.009333,0.0585455,-0.06180802,1.309311,0.04609628,-0.3742635,1.285079,-0.1136063,0.116309,1.346396,-0.03095009,-0.3645181,1.272426,-0.1303843,-0.149965,1.346112,0.324773,-0.05939362,1.160525,NA,NA,NotTracked,Closed,
0.9145508,-0.3842773,-0.0078125,-0.190918,0.9033203,0.7749023,-1,-1,0,2,-2,-1,0,-1,10,-1,2,-2,7,-9,-11,2,-1.25,-1.25,-1.25,82,82,82,2.422819,3.146001,7.434772,6.843894,5.146714,2.754182,-0.1492217,-0.4473124,1.245926,0.2203283,0.0018964,0.9995421,0.04263164,0.3864665,1.28068,-0.1831516,-0.4391616,1.256808,0.1875703,-0.02200328,1.001733,0.05795494,-0.06199352,1.308782,0.04575093,-0.3747656,1.284796,-0.1146893,0.1153837,1.34672,-0.03150701,-0.3652201,1.272241,-0.1307773,-0.150939,1.346182,0.3317293,-0.06042831,1.144893,NA,NA,NotTracked,Unknown,
0.9145508,-0.3842773,-0.0078125,-0.3164063,0.8295898,0.7363281,-1,-1,0,2,-2,-1,0,-1,8,-6,0,8,10,0,-2,4,-1.25,-1.25,-1.25,79.3125,79.3125,79.3125,2.422819,3.146001,7.434772,6.909109,5.125318,2.546607,-0.1494469,-0.4460863,1.248476,0.2557569,0.002738595,1.003773,0.04144697,0.3865826,1.279638,-0.1844021,-0.4416588,1.260231,0.2270572,-0.02611873,1.023,0.057435,-0.06209396,1.308252,0.04550898,-0.3752272,1.284513,-0.1151683,0.1149844,1.346789,-0.03190521,-0.365837,1.271978,-0.1310059,-0.1513527,1.346189,0.3466782,-0.05837002,1.14668,NA,NA,NotTracked,Unknown,
0.9145508,-0.3842773,-0.0078125,-0.3364258,0.7104492,0.6601563,-1,-1,0,2,-2,-1,0,-1,-3,-5,-3,-9,-4,-9,-3,-3,-1.25,-1.25,-1.25,69,69,69,2.422819,3.146001,7.434772,6.96882,5.118735,2.374216,-0.149224,-0.4465146,1.249405,0.2811612,0.005374911,1.009744,0.04050292,0.3863499,1.278569,-0.183917,-0.4515473,1.257053,0.2296125,-0.01489716,1.0808,0.05712641,-0.06218191,1.307785,0.04538359,-0.3755065,1.284301,-0.1154715,0.1146775,1.34666,-0.03215304,-0.3661967,1.271738,-0.1312255,-0.1516671,1.345975,0.376272,-0.05818382,1.177763,NA,NA,NotTracked,Unknown,
0.9145508,-0.3842773,-0.0078125,-0.3530273,0.703125,0.644043,-1,-1,0,2,-2,-1,0,-1,2,4,0,-11,-5,3,-2,1,-1.25,-1.25,-1.25,58.8125,58.8125,58.8125,2.422819,3.146001,7.434772,6.992713,5.116669,2.305969,-0.1489206,-0.4483206,1.248754,0.3035194,0.007932456,1.013249,0.03986386,0.3861068,1.277081,-0.1828654,-0.437406,1.262127,0.2497154,-0.0161781,1.051833,0.05678798,-0.0622717,1.307117,0.04533322,-0.3757913,1.283998,-0.1149686,0.1146541,1.34527,-0.03238552,-0.3665621,1.271195,-0.1312856,-0.1515727,1.345834,0.3663525,-0.03415735,1.223517,NA,NA,NotTracked,Unknown,
0.9145508,-0.3842773,-0.0078125,-0.3193359,0.715332,0.565918,-1,-1,0,2,-2,-1,0,-1,-9,-4,0,0,-2,-4,-3,-9,-1.25,-1.25,-1.25,28.875,28.875,28.875,2.422819,3.146001,7.434772,7.003345,5.146632,2.160933,-0.1485429,-0.4473447,1.249107,0.3170703,0.009356281,1.015223,0.03960032,0.3859416,1.275985,-0.1819858,-0.4417688,1.257499,0.2774573,-0.01513726,1.006933,0.0566178,-0.062305,1.306818,0.04532392,-0.3758899,1.283915,-0.115083,0.1145511,1.344955,-0.03250101,-0.3667185,1.270944,-0.1314537,-0.1516631,1.345644,0.3648399,-0.03121367,1.238835,NA,NA,NotTracked,Unknown,
0.9145508,-0.3842773,-0.0078125,-0.3188477,0.7612305,0.4677734,-1,-1,0,2,-2,-1,0,-1,-1,3,2,0,-1,4,6,2,-1.25,-1.25,-1.25,5.125,5.125,5.125,2.422819,3.146001,7.434772,6.992624,5.167379,2.110264,-0.1479173,-0.4476621,1.248747,0.3310739,0.008192643,1.019198,0.03954236,0.3858915,1.275217,-0.180906,-0.4264449,1.261258,0.2692516,-0.008412854,1,0.0565099,-0.06234804,1.306581,0.04536981,-0.3759967,1.283836,-0.1153618,0.1143008,1.344465,-0.0325189,-0.366882,1.270617,-0.1316345,-0.151889,1.345556,0.3644239,-0.02855133,1.252367,NA,NA,NotTracked,Unknown,
0.9145508,-0.3842773,-0.0078125,-0.2543945,0.8046875,0.3959961,-1,-1,0,2,-2,-1,0,-1,2,-5,2,11,4,3,-3,0,-1.25,-1.25,-1.25,-13.25,-13.25,-13.25,2.422819,3.146001,7.434772,6.968484,5.18108,2.085851,-0.1476662,-0.4470855,1.247753,0.3267874,0.01033613,1.020169,0.03981527,0.3857895,1.274233,-0.1822022,-0.4366677,1.259141,0.2753963,-0.01118753,1.004709,0.05651696,-0.06240634,1.306289,0.04553888,-0.3761584,1.283696,-0.1156248,0.1141252,1.343713,-0.03240032,-0.3671038,1.270078,-0.1318043,-0.1520606,1.344961,0.3645578,-0.02808587,1.262088,NA,NA,NotTracked,Unknown,
0.9145508,-0.3842773,-0.0078125,-0.2314453,0.8398438,0.3818359,-1,-1,0,2,-2,-1,0,-1,-2,-2,-2,-3,-2,8,-1,-1,-1.25,-1.25,-1.25,-16.3125,-16.3125,-16.3125,2.422819,3.146001,7.434772,6.955799,5.184845,2.081198,-0.147298,-0.4465917,1.246481,0.3268084,0.00835568,1.020696,0.04008539,0.3858395,1.2736,-0.1821841,-0.4388478,1.259399,0.2796149,-0.01316409,1.005054,0.05658702,-0.06249797,1.305988,0.0458291,-0.3763933,1.283484,-0.1157229,0.1138659,1.34267,-0.03218178,-0.3673647,1.269415,-0.1317632,-0.1523031,1.344292,0.3641058,-0.02950963,1.265879,NA,NA,NotTracked,Unknown,
0.9145508,-0.3842773,-0.0078125,-0.2172852,0.8818359,0.3579102,-1,-1,0,2,-2,-1,0,-1,4,-2,-4,-1,-2,-4,-13,-1,-1.25,-1.25,-1.25,-18.0625,-18.0625,-18.0625,2.422819,3.146001,7.434772,6.943985,5.18747,2.079923,-0.1464932,-0.4461508,1.244741,0.3322788,0.004081715,1.022271,0.04048636,0.3857345,1.273126,-0.1833215,-0.4567924,1.262,0.2695347,-0.01191776,1.006883,0.05657346,-0.06254814,1.305909,0.04604816,-0.3765937,1.283492,-0.115926,0.113684,1.341647,-0.03209156,-0.3674988,1.269195,-0.1328363,-0.152475,1.34267,0.3640819,-0.03120246,1.26724,NA,NA,NotTracked,Unknown,
0.9145508,-0.3842773,-0.0078125,-0.1611328,0.9257813,0.331543,-1,-1,0,2,-2,-1,0,-1,-5,-5,-3,-5,-6,-1,4,3,-1.25,-1.25,-1.25,-16.375,-16.375,-16.375,2.422819,3.146001,7.434772,6.925195,5.187178,2.083406,-0.1459037,-0.4440811,1.242854,0.323206,0.002559556,1.02064,0.04124018,0.3856573,1.272544,-0.1800919,-0.447724,1.250625,0.2728828,-0.01552618,1.003628,0.05666324,-0.0626093,1.305808,0.04645731,-0.3767843,1.283386,-0.1158894,0.1136946,1.340667,-0.03174665,-0.367633,1.2686,-0.1328134,-0.1524528,1.34191,0.363187,-0.03199306,1.266995,NA,NA,NotTracked,Unknown,
0.9145508,-0.3842773,-0.0078125,-0.1611328,0.9257813,0.331543,-1,-1,0,2,-2,-1,0,-1,-12,-2,3,-19,0,2,4,-4,-1.25,-1.25,-1.25,-16.375,-16.375,-16.375,2.422819,3.146001,7.434772,6.925195,5.187178,2.083406,-0.145112,-0.4434759,1.242103,0.3274374,-0.003905581,1.020378,0.04186024,0.3856882,1.272227,-0.1817535,-0.4615087,1.249684,0.2655815,-0.02019324,0.9984444,0.05692837,-0.06274763,1.305706,0.04708271,-0.3770654,1.283377,-0.1158084,0.1137256,1.339939,-0.03130557,-0.367828,1.268215,-0.1333562,-0.1524253,1.340612,0.3617477,-0.03370726,1.265299,NA,NA,NotTracked,Unknown,
0.9145508,-0.3842773,-0.0078125,-0.1196289,0.9672852,0.3125,-1,-1,0,2,-2,-1,0,-1,3,1,-2,-5,-2,2,0,-1,-1.25,-1.25,-1.25,-17.1875,-17.1875,-17.1875,2.422819,3.146001,7.434772,6.898914,5.173074,2.105487,-0.1443643,-0.4439315,1.240064,0.3237215,-0.006838552,1.01952,0.0425142,0.3856392,1.272005,-0.1812618,-0.4423656,1.257215,0.2742722,-0.02786773,1.0025,0.05703668,-0.06281111,1.305677,0.04750844,-0.3772944,1.283487,-0.1157017,0.1136255,1.339142,-0.03105922,-0.3679385,1.267931,-0.1329312,-0.1525923,1.339267,0.3609088,-0.0393828,1.263038,NA,NA,NotTracked,Unknown,
0.9145508,-0.3842773,-0.0078125,-0.1230469,0.984375,0.3251953,-1,-1,0,2,-2,-1,0,-1,-3,0,-4,-4,-4,-5,-2,-3,-1.25,-1.25,-1.25,-12.6875,-12.6875,-12.6875,2.422819,3.146001,7.434772,6.889658,5.162855,2.117952,-0.1443739,-0.4437906,1.239342,0.3195001,-0.01029024,1.01871,0.04324542,0.3856701,1.271857,-0.1821719,-0.448111,1.258692,0.2639863,-0.02856399,0.998,0.05736099,-0.06293721,1.305598,0.04810579,-0.3775748,1.283514,-0.1156352,0.1136546,1.338541,-0.03064359,-0.3681173,1.267635,-0.1328281,-0.1525724,1.338631,0.3611427,-0.04404768,1.260012,NA,NA,NotTracked,Closed,
0.9145508,-0.3842773,-0.0078125,-0.1230469,0.984375,0.3251953,-1,-1,0,2,-2,-1,0,-1,-3,0,-4,-4,-4,-5,-2,-3,-1.25,-1.25,-1.25,-12.6875,-12.6875,-12.6875,2.422819,3.146001,7.434772,6.889658,5.162855,2.117952,-0.1435174,-0.4426197,1.238166,0.3167736,-0.01380688,1.018489,0.04413858,0.3858526,1.271772,-0.1819113,-0.4546629,1.256348,0.2647263,-0.03416251,1.002857,0.05761896,-0.06300871,1.305553,0.04882969,-0.377759,1.283487,-0.1156375,0.1136727,1.338238,-0.02999743,-0.3682524,1.267123,-0.1321256,-0.1526737,1.337359,0.3587421,-0.04665896,1.255225,NA,NA,NotTracked,Closed,
0.9145508,-0.3842773,-0.0078125,-0.1079102,0.9775391,0.3310547,-1,-1,0,2,-2,-1,0,-1,-4,1,-7,-6,-5,-6,-5,-6,-1.25,-1.25,-1.25,-10.9375,-10.9375,-10.9375,2.422819,3.146001,7.434772,6.886476,5.157307,2.122689,-0.1431516,-0.4435098,1.238257,0.3106434,-0.01548244,1.018927,0.04505753,0.3858416,1.271636,-0.1809651,-0.4320701,1.258789,0.2490454,-0.03024357,1.001778,0.05796286,-0.06308474,1.305587,0.04943278,-0.3779515,1.283579,-0.1156152,0.1136604,1.338099,-0.02950467,-0.3683758,1.266804,-0.1315714,-0.1527787,1.336379,0.3563401,-0.048999,1.251399,NA,NA,NotTracked,Unknown,
0.9145508,-0.3842773,-0.0078125,-0.09863281,0.9550781,0.3393555,-1,-1,0,2,-2,-1,0,-1,4,-2,3,3,-1,-1,2,4,-1.25,-1.25,-1.25,-11.0625,-11.0625,-11.0625,2.422819,3.146001,7.434772,6.878657,5.146444,2.129864,-0.1424754,-0.4430582,1.238813,0.3080268,-0.01796152,1.017968,0.0458108,0.3857229,1.271531,-0.1819195,-0.4586449,1.259429,0.254529,-0.03969403,1.006583,0.05816589,-0.06314036,1.305671,0.04969465,-0.3780779,1.28379,-0.1155914,0.1136915,1.337972,-0.02942112,-0.3684049,1.266791,-0.1314239,-0.1527646,1.336135,0.3564621,-0.05197232,1.247205,NA,NA,NotTracked,Unknown,
0.9145508,-0.3842773,-0.0078125,-0.09472656,0.9013672,0.3452148,-1,-1,0,2,-2,-1,0,-1,-2,-1,4,6,-1,1,1,1,-1.25,-1.25,-1.25,-14.3125,-14.3125,-14.3125,2.422819,3.146001,7.434772,6.86762,5.131662,2.133936,-0.1420254,-0.4439451,1.238452,0.3097712,-0.02275484,1.017065,0.04644154,0.3857549,1.271498,-0.1814109,-0.441294,1.263893,0.2559071,-0.04465915,1.001062,0.05849087,-0.06319866,1.305748,0.04998276,-0.3782032,1.283943,-0.1155406,0.1136769,1.33792,-0.0292595,-0.3684598,1.266746,-0.1314002,-0.1527912,1.335869,0.3564427,-0.05212631,1.247316,NA,NA,NotTracked,Closed,
0.9145508,-0.3842773,-0.0078125,-0.05517578,0.8544922,0.3652344,-1,-1,0,2,-2,-1,0,-1,0,-2,4,17,-1,-1,2,0,-1.25,-1.25,-1.25,-5.375,-5.375,-5.375,2.422819,3.146001,7.434772,6.859197,5.106287,2.135087,-0.1420995,-0.444046,1.239245,0.3045674,-0.02876569,1.016844,0.0469855,0.3857021,1.271472,-0.1812971,-0.4483582,1.258442,0.2450504,-0.04871704,0.9989999,0.05883582,-0.06331481,1.305806,0.05034048,-0.3783383,1.284058,-0.1154174,0.1136664,1.337782,-0.02898897,-0.3685333,1.266659,-0.1312836,-0.1527952,1.33584,0.3553378,-0.0503544,1.248547,NA,NA,NotTracked,Closed,
0.9145508,-0.3842773,-0.0078125,-0.03955078,0.8012695,0.3632813,-1,-1,0,2,-2,-1,0,-1,1,3,-4,-2,0,0,-4,-2,-1.25,-1.25,-1.25,-6.4375,-6.4375,-6.4375,2.422819,3.146001,7.434772,6.852504,5.062084,2.136493,-0.142635,-0.4447494,1.240929,0.3044174,-0.04041662,1.01682,0.04766408,0.3856785,1.271444,-0.1782715,-0.4374024,1.250207,0.2416181,-0.06263457,1.017667,0.0591245,-0.06341826,1.305968,0.05058067,-0.3784425,1.284307,-0.1153079,0.113685,1.337773,-0.02888819,-0.3685693,1.266694,-0.131114,-0.1527775,1.335887,0.343688,-0.0268618,1.265904,NA,NA,NotTracked,Unknown,
0.9145508,-0.3842773,-0.0078125,-0.02392578,0.7597656,0.3662109,-1,-1,0,2,-2,-1,0,-1,-2,-4,-6,-13,-4,-2,-3,-3,-1.25,-1.25,-1.25,-0.25,-0.25,-0.25,2.422819,3.146001,7.434772,6.851067,5.028694,2.136605,-0.1422826,-0.4445067,1.241186,0.3064717,-0.05716467,1.016365,0.04835048,0.3858199,1.271644,-0.1793122,-0.4441263,1.253961,0.2723454,-0.08542655,0.9952799,0.0594329,-0.06352951,1.306125,0.05076553,-0.378526,1.284431,-0.1150518,0.1137317,1.337689,-0.02879417,-0.3685938,1.266686,-0.1312755,-0.1526973,1.335893,0.3390929,-0.0148649,1.291473,NA,NA,NotTracked,Unknown,
0.9145508,-0.3842773,-0.0078125,0.1245117,0.7084961,0.3730469,-1,-1,0,2,-2,-1,0,-1,-4,0,-2,-3,-2,-1,0,-1,-1.25,-1.25,-1.25,18.5,18.5,18.5,2.422819,3.146001,7.434772,6.866901,4.87211,2.154563,-0.1424801,-0.4434113,1.243042,0.2968256,-0.07708909,1.014519,0.04896981,0.3856938,1.271761,-0.1803102,-0.4461733,1.257959,0.2349788,-0.08117042,1.015333,0.05981065,-0.06363015,1.306284,0.05115675,-0.378587,1.284598,-0.1149181,0.1137262,1.337684,-0.02845298,-0.3686244,1.266679,-0.1311925,-0.1526925,1.335994,0.356052,-0.01939146,1.302557,NA,NA,NotTracked,Unknown,
0.9145508,-0.3842773,-0.0078125,0.03710938,0.6982422,0.3491211,-1,-1,0,2,-2,-1,0,-1,-3,2,1,-8,-2,3,0,-1,-1.25,-1.25,-1.25,47.3125,47.3125,47.3125,2.422819,3.146001,7.434772,6.906766,4.74221,2.177238,-0.1427657,-0.4433539,1.244884,0.2954476,-0.1031944,1.013608,0.04974501,0.3857408,1.272127,-0.1798607,-0.4428863,1.257236,0.2372343,-0.1139073,1.0212,0.06017587,-0.06375467,1.306525,0.05151421,-0.3786749,1.284837,-0.1145986,0.113733,1.337755,-0.02817876,-0.3686762,1.266708,-0.1311549,-0.1526582,1.336194,0.370139,-0.04900296,1.286399,NA,NA,NotTracked,Unknown,
0.9145508,-0.3842773,-0.0078125,0.1035156,0.7426758,0.3359375,-1,-1,0,2,-2,-1,0,-1,1,-1,-1,7,0,-1,0,-1,-1.25,-1.25,-1.25,54.875,54.875,54.875,2.422819,3.146001,7.434772,6.934828,4.668582,2.187693,-0.1424025,-0.4435465,1.243954,0.2911513,-0.1357905,1.014988,0.05032431,0.3856231,1.272295,-0.1804511,-0.4664588,1.254,0.2342685,-0.15695,1.026667,0.06043278,-0.06386045,1.306709,0.05173122,-0.3787467,1.285008,-0.1143696,0.1137598,1.33781,-0.02801217,-0.3687317,1.266757,-0.1307997,-0.1526127,1.336666,0.3775511,-0.05978032,1.26927,NA,NA,NotTracked,Closed,
0.9145508,-0.3842773,-0.0078125,0.1708984,0.7485352,0.324707,-1,-1,0,2,-2,-1,0,-1,-6,-2,-4,-6,0,-1,-1,-4,-1.25,-1.25,-1.25,53.375,53.375,53.375,2.422819,3.146001,7.434772,6.986516,4.50374,2.210448,-0.14234,-0.4434405,1.243561,0.289228,-0.1716605,1.022986,0.05077527,0.3857044,1.272472,-0.1773496,-0.4372804,1.251143,0.2567776,-0.1631772,1.035077,0.06065604,-0.06390838,1.306847,0.05196128,-0.3787796,1.285132,-0.1141022,0.1138437,1.337866,-0.02780153,-0.3687408,1.266778,-0.1307328,-0.152513,1.336771,0.3786891,-0.06902168,1.263328,NA,NA,NotTracked,Closed,
0.9145508,-0.3842773,-0.0078125,0.3588867,0.7871094,0.2641602,-1,-1,0,2,-2,-1,0,-1,5,1,-4,-9,-1,-5,-1,4,-1.25,-1.25,-1.25,43.625,43.625,43.625,2.422819,3.146001,7.434772,7.032174,4.305186,2.234611,-0.1424449,-0.4432937,1.244443,0.2851207,-0.2128397,1.032094,0.05123008,0.385588,1.272637,-0.1792548,-0.4472499,1.254344,0.2440539,-0.2306286,1.065,0.06089301,-0.06402377,1.307024,0.05216345,-0.3788638,1.285241,-0.113882,0.1138206,1.337913,-0.02762087,-0.368797,1.266825,-0.1308853,-0.1524743,1.337337,0.3797002,-0.07781866,1.264945,NA,NA,NotTracked,Unknown,
0.9145508,-0.3842773,-0.0078125,0.5219727,0.8261719,0.2788086,-1,-1,0,2,-2,-1,0,-1,3,-3,-4,-10,-5,-4,-1,1,-1.25,-1.25,-1.25,54.0625,54.0625,54.0625,2.422819,3.146001,7.434772,7.067294,4.096792,2.266336,-0.1420194,-0.4438486,1.244803,0.2813137,-0.2883549,1.062326,0.05220107,0.3854605,1.273142,-0.1784365,-0.4445936,1.257324,0.2549695,-0.3053615,1.097667,0.06154082,-0.06429115,1.307598,0.0528544,-0.3791905,1.285628,-0.1132928,0.1138944,1.338233,-0.02703424,-0.3690155,1.266942,-0.130749,-0.1523604,1.337768,0.3486391,-0.07864505,1.307453,NA,NA,NotTracked,Unknown,
0.9145508,-0.3842773,-0.0078125,0.7324219,0.8642578,0.2353516,-1,-1,0,2,-2,-1,0,-1,-2,-1,-2,3,-1,2,0,-2,-1.25,-1.25,-1.25,56.375,56.375,56.375,2.422819,3.146001,7.434772,7.11858,3.901353,2.291721,-0.1420325,-0.4426337,1.242493,0.2761253,-0.3235715,1.080312,0.05276115,0.3852716,1.273308,-0.1808277,-0.4356601,1.2665,0.2447144,-0.3519799,1.11875,0.06191284,-0.06445812,1.307693,0.05351187,-0.3794864,1.28565,-0.1130666,0.1138764,1.338255,-0.02634594,-0.3692861,1.266725,-0.1307006,-0.1523738,1.337672,0.3448017,-0.08581385,1.303466,NA,NA,NotTracked,Unknown,
0.9145508,-0.3842773,-0.0078125,0.7143555,0.878418,0.2285156,-1,-1,0,2,-2,-1,0,-1,-10,-2,0,3,-1,-2,-2,1,-1.25,-1.25,-1.25,56.875,56.875,56.875,2.422819,3.146001,7.434772,7.148767,3.819059,2.293694,-0.1420039,-0.4427257,1.243053,0.2736566,-0.3470337,1.104348,0.0532899,0.3851935,1.273395,-0.1798997,-0.4493847,1.260548,0.2398159,-0.3472855,1.107833,0.06237943,-0.0647563,1.307818,0.05411469,-0.3797815,1.285718,-0.1127653,0.1138763,1.33828,-0.0257812,-0.3695158,1.266547,-0.1304404,-0.152385,1.337496,0.3379326,-0.09937816,1.299874,NA,NA,NotTracked,NotTracked,
0.9145508,-0.3842773,-0.0078125,0.8334961,0.7963867,0.1669922,-1,-1,0,2,-2,-1,0,-1,0,-4,-3,-5,-2,-2,-1,-3,-1.25,-1.25,-1.25,67.25,67.25,67.25,2.422819,3.146001,7.434772,7.244737,3.669027,2.262561,-0.1416245,-0.4426294,1.24262,0.2751315,-0.3697833,1.117148,0.05391355,0.3850234,1.273595,-0.1783827,-0.4456243,1.255126,0.2404586,-0.3544242,1.122079,0.06287836,-0.06502138,1.308007,0.05490377,-0.3802422,1.285975,-0.1125247,0.1138979,1.338301,-0.02511719,-0.3698266,1.266366,-0.1304629,-0.1523359,1.337642,0.329328,-0.104523,1.297297,NA,NA,NotTracked,NotTracked,
0.9145508,-0.3842773,-0.0078125,0.9584961,0.7753906,-0.05761719,-1,-1,0,2,-2,-1,0,-1,5,1,1,-2,-1,-1,-1,-4,-1.25,-1.25,-1.25,27.375,27.375,27.375,2.422819,3.146001,7.434772,7.336075,3.533416,2.20399,-0.1412421,-0.4421719,1.241676,0.2744588,-0.3910434,1.134969,0.05471663,0.3848167,1.273859,-0.1795329,-0.4441878,1.258374,0.2384135,-0.3814584,1.14175,0.06359337,-0.06533817,1.308152,0.05598238,-0.3807173,1.286103,-0.1122315,0.1138579,1.338248,-0.02405857,-0.3701919,1.266183,-0.1303871,-0.1523568,1.337637,0.3178171,-0.1103508,1.294339,NA,NA,NotTracked,NotTracked,
0.9145508,-0.3842773,-0.0078125,0.9331055,0.5839844,-0.09716797,-1,-1,0,2,-2,-1,0,-1,-7,0,0,-1,-1,-1,-2,-1,-1.25,-1.25,-1.25,13.8125,13.8125,13.8125,2.422819,3.146001,7.434772,7.407221,3.410053,2.137322,-0.1408182,-0.4439723,1.240567,0.27495,-0.4052234,1.151407,0.05547928,0.3847105,1.274017,-0.1789485,-0.4448213,1.255459,0.2373003,-0.3980467,1.141727,0.06422053,-0.06560742,1.308273,0.05699741,-0.381258,1.286211,-0.1115979,0.1138884,1.338177,-0.02307112,-0.3706066,1.265893,-0.1303361,-0.1522829,1.337582,0.3092475,-0.1141688,1.292786,NA,NA,NotTracked,NotTracked,
0.9145508,-0.3842773,-0.0078125,0.9799805,0.5766602,-0.1044922,-1,-1,0,2,-2,-1,0,-1,-2,0,-2,-3,-1,1,2,0,-1.25,-1.25,-1.25,27.0625,27.0625,27.0625,2.422819,3.146001,7.434772,7.52518,3.317156,2.039559,-0.1412283,-0.4442798,1.241193,0.2749375,-0.4167114,1.165761,0.05630866,0.3845488,1.2741,-0.1804179,-0.4388705,1.260741,0.2376681,-0.4052251,1.168302,0.06503151,-0.06598139,1.308398,0.05817543,-0.3818345,1.286162,-0.111342,0.1138193,1.338136,-0.0218874,-0.371138,1.265615,-0.1299417,-0.1524068,1.336887,0.3039197,-0.1166737,1.291436,NA,NA,NotTracked,NotTracked,
0.9145508,-0.3842773,-0.0078125,0.9868164,0.6303711,-0.1279297,-1,-1,0,2,-2,-1,0,-1,-2,-3,0,1,0,-2,1,0,-1.25,-1.25,-1.25,12.875,12.875,12.875,2.422819,3.146001,7.434772,7.580347,3.286218,1.986916,-0.1410483,-0.4438698,1.241192,0.2753877,-0.4212423,1.178609,0.05716062,0.3844411,1.274111,-0.17991,-0.4362923,1.258336,0.2360175,-0.4196541,1.163906,0.06590815,-0.06625256,1.308529,0.0594755,-0.3821415,1.286178,-0.1110945,0.113788,1.338168,-0.02060593,-0.3714545,1.265364,-0.1298295,-0.1524277,1.336917,0.2997117,-0.1185101,1.290148,NA,NA,NotTracked,NotTracked,
0.9145508,-0.3842773,-0.0078125,0.9804688,0.5507813,-0.1503906,-1,-1,0,2,-2,-1,0,-1,3,-1,-2,0,-1,1,-2,-3,-1.25,-1.25,-1.25,-27.6875,-27.6875,-27.6875,2.422819,3.146001,7.434772,7.647424,3.241692,1.892969,-0.1408096,-0.4441709,1.241602,0.275384,-0.4257881,1.188816,0.05800069,0.3844571,1.274369,-0.1806379,-0.4656202,1.253222,0.2341462,-0.4254056,1.182065,0.06648222,-0.06643431,1.308736,0.06026944,-0.3823785,1.286319,-0.1108478,0.1137721,1.338197,-0.01984711,-0.3716825,1.26539,-0.1297753,-0.1524292,1.336939,0.2963522,-0.1198613,1.289361,NA,NA,NotTracked,NotTracked,
0.9145508,-0.3842773,-0.0078125,0.9448242,0.4541016,-0.1572266,-1,-1,0,2,-2,-1,0,-1,1,0,0,0,0,-1,-1,0,-1.25,-1.25,-1.25,-30.3125,-30.3125,-30.3125,2.422819,3.146001,7.434772,7.672166,3.211428,1.828629,-0.1417001,-0.4445457,1.242613,0.2730847,-0.4247038,1.197059,0.05868198,0.3844029,1.274235,-0.1796812,-0.4383187,1.258964,0.2331501,-0.4324884,1.181161,0.06701937,-0.06658152,1.30886,0.06102818,-0.3826009,1.286565,-0.1104988,0.1139021,1.338315,-0.01929733,-0.3717915,1.26545,-0.1298783,-0.1522582,1.337165,0.2958132,-0.1259792,1.289909,NA,NA,NotTracked,NotTracked,
0.9145508,-0.3842773,-0.0078125,0.9052734,0.4619141,-0.1083984,-1,-1,0,2,-2,-1,0,-1,-6,-1,-1,0,-3,0,-3,2,-1.25,-1.25,-1.25,-12.1875,-12.1875,-12.1875,2.422819,3.146001,7.434772,7.673294,3.196949,1.810772,-0.1410585,-0.4446662,1.242673,0.2701541,-0.425183,1.199426,0.05922742,0.384359,1.27418,-0.1789856,-0.4427425,1.256341,0.2264605,-0.4097917,1.19,0.06739683,-0.06666925,1.308924,0.0614138,-0.3826942,1.286661,-0.1102967,0.1139719,1.338398,-0.01898976,-0.3718684,1.265521,-0.1299441,-0.1521496,1.337515,0.2940602,-0.1282233,1.289895,NA,NA,NotTracked,NotTracked,
0.9145508,-0.3842773,-0.0078125,0.8847656,0.453125,-0.07177734,-1,-1,0,2,-2,-1,0,-1,-1,-3,0,-2,-1,-1,-2,-2,-1.25,-1.25,-1.25,-0.3125,-0.3125,-0.3125,2.422819,3.146001,7.434772,7.640678,3.196761,1.844097,-0.141244,-0.4446281,1.242832,0.2678775,-0.4249876,1.200025,0.05987569,0.3841179,1.273955,-0.1783784,-0.4409202,1.255029,0.2248125,-0.3757601,1.192526,0.06781959,-0.06676376,1.308949,0.06190428,-0.3827207,1.286776,-0.1100828,0.1140427,1.338476,-0.01854066,-0.3718487,1.265521,-0.1300289,-0.1520353,1.337886,0.2928531,-0.1294772,1.290197,NA,NA,NotTracked,NotTracked,
0.9145508,-0.3842773,-0.0078125,0.8769531,0.4345703,-0.05029297,-1,-1,0,2,-2,-1,0,-1,1,-2,-2,-2,-1,-1,-3,-2,-1.25,-1.25,-1.25,9.5,9.5,9.5,2.422819,3.146001,7.434772,7.617632,3.19915,1.875752,-0.1413943,-0.4449102,1.243168,0.2645033,-0.422644,1.200017,0.06032132,0.3840822,1.273791,-0.1786055,-0.4414672,1.256037,0.2242761,-0.409822,1.191271,0.06800936,-0.06681855,1.309005,0.06213311,-0.3827824,1.28687,-0.1099508,0.1140375,1.338482,-0.01836372,-0.3718721,1.265601,-0.1300528,-0.152015,1.338075,0.2918454,-0.1304091,1.290569,NA,NA,NotTracked,NotTracked,
0.9145508,-0.3842773,-0.0078125,0.8417969,0.4731445,-0.0390625,-1,-1,0,2,-2,-1,0,-1,2,0,0,0,-1,-3,-1,-2,-1.25,-1.25,-1.25,32.3125,32.3125,32.3125,2.422819,3.146001,7.434772,7.588389,3.211221,1.942905,-0.1414189,-0.4450945,1.243171,0.2615505,-0.4217581,1.198303,0.06055189,0.3839919,1.27368,-0.1805561,-0.4356629,1.260786,0.2202525,-0.3759391,1.188765,0.06822266,-0.06690514,1.309073,0.06241346,-0.382856,1.286995,-0.1097894,0.1140875,1.338399,-0.01816195,-0.3719122,1.265674,-0.1299579,-0.1519497,1.338154,0.291302,-0.1310109,1.290839,NA,NA,NotTracked,NotTracked,
0.9145508,-0.3842773,-0.0078125,0.8364258,0.496582,-0.046875,-1,-1,0,2,-2,-1,0,-1,-1,-1,-3,0,1,0,-1,3,-1.25,-1.25,-1.25,32.3125,32.3125,32.3125,2.422819,3.146001,7.434772,7.582076,3.220149,1.970141,-0.1413596,-0.4448352,1.242558,0.2588289,-0.4211796,1.196313,0.06078447,0.3838587,1.273489,-0.178948,-0.4378521,1.257525,0.2185678,-0.3711442,1.186846,0.06833764,-0.06694505,1.309084,0.06248614,-0.3828621,1.287036,-0.1096249,0.1141781,1.338283,-0.01811907,-0.371905,1.265692,-0.1299672,-0.1518417,1.338112,0.2909155,-0.1313719,1.291118,NA,NA,NotTracked,NotTracked,
0.9145508,-0.3842773,-0.0078125,0.8291016,0.4755859,-0.02783203,-1,-1,0,2,-2,-1,0,-1,-2,-1,-1,-2,-3,-2,1,0,-1.25,-1.25,-1.25,5.4375,5.4375,5.4375,2.422819,3.146001,7.434772,7.565881,3.242177,2.018222,-0.1415204,-0.4453461,1.243049,0.2578733,-0.4209365,1.1946,0.0608978,0.3837889,1.273354,-0.1786429,-0.4416513,1.255263,0.2185038,-0.4022864,1.185161,0.0685669,-0.06704409,1.309133,0.06266685,-0.3829209,1.287169,-0.1095306,0.1141902,1.338201,-0.0179755,-0.3719436,1.265818,-0.1298222,-0.1518227,1.338196,0.2905557,-0.131817,1.291203,NA,NA,NotTracked,NotTracked,
0.9145508,-0.3842773,-0.0078125,0.8291016,0.4755859,-0.02783203,-1,-1,0,2,-2,-1,0,-1,-2,-1,-1,-2,-3,-2,1,0,-1.25,-1.25,-1.25,5.4375,5.4375,5.4375,2.422819,3.146001,7.434772,7.565881,3.242177,2.018222,-0.1420505,-0.4450843,1.243161,0.2563871,-0.4203745,1.193336,0.06099837,0.3837048,1.273136,-0.1791413,-0.4423754,1.255217,0.2165327,-0.3764015,1.186696,0.06866211,-0.06706841,1.309163,0.06274764,-0.3829163,1.287262,-0.1094848,0.1142043,1.338251,-0.01791421,-0.3719234,1.265881,-0.1297367,-0.1518112,1.338256,0.290322,-0.1320337,1.291367,NA,NA,NotTracked,NotTracked,
0.9145508,-0.3842773,-0.0078125,0.8608398,0.4272461,-0.01123047,-1,-1,0,2,-2,-1,0,-1,-1,-2,-3,-1,-1,-2,0,-2,-1.25,-1.25,-1.25,-3.125,-3.125,-3.125,2.422819,3.146001,7.434772,7.557528,3.248856,2.024971,-0.1415853,-0.4434535,1.243677,0.2557907,-0.4197955,1.191033,0.06103873,0.383702,1.272968,-0.1800715,-0.4361832,1.261678,0.2168181,-0.4171644,1.18272,0.0687324,-0.06708664,1.30915,0.06278369,-0.3829122,1.287284,-0.1093986,0.1142579,1.338197,-0.01787002,-0.3719324,1.265896,-0.1297419,-0.151749,1.338233,0.2896752,-0.1302482,1.29107,NA,NA,NotTracked,NotTracked,
0.9145508,-0.3842773,-0.0078125,0.8642578,0.4160156,-0.005859375,-1,-1,0,2,-2,-1,0,-1,-1,-1,0,1,-1,0,0,-1,-1.25,-1.25,-1.25,-1.8125,-1.8125,-1.8125,2.422819,3.146001,7.434772,7.555855,3.251217,2.025571,-0.141974,-0.4436617,1.243502,0.25632,-0.4197908,1.189979,0.06103991,0.3836691,1.272902,-0.1786865,-0.4349476,1.255017,0.2158401,-0.3725857,1.185294,0.06880007,-0.06711423,1.309175,0.06282924,-0.382938,1.287358,-0.1093727,0.1142412,1.338242,-0.01781087,-0.3719629,1.265958,-0.1296987,-0.1517691,1.338244,0.2891284,-0.1292731,1.29079,NA,NA,NotTracked,NotTracked,
0.9145508,-0.3842773,-0.0078125,0.8779297,0.4208984,-0.009277344,-1,-1,0,2,-2,-1,0,-1,0,1,-2,-1,0,-1,0,0,-1.25,-1.25,-1.25,2.1875,2.1875,2.1875,2.422819,3.146001,7.434772,7.555762,3.256114,2.027212,-0.1415208,-0.443393,1.242826,0.2559524,-0.4191366,1.188076,0.06103688,0.3834315,1.272702,-0.1811818,-0.4571144,1.25725,0.2161343,-0.384866,1.185371,0.06879517,-0.06713542,1.309195,0.06280848,-0.3829692,1.287456,-0.1093583,0.1142433,1.338279,-0.01784128,-0.3719724,1.266067,-0.1297819,-0.1517588,1.33828,0.2890282,-0.1300756,1.290572,NA,NA,NotTracked,NotTracked,
0.9145508,-0.3842773,-0.0078125,0.8789063,0.421875,-0.00390625,-1,-1,0,2,-2,-1,0,-1,0,0,0,0,-2,-1,-1,1,-1.25,-1.25,-1.25,1.8125,1.8125,1.8125,2.422819,3.146001,7.434772,7.554618,3.258806,2.029393,-0.1420431,-0.4436079,1.243124,0.2555763,-0.4184685,1.185896,0.06097067,0.3833319,1.272507,-0.1793772,-0.4362702,1.25488,0.2185669,-0.4229252,1.170737,0.06881034,-0.06714647,1.309187,0.06278181,-0.3829668,1.287506,-0.1092829,0.1142787,1.338228,-0.01787223,-0.37196,1.266167,-0.1297432,-0.1517138,1.338333,0.2885574,-0.1292475,1.290031,NA,NA,NotTracked,NotTracked,
0.9145508,-0.3842773,-0.0078125,0.8779297,0.4223633,-0.006835938,-1,-1,0,2,-2,-1,0,-1,-2,0,-1,-1,2,2,-3,0,-1.25,-1.25,-1.25,1.1875,1.1875,1.1875,2.422819,3.146001,7.434772,7.546106,3.264257,2.040304,-0.1419454,-0.4441325,1.243331,0.2560664,-0.417886,1.184789,0.06083903,0.3831419,1.272244,-0.178798,-0.4456453,1.253719,0.2154539,-0.3968475,1.178074,0.06888245,-0.06717775,1.309204,0.06281184,-0.3829645,1.287541,-0.1092404,0.1143013,1.338208,-0.01784808,-0.371946,1.266185,-0.1298342,-0.1516743,1.3384,0.2884077,-0.1299141,1.289766,NA,NA,NotTracked,NotTracked,
0.9145508,-0.3842773,-0.0078125,0.8764648,0.4208984,-0.00390625,-1,-1,0,2,-2,-1,0,-1,-1,-1,-1,-2,1,-1,0,1,-1.25,-1.25,-1.25,1.4375,1.4375,1.4375,2.422819,3.146001,7.434772,7.542524,3.265206,2.045159,-0.1411781,-0.445672,1.243214,0.2553788,-0.4172939,1.183751,0.06065614,0.382929,1.271997,-0.1788873,-0.44012,1.257191,0.2128711,-0.3943171,1.181567,0.06888857,-0.06720207,1.309224,0.06277996,-0.3829834,1.287622,-0.1092191,0.1143163,1.338194,-0.01788428,-0.3719903,1.266382,-0.1298206,-0.151652,1.33848,0.287986,-0.1291103,1.289068,NA,NA,NotTracked,NotTracked,
0.9145508,-0.3842773,-0.0078125,0.8725586,0.4238281,-0.009277344,-1,-1,0,2,-2,-1,0,-1,-3,-2,1,0,-1,0,1,-3,-1.25,-1.25,-1.25,2.1875,2.1875,2.1875,2.422819,3.146001,7.434772,7.533638,3.266676,2.057537,-0.1415766,-0.4456302,1.2434,0.2537011,-0.417269,1.182602,0.06046329,0.382908,1.271887,-0.1796935,-0.4430349,1.257825,0.2179746,-0.4192895,1.16453,0.06889831,-0.06721951,1.309227,0.06277874,-0.383001,1.287633,-0.1091888,0.1143412,1.338176,-0.01789111,-0.3720052,1.266426,-0.1298329,-0.1516208,1.338507,0.2879694,-0.130109,1.288723,NA,NA,NotTracked,NotTracked,
0.9145508,-0.3842773,-0.0078125,0.8691406,0.4331055,-0.01708984,-1,-1,0,2,-2,-1,0,-1,0,-2,-1,0,-2,0,-1,-1,-1.25,-1.25,-1.25,5.6875,5.6875,5.6875,2.422819,3.146001,7.434772,7.52945,3.266432,2.068595,-0.1415352,-0.4453708,1.243413,0.2524147,-0.4169576,1.18102,0.0602525,0.3829544,1.271847,-0.183005,-0.4699669,1.25525,0.2130628,-0.403537,1.172211,0.06889325,-0.06722198,1.309222,0.06270677,-0.3829825,1.28765,-0.1091771,0.1143469,1.338175,-0.01797674,-0.3719558,1.266464,-0.1299757,-0.1515838,1.338755,0.2879359,-0.1305058,1.28837,NA,NA,NotTracked,NotTracked,
0.9145508,-0.3842773,-0.0078125,0.8613281,0.4350586,-0.0078125,-1,-1,0,2,-2,-1,0,-1,-1,-1,1,0,-1,-1,0,0,-1.25,-1.25,-1.25,6.9375,6.9375,6.9375,2.422819,3.146001,7.434772,7.52706,3.266387,2.075682,-0.141751,-0.445676,1.243329,0.2521009,-0.4190846,1.179968,0.0599967,0.3828183,1.27164,-0.1806186,-0.4560407,1.255143,0.2136761,-0.4093656,1.171386,0.06892741,-0.06724796,1.309195,0.06269346,-0.3829829,1.287641,-0.1091609,0.1143561,1.338174,-0.01798095,-0.3719569,1.266468,-0.1299322,-0.1515717,1.338827,0.2874039,-0.1294808,1.287534,NA,NA,NotTracked,NotTracked,
0.9145508,-0.3842773,-0.0078125,0.8657227,0.4448242,-0.02099609,-1,-1,0,2,-2,-1,0,-1,0,-2,-1,0,-2,-1,-1,-1,-1.25,-1.25,-1.25,5.5,5.5,5.5,2.422819,3.146001,7.434772,7.526326,3.264744,2.088742,-0.1409966,-0.4451395,1.242449,0.2510033,-0.4191005,1.178913,0.05975154,0.3827614,1.271413,-0.1765407,-0.4311628,1.2535,0.2155725,-0.4172806,1.161756,0.06893338,-0.06728037,1.309171,0.06269847,-0.3830002,1.287629,-0.1092453,0.1142195,1.338433,-0.01797424,-0.3719751,1.266474,-0.1297359,-0.1517432,1.338884,0.2872806,-0.1300808,1.286869,NA,NA,NotTracked,NotTracked,
