ALX,ALY,ALZ,ARX,ARY,ARZ,EMG0L,EMG1L,EMG2L,EMG3L,EMG4L,EMG5L,EMG6L,EMG7L,EMG0R,EMG1R,EMG2R,EMG3R,EMG4R,EMG5R,EMG6R,EMG7R,GLX,GLY,GLZ,GRX,GRY,GRZ,ORL,OPL,OYL,ORR,OPR,OYR,LHNX,LHNY,LHNZ,RHNX,RHNY,RHNZ,HX,HY,HZ,LTX,LTY,LTZ,RTX,RTY,RTZ,SpineMidX,SpineMidY,SpineMidZ,SpineBaseX,SpineBaseY,SpineBaseZ,ShoulderLeftX,ShoulderLeftY,ShoulderLeftZ,ShoulderRightX,ShoulderRightY,ShoulderRightZ,ElbowLeftX,ElbowLeftY,ElbowLeftZ,ElbowRightX,ElbowRightY,ElbowRightZ,Myo_Pose_left,Myo_Pose_Right,Kinect_pose_left,Kinect_pose_right
1.089844,-0.425293,0.08105469,0.9731445,0.609375,0.05029297,0,-2,-2,-1,-1,0,-4,-4,4,-1,0,-1,-2,-2,-3,-2,-3.3125,-3.3125,-3.3125,21.9375,21.9375,21.9375,3.002451,2.9763,6.517801,7.283347,3.379232,0.4374393,-0.02302986,-0.4517506,1.335788,0.3474901,-0.4292043,1.29337,0.1695057,0.3888073,1.397639,0.01808385,-0.4475967,1.294293,0.3029342,-0.438184,1.281278,0.1706584,-0.06131376,1.423638,0.1675186,-0.378255,1.397599,-0.004485446,0.1253866,1.453086,0.08289654,-0.3666546,1.37437,-0.03241593,-0.1377126,1.440353,0.3865803,-0.1236225,1.387143,NA,NA,NotTracked,NotTracked,
1.007324,-0.3867188,0.1625977,0.9033203,0.5288086,-0.0234375,-2,0,1,-1,-1,0,-1,-1,0,-2,-2,0,-1,0,0,-1,61.5,61.5,61.5,-21.5,-21.5,-21.5,2.891449,2.929879,6.706359,7.423478,3.250454,0.2629858,-0.02730538,-0.4540421,1.36103,0.3654053,-0.4412915,1.315927,0.1695493,0.3884268,1.39377,0.01352527,-0.461198,1.311462,0.3174097,-0.4336984,1.2999,0.1706501,-0.0615886,1.423667,0.1676563,-0.3792463,1.399948,-0.004933882,0.1240627,1.451723,0.08289849,-0.3676933,1.376841,-0.03192339,-0.1378505,1.444767,0.3873096,-0.1290448,1.391962,NA,NA,NotTracked,NotTracked,
0.987793,-0.265625,0.1879883,0.9101563,0.5234375,0.05224609,-2,-2,-1,-1,0,-1,-3,-3,0,-1,0,-2,0,1,0,-1,27.0625,27.0625,27.0625,-52.8125,-52.8125,-52.8125,2.933257,2.915117,6.766067,7.484449,3.179433,0.09633961,-0.03302561,-0.4560224,1.373288,0.3742622,-0.4419957,1.329618,0.1695998,0.3883457,1.388922,0.007487589,-0.4421926,1.323461,0.3186216,-0.4298229,1.303154,0.1706833,-0.06181033,1.423409,0.1680247,-0.3795563,1.401464,-0.005070241,0.1234602,1.449982,0.08316469,-0.3680046,1.378268,-0.03130028,-0.1394576,1.453281,0.3898284,-0.1339279,1.398947,NA,NA,NotTracked,NotTracked,
0.9311523,-0.2871094,0.1943359,0.8930664,0.4453125,0.07470703,1,-2,-4,-1,-1,-1,-1,-3,-1,-1,-2,0,1,0,1,-3,13.5,13.5,13.5,-82.4375,-82.4375,-82.4375,3.004557,2.925715,6.72079,7.423969,3.175906,0.01730914,-0.03946458,-0.4524488,1.386196,0.3776041,-0.4401338,1.336575,0.1695392,0.3881004,1.385523,0.001962935,-0.4318152,1.334386,0.3228403,-0.4259468,1.308906,0.1707322,-0.06194496,1.423337,0.1685953,-0.3796236,1.403522,-0.005072544,0.1244953,1.449942,0.08368012,-0.3680536,1.379847,-0.03270034,-0.1391085,1.461108,0.3920877,-0.1365048,1.408138,NA,NA,NotTracked,NotTracked,
0.8891602,-0.2836914,0.1479492,0.8813477,0.418457,0.09228516,-2,-1,-1,-1,-1,-2,0,-1,-2,-2,-1,-1,-1,0,1,-5,17.25,17.25,17.25,-34.8125,-34.8125,-34.8125,3.054783,2.943092,6.699439,7.34579,3.181255,0.005552793,-0.04124106,-0.4512503,1.387627,0.3759065,-0.4370281,1.335545,0.1696176,0.3877791,1.381913,-0.0003187215,-0.4432395,1.337948,0.323146,-0.4062879,1.308209,0.1710561,-0.06223008,1.42301,0.1692186,-0.3797878,1.404933,-0.004953638,0.1243371,1.447719,0.08424492,-0.3682772,1.381244,-0.0331429,-0.1407868,1.465764,0.393476,-0.1372268,1.412584,NA,NA,NotTracked,NotTracked,
0.9643555,-0.2543945,0.1176758,0.8295898,0.4726563,0.08105469,-2,0,-3,1,-2,-1,-3,-2,-1,-1,0,-1,0,0,3,-4,18.3125,18.3125,18.3125,-18.6875,-18.6875,-18.6875,3.066183,2.955814,6.721592,7.268343,3.211901,0.04239233,-0.0430346,-0.4515986,1.386058,0.3735309,-0.435716,1.332011,0.1695002,0.3874146,1.379207,-0.0005093446,-0.4465359,1.337289,0.3668276,-0.4445959,1.293146,0.171299,-0.06257751,1.422577,0.1697288,-0.3799874,1.405717,-0.004679674,0.1241912,1.446074,0.08467193,-0.3685588,1.381981,-0.03343071,-0.140903,1.467525,0.3940189,-0.1376368,1.41509,NA,NA,NotTracked,NotTracked,
0.9692383,-0.2407227,0.07568359,0.8369141,0.4350586,0.04492188,-2,-2,0,-1,-1,-3,-3,-1,-2,-2,-1,-1,-1,-1,0,-1,8.0625,8.0625,8.0625,-16,-16,-16,3.085823,2.971618,6.73463,7.249039,3.227136,0.02961371,-0.0452255,-0.4507226,1.383601,0.3723449,-0.4350305,1.329193,0.1696303,0.3866895,1.37698,5.106739E-05,-0.4367221,1.337248,0.3237824,-0.3992683,1.308707,0.1714935,-0.06283367,1.42232,0.1701357,-0.3801668,1.406202,-0.004487303,0.1239497,1.445076,0.08495271,-0.3687441,1.382232,-0.03379295,-0.1414915,1.46833,0.3940852,-0.1379402,1.416608,NA,NA,NotTracked,NotTracked,
0.965332,-0.2631836,0.09863281,0.8842773,0.4150391,0.02001953,-5,0,-1,-2,-2,-2,-3,-2,1,0,0,-1,0,0,-1,-2,0,0,0,-17,-17,-17,3.098687,2.984798,6.722628,7.255637,3.234066,9.994577,-0.04689614,-0.4485268,1.377837,0.3726932,-0.4333982,1.32632,0.1696731,0.3866448,1.375428,-0.002913014,-0.4317323,1.338597,0.3737872,-0.4551701,1.282686,0.171696,-0.06299037,1.42195,0.1704226,-0.3801173,1.406409,-0.004319974,0.1249472,1.445349,0.08523,-0.3687172,1.382391,-0.03365652,-0.1429937,1.468041,0.3940688,-0.1380783,1.416842,NA,NA,NotTracked,NotTracked,
0.9467773,-0.2519531,0.1123047,0.9008789,0.402832,0.01757813,4,0,-2,-2,-1,0,-1,1,-1,-2,-2,-2,-2,-6,-6,-4,-2.4375,-2.4375,-2.4375,4.0625,4.0625,4.0625,3.12546,2.999554,6.691961,7.285869,3.235051,9.95347,-0.04786485,-0.4472393,1.374285,0.3731491,-0.4341148,1.324455,0.1697342,0.3864577,1.374323,-0.004088445,-0.4534081,1.3315,0.3551139,-0.5021279,1.2676,0.171783,-0.06308006,1.421656,0.1705213,-0.3800755,1.4065,-0.004197575,0.1253945,1.445082,0.08534915,-0.368661,1.382472,-0.0337475,-0.143636,1.46775,0.3940447,-0.138133,1.416836,NA,NA,NotTracked,NotTracked,
0.9555664,-0.2553711,0.1020508,0.8759766,0.3974609,0.04150391,-2,-2,-2,0,-1,-1,-1,-2,0,0,-1,0,15,1,3,1,-1.3125,-1.3125,-1.3125,1.3125,1.3125,1.3125,3.129785,3.007248,6.684071,7.306831,3.239199,9.934649,-0.04860793,-0.4470547,1.370475,0.3750359,-0.4345342,1.324046,0.1697585,0.3863468,1.373735,-0.001747226,-0.4394166,1.334412,0.3773469,-0.4403772,1.2785,0.1718698,-0.06317618,1.42127,0.1706362,-0.3800569,1.406506,-0.004217768,0.1259815,1.44556,0.08549833,-0.3685607,1.382412,-0.03411501,-0.1436096,1.467433,0.3940979,-0.1382528,1.416799,NA,NA,NotTracked,NotTracked,
0.9487305,-0.2558594,0.1083984,0.8745117,0.4355469,0.04589844,-1,-2,0,-1,-2,1,-1,-1,3,1,0,1,-1,2,2,1,-0.9375,-0.9375,-0.9375,7.5,7.5,7.5,3.132387,3.009226,6.680627,7.330781,3.245874,9.918369,-0.04872492,-0.4461825,1.367991,0.3770368,-0.4338329,1.324,0.1697885,0.3862632,1.373296,-0.002336933,-0.4453156,1.33074,0.3816601,-0.4431833,1.277086,0.1719066,-0.06342553,1.42068,0.1706882,-0.3801774,1.406367,-0.004159306,0.1252044,1.443898,0.08550292,-0.3687324,1.382149,-0.03444928,-0.1441097,1.467012,0.3942461,-0.1385777,1.41684,NA,NA,NotTracked,NotTracked,
0.9492188,-0.2685547,0.1220703,0.8740234,0.4067383,0.05078125,1,-1,-1,2,0,0,0,1,1,-1,0,-4,-2,-3,-2,-2,-4.5,-4.5,-4.5,-5.0625,-5.0625,-5.0625,3.129753,3.006945,6.677009,7.347008,3.251826,9.89486,-0.04929103,-0.444683,1.367895,0.3791491,-0.4326119,1.324408,0.1698464,0.3863145,1.373114,-0.004261315,-0.4509045,1.32863,0.3833801,-0.446183,1.277289,0.1719489,-0.06350359,1.420211,0.1708773,-0.380242,1.406085,-0.004104758,0.1256834,1.444051,0.08574836,-0.3688299,1.38176,-0.03538483,-0.1431999,1.466618,0.3946479,-0.1387578,1.416818,NA,NA,NotTracked,NotTracked,
0.9472656,-0.2626953,0.1225586,0.8701172,0.4321289,0.04296875,1,-1,-2,-1,-1,0,-2,0,0,-1,0,-1,3,-1,-2,-1,-2.6875,-2.6875,-2.6875,3.5,3.5,3.5,3.129687,3.000242,6.670298,7.363922,3.253374,9.879083,-0.04897784,-0.4444982,1.368328,0.3813306,-0.4296916,1.325034,0.1698417,0.3863463,1.372953,-0.003104161,-0.4447022,1.329967,0.4254495,-0.4275646,1.309111,0.1719913,-0.06362795,1.419585,0.170996,-0.3802699,1.405658,-0.004204014,0.1263573,1.444853,0.0859032,-0.3688701,1.381244,-0.03613159,-0.1423588,1.465917,0.3950208,-0.1389825,1.416597,NA,NA,NotTracked,NotTracked,
0.953125,-0.2646484,0.1269531,0.8754883,0.4248047,0.04541016,3,-2,0,1,2,0,1,1,2,0,0,1,2,1,5,1,-3.25,-3.25,-3.25,-4.8125,-4.8125,-4.8125,3.128472,2.993975,6.666693,7.371272,3.253252,9.86663,-0.04886776,-0.4445815,1.368674,0.3825782,-0.4298497,1.323805,0.1698374,0.3864046,1.372837,-0.00384173,-0.4287274,1.3328,0.4281429,-0.412011,1.318706,0.1718881,-0.06366894,1.419208,0.170976,-0.3803457,1.405357,-0.004335187,0.1254906,1.443059,0.08586523,-0.3689716,1.380775,-0.03645671,-0.1422088,1.4655,0.395152,-0.1389654,1.416563,NA,NA,NotTracked,NotTracked,
0.9536133,-0.2705078,0.1201172,0.8647461,0.4296875,0.04443359,-3,-3,-2,-2,-2,-1,-2,-3,-1,-1,-2,0,-1,0,2,-1,-1.8125,-1.8125,-1.8125,8.0625,8.0625,8.0625,3.139581,2.990529,6.652003,7.371056,3.250996,9.871983,-0.04869104,-0.4449495,1.369753,0.3818443,-0.428916,1.323067,0.1698338,0.3863415,1.37274,-0.002874533,-0.4496739,1.327385,0.4277593,-0.414768,1.31853,0.1718234,-0.06380781,1.418822,0.1709158,-0.380413,1.405204,-0.004484279,0.1249738,1.442042,0.0857918,-0.3690468,1.380491,-0.03643937,-0.1428841,1.465162,0.3954276,-0.1390809,1.416324,NA,NA,NotTracked,NotTracked,
0.9575195,-0.2841797,0.137207,0.8642578,0.4404297,0.03955078,-2,-1,-1,0,0,-1,-1,-1,-3,-1,0,-1,-1,-2,-2,-2,-3.0625,-3.0625,-3.0625,6.375,6.375,6.375,3.159222,2.993416,6.627333,7.355083,3.254006,9.903604,-0.04845864,-0.4439862,1.369134,0.3792575,-0.4277152,1.320718,0.1697691,0.3862966,1.37268,-0.003313139,-0.4212452,1.33019,0.376915,-0.463392,1.341083,0.1717598,-0.0638717,1.41857,0.1708101,-0.3804968,1.4048,-0.004478082,0.1244062,1.4413,0.08569073,-0.3691119,1.380048,-0.03654167,-0.1428545,1.464962,0.3954553,-0.1391219,1.416175,NA,NA,NotTracked,NotTracked,
0.9467773,-0.2866211,0.1367188,0.862793,0.4921875,0.04443359,1,0,0,-1,-3,-1,-5,-1,-2,0,-1,1,9,-4,0,-2,-3.4375,-3.4375,-3.4375,10.125,10.125,10.125,3.17875,3.00036,6.601318,7.32857,3.270752,9.967412,-0.04790099,-0.4425859,1.368669,0.3753384,-0.4254349,1.316237,0.1697297,0.3863374,1.372677,-0.003596819,-0.4126678,1.331304,0.3262684,-0.3754369,1.307739,0.1716439,-0.06392812,1.41838,0.170704,-0.3806034,1.404556,-0.004614018,0.1239056,1.440652,0.08557831,-0.3692032,1.379851,-0.03654629,-0.1429838,1.464738,0.3953993,-0.1390251,1.415588,NA,NA,NotTracked,NotTracked,
0.9487305,-0.3842773,0.09082031,0.8920898,0.4755859,0.03125,-15,-4,1,8,21,13,14,4,4,-2,-2,2,6,1,9,5,13.25,13.25,13.25,-0.1875,-0.1875,-0.1875,3.211987,3.019644,6.571082,7.30158,3.293005,9.999463,-0.0471759,-0.4403354,1.366169,0.3713119,-0.4199093,1.311003,0.1696459,0.3863738,1.372687,-0.003296155,-0.4024968,1.330889,0.3221501,-0.4201351,1.305815,0.1714783,-0.0639343,1.418127,0.1705465,-0.3806397,1.404329,-0.004666022,0.1237915,1.440362,0.08538728,-0.3692346,1.379655,-0.03660268,-0.1425706,1.464616,0.3949956,-0.1387251,1.414486,NA,NA,NotTracked,NotTracked,
1.424316,-0.5517578,0.3764648,1.117188,0.6640625,-0.03076172,0,-7,-21,4,-21,8,-14,7,11,26,6,7,-2,1,5,4,-40.9375,-40.9375,-40.9375,-60.5,-60.5,-60.5,3.488684,3.203447,6.289519,7.205377,3.369482,0.06089557,-0.04843136,-0.430327,1.35562,0.363056,-0.4056727,1.296413,0.1694607,0.3866073,1.373008,-0.002605729,-0.3938716,1.326733,0.3232837,-0.4095564,1.294107,0.1714275,-0.06385764,1.417899,0.1704691,-0.3805339,1.403995,-0.004811203,0.1237447,1.44033,0.0852904,-0.369084,1.379417,-0.03704341,-0.1417495,1.464494,0.3948756,-0.1383656,1.413093,NA,NA,NotTracked,NotTracked,
1.417969,-0.7265625,1.000488,1.344238,0.9863281,0.1240234,-6,3,10,-27,-27,-9,-3,-4,-12,7,25,8,3,6,2,-19,-203.5,-203.5,-203.5,57.8125,57.8125,57.8125,3.539682,3.678105,5.91046,7.074636,3.615404,0.2677363,-0.04579723,-0.3881654,1.293514,0.3415282,-0.3618761,1.23267,0.1691583,0.3868628,1.373287,-0.01804795,-0.3694209,1.266762,0.2995141,-0.376598,1.24125,0.1712999,-0.06361645,1.417467,0.1701935,-0.3800561,1.403224,-0.005076532,0.1258786,1.444074,0.08498769,-0.3684999,1.378843,-0.04231131,-0.1390479,1.465426,0.3977491,-0.1345713,1.409675,NA,NA,NotTracked,Closed,
-0.1704102,-0.4951172,0.3120117,0.4951172,1.428711,0.453125,21,7,-4,-11,0,2,-9,19,5,-8,-7,4,15,21,5,61,-36.625,-36.625,-36.625,79.75,79.75,79.75,3.588569,4.531897,5.583086,7.054564,4.13983,0.5402945,-0.02055843,-0.2646699,1.192983,0.2964005,-0.2472033,1.170275,0.1686774,0.3870643,1.373509,0.02862877,-0.279636,1.208667,0.2531494,-0.2772085,1.214267,0.1708639,-0.0628904,1.41671,0.1694022,-0.3782885,1.401076,-0.005448953,0.1278247,1.446768,0.0844041,-0.3669898,1.377173,-0.06057292,-0.09332208,1.465216,0.4171304,-0.08166585,1.405139,NA,NA,Unknown,Unknown,
0.0625,-0.5517578,0.5029297,-0.1958008,0.4448242,0.1445313,-15,0,14,-2,-6,-7,1,-10,-8,1,-2,-3,14,16,10,4,-81.4375,-81.4375,-81.4375,42.3125,42.3125,42.3125,3.473767,5.021274,5.437796,7.053214,4.969471,0.750186,0.005718669,-0.1198012,1.116653,0.2749895,-0.1120097,1.108163,0.1679996,0.3872479,1.373986,-0.01154132,-0.1553157,1.098143,0.2168538,-0.1258186,1.142,0.170696,-0.06211879,1.41688,0.1693009,-0.3768854,1.4011,-0.005466085,0.1294923,1.447121,0.08447964,-0.3658412,1.377035,-0.0960024,-0.0829015,1.427345,0.4324337,-0.07558028,1.380473,NA,NA,Unknown,Unknown,
0.1054688,-0.4804688,0.5463867,-0.04736328,0.7104492,0.309082,-35,-2,7,-4,-5,1,-2,-1,2,3,2,5,28,4,-5,21,-3.3125,-3.3125,-3.3125,50.0625,50.0625,50.0625,3.423044,5.33162,5.351933,7.169357,5.419369,0.877941,0.02801802,-0.02024907,1.102787,0.2448765,-0.02146616,1.086528,0.1673643,0.3874927,1.375389,0.01602084,-0.04897135,1.077,0.1897905,-0.04143777,1.106909,0.1704792,-0.06068005,1.418221,0.1694651,-0.3743893,1.402643,-0.00476064,0.1323486,1.446363,0.0849354,-0.3638826,1.377901,-0.08729023,-0.08149973,1.40092,0.4234621,-0.06446733,1.316174,NA,NA,Closed,Unknown,
0.09912109,-0.5390625,0.3959961,-0.1049805,0.5180664,0.331543,36,-1,-4,-2,0,-3,10,-5,0,3,-1,-3,-25,-10,-35,-1,-23.9375,-23.9375,-23.9375,-2.4375,-2.4375,-2.4375,3.405581,5.432997,5.33549,7.204446,5.656325,0.9781789,0.03432623,0.02006871,1.102457,0.2322063,0.02483127,1.085639,0.1665409,0.3879542,1.377949,0.00633938,0.03585828,1.095278,0.1884872,0.000466597,1.0899,0.1704718,-0.05985343,1.419627,0.1695553,-0.373084,1.403711,-0.005377526,0.1381129,1.445322,0.08515619,-0.362547,1.378867,-0.104032,-0.09450088,1.415184,0.4066402,-0.0654899,1.287749,NA,NA,Closed,NotTracked,
-0.1000977,-0.7568359,0.5717773,-0.1035156,0.753418,0.2329102,13,3,7,11,8,12,1,-1,2,7,-4,-6,-22,-4,31,11,15.5,15.5,15.5,-6.25,-6.25,-6.25,3.442166,5.34428,5.372212,7.215358,5.66085,0.9981222,0.0366958,0.01542889,1.102191,0.2254821,0.02400535,1.088107,0.1661073,0.3886081,1.380947,0.004374848,0.02167918,1.0822,0.21266,0.06005238,1.084727,0.1705055,-0.05948601,1.420675,0.1697993,-0.3726504,1.404297,-0.005414912,0.1393479,1.445861,0.08546574,-0.3619964,1.379397,-0.1016629,-0.1004784,1.404824,0.4038726,-0.0674554,1.283956,NA,NA,NotTracked,NotTracked,
-0.1269531,-0.8320313,0.6450195,-0.2583008,0.9013672,0.1899414,-38,-2,-7,-2,-6,-1,8,-9,6,-7,-8,-9,-60,-11,-44,-11,29.625,29.625,29.625,-21.6875,-21.6875,-21.6875,3.51788,5.229203,5.422034,7.158775,5.540312,0.9637011,0.03631304,-0.01480929,1.095316,0.2167247,-0.0095382,1.078445,0.1657935,0.3885798,1.382695,0.00253261,-0.01285396,1.076136,0.1762979,-0.02002265,1.10275,0.1704962,-0.05930896,1.421111,0.1698782,-0.3725042,1.404375,-0.004966862,0.1395885,1.444836,0.08560659,-0.3618636,1.379379,-0.06783193,-0.07596929,1.373848,0.4434787,-0.09973952,1.298822,NA,NA,NotTracked,NotTracked,
-0.1118164,-0.6875,0.5361328,-0.1733398,0.8916016,0.2514648,-14,9,11,3,-3,2,19,-58,-2,-1,0,-1,11,4,33,3,17.125,17.125,17.125,-48.625,-48.625,-48.625,3.562957,5.091462,5.463615,7.059996,5.395643,0.9063784,0.03944703,-0.04282414,1.097157,0.21309,-0.04877894,1.073508,0.1656723,0.3888167,1.383761,0.004945915,-0.04995635,1.074857,0.1711697,-0.05934489,1.1085,0.1704614,-0.05920226,1.421325,0.169878,-0.3724777,1.404395,-0.004336112,0.138934,1.444151,0.08563964,-0.3618221,1.379345,-0.09731317,-0.09548616,1.496173,0.3941782,-0.06976776,1.301194,NA,NA,NotTracked,NotTracked,
-0.4667969,-0.3847656,0.09472656,-0.2407227,0.8408203,0.1196289,-13,5,-2,-3,-13,-7,-4,19,-7,2,-2,-7,-31,-10,-33,-31,-1.625,-1.625,-1.625,-10.125,-10.125,-10.125,3.574039,4.869333,5.480299,7.055737,5.157383,0.8351075,0.03946758,-0.0855751,1.100487,0.2162309,-0.1001725,1.067305,0.1654328,0.3891662,1.384538,0.004791773,-0.09167363,1.078421,0.1757023,-0.1189644,1.075667,0.1703902,-0.0590451,1.421512,0.1699047,-0.372425,1.404316,-0.003786869,0.1380483,1.444003,0.08570147,-0.3617108,1.379183,-0.05044878,-0.09333258,1.366267,0.4141885,-0.07741337,1.297082,NA,NA,NotTracked,NotTracked,
-0.2651367,-0.5771484,0.4130859,-0.4658203,0.3754883,-0.0009765625,5,-12,-1,27,21,12,1,-1,-12,-15,-19,-46,-32,-21,-62,-72,-45.8125,-45.8125,-45.8125,28.4375,28.4375,28.4375,3.522827,4.566997,5.522734,7.068155,4.79615,0.7926959,0.02376962,-0.1844632,1.10947,0.2335379,-0.1986734,1.06733,0.1652259,0.3892489,1.385681,-0.006047511,-0.1840249,1.077063,0.1865558,-0.2114822,1.0865,0.1703523,-0.0590863,1.421654,0.1698535,-0.3728039,1.403712,-0.003296827,0.1360045,1.446075,0.085873,-0.3620362,1.378673,-0.0790784,-0.09091601,1.408403,0.4171102,-0.07605217,1.31831,NA,NA,NotTracked,Closed,
1.069336,-0.9326172,0.8759766,1.064941,1.045898,0.07177734,0,-2,1,-10,-6,-1,9,-2,0,4,3,-8,5,4,26,49,-35.4375,-35.4375,-35.4375,-64.0625,-64.0625,-64.0625,3.522729,3.996411,5.620075,7.088563,4.371295,0.7552838,0.006294703,-0.2754822,1.134358,0.2517286,-0.2734787,1.08865,0.1654362,0.3895255,1.388798,-0.02286082,-0.285974,1.10572,0.2056789,-0.2671993,1.050769,0.170202,-0.05949274,1.42181,0.1690519,-0.3749857,1.401621,-0.002824395,0.1328925,1.445338,0.08505862,-0.3639474,1.376938,-0.07049085,-0.09445627,1.395072,0.4034492,-0.07559994,1.31186,NA,NA,Closed,Unknown,
0.2480469,-0.831543,0.487793,0.5786133,1.287598,0.1728516,-5,7,2,-7,-4,-1,4,-18,0,8,10,0,14,-3,11,23,30,30,30,46.125,46.125,46.125,3.546089,3.988091,5.595138,7.192369,4.127609,0.8122018,0.01005202,-0.2928775,1.155201,0.2526466,-0.2907999,1.104803,0.1654359,0.3897154,1.389912,-0.02059863,-0.3086096,1.14335,0.2086842,-0.2788093,1.068502,0.170144,-0.0597559,1.42168,0.1687437,-0.3759911,1.400508,-0.002926163,0.1313163,1.445215,0.08460057,-0.3648782,1.376141,-0.05264936,-0.1008067,1.406397,0.3680239,-0.0880347,1.331954,NA,NA,Closed,Closed,
0.4033203,-0.8208008,0.5239258,0.2397461,0.7685547,0.1435547,-2,-3,2,-7,-13,-4,3,-6,5,2,2,6,7,9,-2,36,-8.875,-8.875,-8.875,-6.125,-6.125,-6.125,3.532774,3.990002,5.607213,7.155025,4.120333,0.829327,0.01194365,-0.2958757,1.167729,0.2517122,-0.2944667,1.11366,0.1652628,0.3897401,1.389713,-0.02089951,-0.3085198,1.159765,0.2248039,-0.2898593,1.130008,0.1700641,-0.06005769,1.421097,0.1686114,-0.3765104,1.399661,-0.003606654,0.1300633,1.445246,0.08437707,-0.3652732,1.375692,-0.04869235,-0.09896737,1.41682,0.3692426,-0.08863741,1.333678,NA,NA,Closed,Closed,
0.6992188,-0.6162109,0.5458984,0.3476563,0.9277344,0.1616211,-1,2,2,3,1,0,2,4,-1,-5,-3,1,7,0,3,-5,12.625,12.625,12.625,12.6875,12.6875,12.6875,3.547408,3.956668,5.625279,7.169007,4.116284,0.8357243,0.009582259,-0.3060184,1.170328,0.255197,-0.3032965,1.120054,0.1647616,0.3896091,1.389057,-0.02339762,-0.3191111,1.155037,0.2117337,-0.2945702,1.084055,0.1699437,-0.06034155,1.420732,0.1683903,-0.3768678,1.399135,-0.004185958,0.1288698,1.445371,0.08405508,-0.3655939,1.375463,-0.04600217,-0.1010657,1.418206,0.3699134,-0.08916053,1.335075,NA,NA,Closed,Unknown,
0.6450195,-0.6464844,0.5087891,0.6367188,0.8295898,0.1611328,-10,2,6,11,7,2,-5,6,-4,-1,1,-4,3,-6,4,-15,-5.8125,-5.8125,-5.8125,-2.3125,-2.3125,-2.3125,3.534162,3.945187,5.622935,7.157574,4.063179,0.8281465,0.009735042,-0.3084244,1.169232,0.2579657,-0.3084663,1.121883,0.164423,0.389316,1.388453,-0.02148939,-0.3211212,1.154086,0.2124928,-0.3079306,1.098588,0.1698493,-0.06062667,1.420303,0.1681805,-0.3770932,1.398557,-0.004290024,0.1288079,1.447037,0.08376109,-0.3657816,1.37514,-0.04327239,-0.104944,1.418691,0.3699811,-0.08988338,1.33575,NA,NA,Unknown,Closed,
0.5688477,-0.6264648,0.4970703,0.6152344,0.8046875,0.1494141,0,-3,-1,2,2,1,-5,-3,-3,-4,-3,-1,24,1,-1,38,-10.9375,-10.9375,-10.9375,0.0625,0.0625,0.0625,3.527388,3.963983,5.610372,7.158956,4.055587,0.8270347,0.01069872,-0.3048584,1.170294,0.2589462,-0.3100574,1.12434,0.164329,0.3891232,1.388265,-0.01524925,-0.3291101,1.1446,0.2158074,-0.3001202,1.086333,0.1698034,-0.06083867,1.420076,0.1679537,-0.3773043,1.398031,-0.004345013,0.1287494,1.448297,0.08343665,-0.3660253,1.37478,-0.04219609,-0.1048514,1.41966,0.370147,-0.0904338,1.336334,NA,NA,Closed,Unknown,
0.581543,-0.5957031,0.4707031,0.5517578,0.8027344,0.1831055,-4,0,0,-3,-6,-4,-1,-2,-1,-5,-1,6,3,1,2,-10,-1.875,-1.875,-1.875,-1.375,-1.375,-1.375,3.521896,3.968024,5.610633,7.170961,4.055341,0.8348913,0.01189065,-0.3039157,1.170274,0.2592084,-0.3093871,1.124816,0.164336,0.389046,1.388142,-0.02074992,-0.3203405,1.156918,0.2322908,-0.3121565,1.179714,0.1698405,-0.06101777,1.419893,0.1679826,-0.3775584,1.39756,-0.004450636,0.127814,1.447981,0.08334877,-0.3663143,1.374356,-0.04128054,-0.1054697,1.419504,0.3704044,-0.09088585,1.337256,NA,NA,Closed,Closed,
0.6870117,-0.5776367,0.4130859,0.6176758,0.7294922,0.1459961,2,9,1,-2,-10,-80,-57,-9,9,5,0,2,3,15,-4,-33,0.25,0.25,0.25,-7.9375,-7.9375,-7.9375,3.502996,3.929294,5.634504,7.163619,4.057657,0.8212284,0.01030332,-0.3068037,1.169382,0.2609533,-0.3103596,1.125459,0.1645902,0.388853,1.388178,-0.01706491,-0.329084,1.147766,0.2312117,-0.3104996,1.142571,0.1699734,-0.06115557,1.419787,0.1680678,-0.3777195,1.397197,-0.004245678,0.1273534,1.447748,0.08333401,-0.3664919,1.373928,-0.04051386,-0.1054676,1.419697,0.3711176,-0.09112789,1.338837,NA,NA,Closed,Closed,
0.7255859,-0.5175781,0.324707,0.7021484,0.6508789,0.1445313,2,-22,5,4,2,38,30,7,-12,-7,1,12,-1,-3,-1,-20,-2.375,-2.375,-2.375,-1.5,-1.5,-1.5,3.489495,3.84099,5.655718,7.166952,4.0293,0.8033658,0.00662683,-0.317802,1.174052,0.2642455,-0.3174891,1.131402,0.1649839,0.3885434,1.388005,-0.02748922,-0.3340904,1.175214,0.2199616,-0.3297285,1.138154,0.1700197,-0.06130214,1.419623,0.1680903,-0.3779027,1.3966,-0.00389315,0.1268365,1.447258,0.08320002,-0.3666485,1.373281,-0.03993012,-0.105745,1.420029,0.3726481,-0.09170937,1.34208,NA,NA,Closed,Unknown,
0.4311523,-0.5302734,0.3525391,0.5742188,0.7983398,0.1416016,-8,-13,-3,-1,-1,11,0,-1,17,2,2,0,3,1,-3,9,79.8125,79.8125,79.8125,8.0625,8.0625,8.0625,3.493777,3.722392,5.738986,7.178759,3.981441,0.8038975,-0.0001819582,-0.3410375,1.185935,0.2752994,-0.3409765,1.141258,0.1658168,0.388501,1.388031,-0.02619462,-0.3537698,1.144762,0.2163198,-0.3445656,1.15275,0.170167,-0.06153538,1.419327,0.1680637,-0.3783078,1.395592,-0.003655654,0.1263061,1.446946,0.08276907,-0.3667889,1.372203,-0.03881206,-0.1086792,1.420527,0.3754246,-0.09272732,1.349521,NA,NA,Closed,Unknown,
0.7119141,-0.3417969,0.2680664,0.5083008,0.5688477,0.1523438,-1,-4,-1,-2,-1,4,0,-1,14,2,-1,-2,1,2,0,9,48.9375,48.9375,48.9375,-65.0625,-65.0625,-65.0625,3.476669,3.537072,5.918787,7.155772,3.921157,0.7291919,-0.0160872,-0.3884372,1.213259,0.3043064,-0.3789155,1.164514,0.1668318,0.3884515,1.388226,-0.05349831,-0.4076731,1.201333,0.2505735,-0.3542803,1.1745,0.1704912,-0.06167141,1.419189,0.168254,-0.3784139,1.395354,-0.003822749,0.1266288,1.448332,0.08289123,-0.3668512,1.371944,-0.03747546,-0.1178806,1.420347,0.3783365,-0.103561,1.356527,NA,NA,Unknown,Unknown,
0.9921875,-0.3925781,0.2416992,0.6303711,0.4887695,0.1928711,-1,-2,-2,-4,0,3,2,-1,1,-3,1,-1,0,0,-2,3,81.0625,81.0625,81.0625,-37.9375,-37.9375,-37.9375,3.308846,3.28515,6.243608,7.150026,3.737865,0.5987509,-0.0362862,-0.4302631,1.259901,0.3341172,-0.4133302,1.199744,0.1678503,0.3885633,1.388514,-0.0643786,-0.4488619,1.240562,0.2757725,-0.4143103,1.199286,0.1707411,-0.06199833,1.419209,0.1682839,-0.3791991,1.39593,-0.003787185,0.125653,1.447709,0.08292484,-0.3676361,1.372554,-0.03555322,-0.1352104,1.419757,0.3809716,-0.1183708,1.366222,NA,NA,Unknown,Unknown,
1.175781,-0.3491211,0.05419922,0.9243164,0.6865234,0.05126953,-1,-1,-2,-3,-2,0,-2,-1,-1,0,0,1,0,-1,1,3,97.8125,97.8125,97.8125,-97.4375,-97.4375,-97.4375,2.959597,3.081628,6.805907,7.319166,3.379585,0.1753439,-0.0553031,-0.448877,1.318467,0.3720973,-0.4438463,1.245853,0.168804,0.3890676,1.388507,-0.09778671,-0.4545651,1.333826,0.3507247,-0.4702863,1.258111,0.1709651,-0.06213223,1.419285,0.1684214,-0.3797306,1.39739,-0.00366635,0.1266071,1.449277,0.08321518,-0.367979,1.373555,-0.03563737,-0.1418826,1.423021,0.3831639,-0.1327636,1.374864,NA,NA,Unknown,NotTracked,
1.058105,-0.2675781,-0.06982422,0.9697266,0.4829102,-0.1142578,-1,-1,-1,0,-1,1,-1,0,0,-5,-3,-1,-2,-1,-1,-4,44.9375,44.9375,44.9375,-125.3125,-125.3125,-125.3125,2.394642,2.97546,7.56757,7.506074,3.23559,9.740127,-0.07372518,-0.4594205,1.374389,0.4001483,-0.4586605,1.2979,0.1697291,0.3895795,1.388413,-0.1145369,-0.42954,1.389228,0.4433938,-0.4598905,1.2838,0.1712333,-0.06220239,1.419357,0.1692286,-0.3801873,1.398838,-0.003693753,0.1263835,1.449061,0.08423535,-0.3684886,1.374913,-0.03584725,-0.1473709,1.42959,0.3852876,-0.1391555,1.38288,NA,NA,NotTracked,NotTracked,
1.039551,-0.2670898,0.05810547,1.015137,0.3144531,-0.09619141,1,-1,-1,0,-1,-2,1,-1,-3,-1,0,0,-2,-3,-1,-1,-0.875,-0.875,-0.875,-67.75,-67.75,-67.75,2.16642,2.956855,7.826085,7.722939,3.151581,9.330729,-0.09441486,-0.4604425,1.417575,0.4271572,-0.4603201,1.337154,0.1705034,0.3899881,1.387845,-0.1298241,-0.4441933,1.433318,0.4647695,-0.4355191,1.330391,0.1715462,-0.06222148,1.419159,0.1697256,-0.3803084,1.39939,-0.003305195,0.1257097,1.446376,0.08472385,-0.3686072,1.37524,-0.03813441,-0.1506014,1.444425,0.392713,-0.1475518,1.395658,NA,NA,NotTracked,NotTracked,
1.015137,-0.2915039,0.1337891,0.9848633,0.4003906,-0.006347656,0,-1,-2,-1,-3,-2,-1,0,0,0,-2,-1,1,0,0,0,21.875,21.875,21.875,-16.1875,-16.1875,-16.1875,2.163926,2.947133,7.854249,7.834499,3.116952,9.153938,-0.09664702,-0.4597593,1.440013,0.4421741,-0.4554832,1.361794,0.1712948,0.3904975,1.386831,-0.1308363,-0.4363299,1.456429,0.4776023,-0.4332635,1.356,0.1722877,-0.06208162,1.418419,0.1704766,-0.3801661,1.39957,-0.002773637,0.1258309,1.444633,0.08554249,-0.3683931,1.375255,-0.04381791,-0.150927,1.463021,0.4023,-0.1547432,1.411112,NA,NA,NotTracked,NotTracked,
