ALX,ALY,ALZ,ARX,ARY,ARZ,EMG0L,EMG1L,EMG2L,EMG3L,EMG4L,EMG5L,EMG6L,EMG7L,EMG0R,EMG1R,EMG2R,EMG3R,EMG4R,EMG5R,EMG6R,EMG7R,GLX,GLY,GLZ,GRX,GRY,GRZ,ORL,OPL,OYL,ORR,OPR,OYR,LHNX,LHNY,LHNZ,RHNX,RHNY,RHNZ,HX,HY,HZ,LTX,LTY,LTZ,RTX,RTY,RTZ,SpineMidX,SpineMidY,SpineMidZ,SpineBaseX,SpineBaseY,SpineBaseZ,ShoulderLeftX,ShoulderLeftY,ShoulderLeftZ,ShoulderRightX,ShoulderRightY,ShoulderRightZ,ElbowLeftX,ElbowLeftY,ElbowLeftZ,ElbowRightX,ElbowRightY,ElbowRightZ,Myo_Pose_left,Myo_Pose_Right,Kinect_pose_left,Kinect_pose_right
0.8017578,0.6118164,0.2626953,0.9619141,-0.2685547,0.121582,-2,1,7,3,-1,0,4,7,-2,-2,-2,-2,-1,-1,-1,-1,62.3125,62.3125,62.3125,4.75,4.75,4.75,7.031681,3.425761,9.149303,3.03371,2.947024,6.331087,-0.1848599,-0.4489665,1.355353,0.1862419,-0.3993203,1.294084,0.02188861,0.3985387,1.415793,-0.137708,-0.4254614,1.320304,0.1603579,-0.4079578,1.3029,0.01243417,-0.06128852,1.434415,0.004381289,-0.3826474,1.415361,-0.1564404,0.1212976,1.438036,-0.07672004,-0.370701,1.384722,-0.1883605,-0.1462057,1.447231,0.2391486,-0.1388479,1.435238,NA,NA,NotTracked,NotTracked,
0.7890625,0.6391602,0.2514648,0.9619141,-0.2685547,0.121582,8,-1,-1,-4,-1,2,2,9,-2,-2,-2,-2,-1,-1,-1,-1,106.4375,106.4375,106.4375,4.75,4.75,4.75,6.970274,3.563283,9.404096,3.03371,2.947024,6.331087,-0.1841749,-0.4490249,1.35659,0.1698839,-0.387797,1.276353,0.0218233,0.3984874,1.415936,-0.1351798,-0.4529427,1.319116,0.1489915,-0.4258328,1.291,0.01216992,-0.06126538,1.434506,0.00324057,-0.3824981,1.415134,-0.1537699,0.1211992,1.436806,-0.07805546,-0.3703797,1.384775,-0.1880191,-0.1436942,1.448068,0.2392564,-0.1362662,1.430825,NA,NA,NotTracked,NotTracked,
0.7988281,0.7875977,0.2875977,0.9619141,-0.2685547,0.121582,-8,-4,-11,20,3,6,5,10,-2,-2,-2,-2,-1,-1,-1,-1,132.25,132.25,132.25,4.75,4.75,4.75,6.976915,3.690787,9.582216,3.03371,2.947024,6.331087,-0.184236,-0.4494908,1.357229,0.148403,-0.3731935,1.254376,0.02175965,0.3984728,1.416022,-0.1353731,-0.4524606,1.32042,0.1154656,-0.342474,1.267,0.01106478,-0.06113404,1.434523,-0.0004799,-0.3816917,1.414219,-0.1543575,0.1210685,1.438276,-0.08181835,-0.3692694,1.384677,-0.1876389,-0.1411713,1.448944,0.2392652,-0.1258862,1.421869,NA,NA,NotTracked,Unknown,
0.7739258,0.9511719,0.3198242,0.9619141,-0.2685547,0.121582,-1,1,-8,-27,-3,0,4,6,-2,-2,-2,-2,-1,-1,-1,-1,108.125,108.125,108.125,4.75,4.75,4.75,6.979854,3.860887,9.764585,3.03371,2.947024,6.331087,-0.1838813,-0.4507534,1.357001,0.1275916,-0.3477726,1.238423,0.02162472,0.3984286,1.416264,-0.1361832,-0.4431151,1.320546,0.09629223,-0.3157912,1.20725,0.009918286,-0.0609371,1.434536,-0.004022498,-0.3810009,1.413566,-0.1546933,0.1209816,1.439253,-0.08544481,-0.368071,1.384455,-0.187255,-0.1409784,1.449034,0.2399077,-0.1163014,1.413898,NA,NA,NotTracked,Unknown,
0.7495117,0.9331055,0.3530273,0.9619141,-0.2685547,0.121582,-1,-3,-6,-4,4,0,6,-4,-2,-2,-2,-2,-1,-1,-1,-1,91.25,91.25,91.25,4.75,4.75,4.75,6.974653,3.962322,9.852386,3.03371,2.947024,6.331087,-0.1831603,-0.4509357,1.357996,0.0612978,-0.2865886,1.22115,0.02117109,0.3982754,1.417196,-0.1360206,-0.4417531,1.321482,0.0457404,-0.2459916,1.181235,0.009745243,-0.06088282,1.435079,-0.004042213,-0.3808292,1.414134,-0.1550282,0.1210827,1.44034,-0.085256,-0.3678105,1.38546,-0.186175,-0.1387447,1.449306,0.2413044,-0.1009301,1.395235,NA,NA,NotTracked,Unknown,
0.6547852,0.9414063,0.4555664,0.9619141,-0.2685547,0.121582,-2,5,21,8,2,-1,-2,1,-2,-2,-2,-2,-1,-1,-1,-1,88.375,88.375,88.375,4.75,4.75,4.75,6.971728,4.190231,0.02901239,3.03371,2.947024,6.331087,-0.18297,-0.4511067,1.358337,0.02898803,-0.2455998,1.216845,0.02105498,0.3983105,1.417814,-0.1355575,-0.449596,1.321223,-0.01734077,-0.1880117,1.235762,0.009852665,-0.06074129,1.435896,-0.003258619,-0.38043,1.415676,-0.1551167,0.1211709,1.440803,-0.08393785,-0.3677606,1.387212,-0.1857234,-0.1380665,1.449645,0.2435307,-0.09381002,1.385527,NA,NA,NotTracked,Unknown,
0.5170898,0.9628906,0.4345703,0.9619141,-0.2685547,0.121582,-16,-14,-10,-19,-6,-3,1,-9,-2,-2,-2,-2,-1,-1,-1,-1,65.6875,65.6875,65.6875,4.75,4.75,4.75,6.986683,4.448323,0.1896539,3.03371,2.947024,6.331087,-0.1824659,-0.4511321,1.359197,0.007262081,-0.1992421,1.216072,0.02097855,0.3983631,1.418897,-0.1360472,-0.4392156,1.324722,-0.04026837,-0.1462819,1.2476,0.01022165,-0.06063389,1.436865,-0.002321523,-0.3802799,1.416704,-0.1550944,0.1210912,1.441032,-0.08258041,-0.3678496,1.388589,-0.1852504,-0.1391362,1.45015,0.2429114,-0.09249923,1.374042,NA,NA,NotTracked,Unknown,
0.2758789,0.8916016,0.4262695,0.9619141,-0.2685547,0.121582,1,2,13,13,-2,-1,-1,-6,-2,-2,-2,-2,-1,-1,-1,-1,23.5,23.5,23.5,4.75,4.75,4.75,6.994807,4.857109,0.4088362,3.03371,2.947024,6.331087,-0.1824037,-0.4508794,1.358777,-0.006830189,-0.1494465,1.222523,0.0211184,0.3982943,1.419218,-0.135894,-0.4386533,1.323723,-0.02974229,-0.07460716,1.248105,0.01046575,-0.06040644,1.437296,-0.001719874,-0.3798047,1.417094,-0.1548946,0.1212717,1.441296,-0.08187465,-0.3674575,1.389124,-0.1852373,-0.1386565,1.450224,0.2361857,-0.09096899,1.354784,NA,NA,NotTracked,Unknown,
0.1230469,0.793457,0.3837891,0.9619141,-0.2685547,0.121582,-28,-11,-1,-12,-4,-2,-7,-4,-2,-2,-2,-2,-1,-1,-1,-1,-3.5,-3.5,-3.5,4.75,4.75,4.75,6.993722,5.123266,0.5390413,3.03371,2.947024,6.331087,-0.1824708,-0.4511628,1.358563,-0.01241039,-0.1035972,1.23368,0.02143789,0.3982459,1.419873,-0.1359513,-0.4446418,1.323002,0.009167206,-0.07065719,1.189961,0.01079596,-0.06015157,1.437608,-0.0008635239,-0.3789371,1.417318,-0.1516431,0.1221413,1.439074,-0.08096264,-0.3666875,1.389459,-0.1853509,-0.1391006,1.449996,0.2339804,-0.08840459,1.341552,NA,NA,NotTracked,Unknown,
0.03076172,0.7358398,0.3798828,0.9619141,-0.2685547,0.121582,-29,9,11,17,1,1,5,-5,-2,-2,-2,-2,-1,-1,-1,-1,-6.25,-6.25,-6.25,4.75,4.75,4.75,7.003765,5.361529,0.659337,3.03371,2.947024,6.331087,-0.181885,-0.4524243,1.356205,-0.06008513,0.001084069,1.241982,0.02207104,0.3978786,1.420739,-0.1360885,-0.4403485,1.324348,-0.05094923,0.05159151,1.2752,0.01141562,-0.05968254,1.438296,7.601392E-05,-0.3779005,1.417625,-0.1496292,0.1220391,1.437214,-0.07958689,-0.3655681,1.390571,-0.1848401,-0.1396729,1.44989,0.2270561,-0.08331621,1.32088,NA,NA,NotTracked,Open,
-0.1147461,0.6708984,0.2739258,0.9619141,-0.2685547,0.121582,-2,-6,-10,13,0,0,-6,-3,-2,-2,-2,-2,-1,-1,-1,-1,-12.9375,-12.9375,-12.9375,4.75,4.75,4.75,7.018264,5.56875,0.7675187,3.03371,2.947024,6.331087,-0.1816425,-0.4515263,1.354353,-0.06126411,0.03615523,1.256675,0.02238735,0.3978538,1.421129,-0.1358108,-0.4441246,1.322711,-0.06074176,-0.03249112,1.307182,0.01153426,-0.05959754,1.438425,0.0002129111,-0.3777259,1.417685,-0.1491622,0.1221577,1.436432,-0.07939334,-0.3653713,1.390891,-0.1841902,-0.1408867,1.449398,0.2258936,-0.0815589,1.315517,NA,NA,NotTracked,Unknown,
-0.1533203,0.7060547,0.2573242,0.9619141,-0.2685547,0.121582,6,1,-2,-11,0,0,6,0,-2,-2,-2,-2,-1,-1,-1,-1,-11.3125,-11.3125,-11.3125,4.75,4.75,4.75,7.030901,5.649436,0.8195335,3.03371,2.947024,6.331087,-0.1816374,-0.4512383,1.354151,-0.03881528,0.03769523,1.272745,0.02275864,0.3978427,1.421552,-0.135635,-0.4355542,1.323833,-0.03282275,-0.04459899,1.29125,0.01168722,-0.05957435,1.43858,0.0002794449,-0.3776689,1.417712,-0.1484496,0.1223589,1.435408,-0.07932471,-0.3653324,1.390998,-0.1839905,-0.1395048,1.44965,0.2236455,-0.08026712,1.310945,NA,NA,NotTracked,Unknown,
-0.269043,0.7368164,0.2548828,0.9619141,-0.2685547,0.121582,20,14,6,-2,2,-1,-1,5,-2,-2,-2,-2,-1,-1,-1,-1,-17,-17,-17,4.75,4.75,4.75,7.053451,5.799764,0.951649,3.03371,2.947024,6.331087,-0.1813318,-0.4510389,1.351906,-0.03074317,0.04462308,1.283806,0.02304881,0.3977182,1.421733,-0.1347238,-0.4363403,1.32185,-0.0409854,-0.02929207,1.297,0.01182095,-0.05955857,1.438705,0.0003655393,-0.3776481,1.417685,-0.1469096,0.1222717,1.433101,-0.0792887,-0.3653213,1.390963,-0.1834858,-0.1391684,1.449344,0.220746,-0.078038,1.305343,NA,NA,NotTracked,Unknown,
-0.3979492,0.7299805,0.237793,0.9619141,-0.2685547,0.121582,8,10,12,-4,1,-4,-2,8,-2,-2,-2,-2,-1,-1,-1,-1,-19.4375,-19.4375,-19.4375,4.75,4.75,4.75,7.063908,5.843387,1.021339,3.03371,2.947024,6.331087,-0.1814963,-0.4498108,1.350604,-0.06431293,0.08285879,1.301754,0.0232648,0.3976381,1.421876,-0.136811,-0.4087368,1.323158,-0.07890812,0.0267572,1.333375,0.01193143,-0.05954406,1.438724,0.0005146172,-0.3776204,1.417581,-0.1452554,0.1218814,1.431193,-0.07917817,-0.3653322,1.390752,-0.1831058,-0.1388939,1.449107,0.2177457,-0.07661611,1.301775,NA,NA,NotTracked,Unknown,
-0.4301758,0.7368164,0.2373047,0.9619141,-0.2685547,0.121582,-10,-1,3,32,1,-3,-6,-5,-2,-2,-2,-2,-1,-1,-1,-1,-17.125,-17.125,-17.125,4.75,4.75,4.75,7.06688,5.853043,1.047708,3.03371,2.947024,6.331087,-0.1812375,-0.4514891,1.35036,-0.08673645,0.09652238,1.343336,0.02357596,0.3973514,1.422685,-0.1353833,-0.4271099,1.321775,-0.05511153,0.1506956,1.3567,0.01213875,-0.05974804,1.43884,0.0006941928,-0.3779509,1.417187,-0.1441443,0.1214651,1.430297,-0.07917763,-0.365625,1.390462,-0.1829726,-0.137963,1.449376,0.214853,-0.07537638,1.298145,NA,NA,NotTracked,NotTracked,
-0.4750977,0.7763672,0.2163086,0.9619141,-0.2685547,0.121582,-31,-4,1,-27,-3,-2,1,-3,-2,-2,-2,-2,-1,-1,-1,-1,-8.8125,-8.8125,-8.8125,4.75,4.75,4.75,7.073712,5.852559,1.083571,3.03371,2.947024,6.331087,-0.1807909,-0.4518868,1.350529,-0.08703326,0.09764401,1.348661,0.02363477,0.3972151,1.42285,-0.1359917,-0.4180849,1.321802,-0.05540545,0.1512605,1.357375,0.01227117,-0.05984414,1.43893,0.0007408682,-0.378003,1.417106,-0.1439472,0.1213726,1.430277,-0.07916777,-0.3656715,1.390437,-0.1828541,-0.1377575,1.449414,0.214232,-0.07532558,1.297346,NA,NA,NotTracked,NotTracked,
-0.5170898,0.7963867,0.2075195,0.9619141,-0.2685547,0.121582,19,-3,0,10,5,6,-1,-2,-2,-2,-2,-2,-1,-1,-1,-1,-2.3125,-2.3125,-2.3125,4.75,4.75,4.75,7.07641,5.850327,1.098302,3.03371,2.947024,6.331087,-0.1813844,-0.4514404,1.35061,-0.08783118,0.09709157,1.34996,0.02373265,0.3970652,1.423012,-0.1345891,-0.4507888,1.317517,-0.05589494,0.1510808,1.356904,0.01231644,-0.05988954,1.43891,0.0007977009,-0.3781163,1.416819,-0.1438384,0.1213066,1.430237,-0.0791678,-0.365779,1.390268,-0.1826866,-0.1381146,1.449284,0.2134762,-0.07520343,1.296538,NA,NA,NotTracked,NotTracked,
-0.581543,0.824707,0.1855469,0.9619141,-0.2685547,0.121582,5,5,5,2,1,-7,-18,-7,-2,-2,-2,-2,-1,-1,-1,-1,-3.75,-3.75,-3.75,4.75,4.75,4.75,7.070742,5.852532,1.08914,3.03371,2.947024,6.331087,-0.1815307,-0.4531014,1.351618,-0.08730108,0.09825595,1.350857,0.02379646,0.3970354,1.423286,-0.1359168,-0.4158109,1.321378,-0.0548908,0.1522624,1.358536,0.01234343,-0.05993494,1.438952,0.000742138,-0.3782212,1.416708,-0.1436608,0.1212509,1.430192,-0.07926371,-0.3658831,1.390234,-0.1826791,-0.1381859,1.449309,0.2133656,-0.07528769,1.296402,NA,NA,NotTracked,NotTracked,
-0.5371094,0.8427734,0.2290039,0.9619141,-0.2685547,0.121582,20,1,1,-3,-3,0,5,19,-2,-2,-2,-2,-1,-1,-1,-1,14.625,14.625,14.625,4.75,4.75,4.75,7.060504,5.854884,1.033901,3.03371,2.947024,6.331087,-0.1817509,-0.4528409,1.352263,-0.08806394,0.09788664,1.348352,0.02389126,0.3969835,1.423601,-0.1358743,-0.4255198,1.320768,-0.05475233,0.1520914,1.357981,0.01252346,-0.06003322,1.438945,0.0008771533,-0.3783392,1.416446,-0.1434444,0.1211767,1.430073,-0.07920561,-0.3659936,1.390072,-0.1825498,-0.1380915,1.44923,0.2130283,-0.07535776,1.296214,NA,NA,NotTracked,NotTracked,
-0.5483398,0.8442383,0.2089844,0.9619141,-0.2685547,0.121582,-16,-7,-3,9,-6,-5,-3,-4,-2,-2,-2,-2,-1,-1,-1,-1,12.0625,12.0625,12.0625,4.75,4.75,4.75,7.056984,5.853344,1.012337,3.03371,2.947024,6.331087,-0.1818752,-0.4531631,1.35227,-0.08855734,0.09709655,1.344955,0.02392328,0.3969414,1.423641,-0.1357467,-0.4271446,1.320488,-0.05308129,0.1543395,1.360226,0.0125772,-0.06006273,1.438934,0.0009144134,-0.3784227,1.416297,-0.1431292,0.1210606,1.429793,-0.07920732,-0.3661057,1.389838,-0.1824203,-0.1381549,1.449089,0.2129133,-0.0753405,1.29611,NA,NA,NotTracked,NotTracked,
-0.5151367,0.8427734,0.2670898,0.9619141,-0.2685547,0.121582,10,-2,-10,-32,15,22,-3,6,-2,-2,-2,-2,-1,-1,-1,-1,9,9,9,4.75,4.75,4.75,7.022281,5.836096,0.9230176,3.03371,2.947024,6.331087,-0.1827742,-0.4520371,1.354848,-0.06829299,0.0916566,1.30612,0.02410979,0.3967919,1.423713,-0.1356921,-0.4403537,1.320519,-0.0623362,0.1377359,1.283375,0.0126543,-0.06007475,1.43899,0.001064211,-0.3784407,1.416187,-0.1422457,0.1209688,1.428566,-0.07904838,-0.3661365,1.389375,-0.1823819,-0.1380368,1.44908,0.213559,-0.07558484,1.297137,NA,NA,NotTracked,Unknown,
-0.5214844,0.8671875,0.2758789,0.9619141,-0.2685547,0.121582,-13,-8,2,9,-12,-12,-15,-14,-2,-2,-2,-2,-1,-1,-1,-1,12.5625,12.5625,12.5625,4.75,4.75,4.75,7.012246,5.828675,0.8892089,3.03371,2.947024,6.331087,-0.1827954,-0.4519406,1.354138,-0.06614672,0.08915714,1.293511,0.02429361,0.3967044,1.423621,-0.1357283,-0.4313134,1.320499,-0.06639107,0.1352942,1.261445,0.01274398,-0.06011917,1.438931,0.001250968,-0.3784616,1.415951,-0.1417905,0.1209892,1.427655,-0.0788674,-0.3661897,1.38897,-0.1822539,-0.1380028,1.448956,0.2137776,-0.07543462,1.297403,NA,NA,NotTracked,Unknown,
-0.4526367,0.8696289,0.3564453,0.9619141,-0.2685547,0.121582,14,10,7,19,27,48,18,4,-2,-2,-2,-2,-1,-1,-1,-1,8.25,8.25,8.25,4.75,4.75,4.75,6.979855,5.800018,0.7987953,3.03371,2.947024,6.331087,-0.1831173,-0.4521253,1.356024,-0.02284325,0.06305818,1.274378,0.02454576,0.396516,1.423595,-0.1356629,-0.4311398,1.320638,0.006719631,0.09997869,1.25097,0.01282147,-0.0601349,1.438947,0.001372509,-0.3784808,1.415923,-0.1409891,0.1208137,1.426487,-0.07875556,-0.3662366,1.388813,-0.1820322,-0.1380516,1.448889,0.2140082,-0.07541955,1.2979,NA,NA,NotTracked,Unknown,
-0.4311523,0.8686523,0.3818359,0.9619141,-0.2685547,0.121582,-24,-6,-7,-11,-12,-40,-46,17,-2,-2,-2,-2,-1,-1,-1,-1,3.0625,3.0625,3.0625,4.75,4.75,4.75,6.968987,5.792012,0.7785079,3.03371,2.947024,6.331087,-0.1830272,-0.4520493,1.35628,-0.02401137,0.06243305,1.272218,0.02466657,0.3963847,1.423578,-0.134981,-0.4651155,1.318087,0.01446399,0.08272284,1.238208,0.01289187,-0.06014219,1.438988,0.001466835,-0.3784737,1.415912,-0.1402281,0.1207423,1.425504,-0.07866943,-0.3662365,1.388762,-0.1817391,-0.1379248,1.448817,0.214461,-0.07516318,1.298588,NA,NA,NotTracked,Unknown,
-0.4208984,0.8344727,0.4150391,0.9619141,-0.2685547,0.121582,21,6,4,-9,-61,2,-40,7,-2,-2,-2,-2,-1,-1,-1,-1,7.4375,7.4375,7.4375,4.75,4.75,4.75,6.958157,5.78744,0.753157,3.03371,2.947024,6.331087,-0.1824871,-0.4513473,1.354133,-0.05947632,0.09191896,1.268675,0.02476051,0.3964047,1.423584,-0.135152,-0.4506772,1.319302,-0.06169315,0.1150151,1.236781,0.01294799,-0.06016868,1.438961,0.001589272,-0.3784853,1.415815,-0.1398354,0.1207692,1.424856,-0.07850821,-0.3662514,1.388398,-0.1818438,-0.1381471,1.448471,0.214945,-0.07522122,1.299248,NA,NA,NotTracked,Unknown,
-0.5058594,0.8369141,0.3452148,0.9619141,-0.2685547,0.121582,37,-11,-9,-9,2,-17,5,7,-2,-2,-2,-2,-1,-1,-1,-1,0.875,0.875,0.875,4.75,4.75,4.75,6.955522,5.809872,0.743964,3.03371,2.947024,6.331087,-0.1830519,-0.451289,1.354254,-0.05914575,0.08336975,1.281878,0.02520384,0.3962265,1.423299,-0.1352071,-0.4530459,1.319177,-0.04343889,0.1078233,1.242944,0.01306732,-0.06022117,1.438941,0.001740852,-0.3785362,1.415751,-0.1388858,0.1206499,1.423681,-0.07836258,-0.366287,1.388047,-0.1815533,-0.1382601,1.447964,0.2161568,-0.07544725,1.300308,NA,NA,NotTracked,Unknown,
-0.5620117,0.7973633,0.2197266,0.9619141,-0.2685547,0.121582,34,0,-7,-4,0,-27,7,14,-2,-2,-2,-2,-1,-1,-1,-1,0.125,0.125,0.125,4.75,4.75,4.75,6.957304,5.830693,0.7506402,3.03371,2.947024,6.331087,-0.1829824,-0.451153,1.353692,-0.03070609,0.06812552,1.284726,0.02538312,0.3960883,1.422937,-0.1356429,-0.4383067,1.321219,-0.004332337,0.08881266,1.241695,0.01311332,-0.06022256,1.43891,0.001793585,-0.3785293,1.415708,-0.1388708,0.1206435,1.423633,-0.07831237,-0.3662768,1.387915,-0.181373,-0.1384335,1.447722,0.2162972,-0.07543491,1.3006,NA,NA,NotTracked,Unknown,
-0.4472656,0.8105469,0.3393555,0.9619141,-0.2685547,0.121582,-65,-3,-4,-3,-7,-12,-3,2,-2,-2,-2,-2,-1,-1,-1,-1,-11.9375,-11.9375,-11.9375,4.75,4.75,4.75,6.960686,5.832945,0.7778516,3.03371,2.947024,6.331087,-0.1827042,-0.451481,1.353013,-0.06217998,0.08015576,1.305409,0.02564416,0.3959013,1.422447,-0.1353425,-0.4506417,1.319427,-0.04119648,0.1144051,1.268,0.01325355,-0.0602778,1.438812,0.001929389,-0.3785548,1.415618,-0.1388755,0.1206446,1.423633,-0.07820678,-0.3662884,1.38777,-0.1812442,-0.1384171,1.447431,0.2164601,-0.07548548,1.300801,NA,NA,NotTracked,Unknown,
-0.5922852,0.9018555,0.2363281,0.9619141,-0.2685547,0.121582,49,2,-10,-28,-20,-31,-2,-16,-2,-2,-2,-2,-1,-1,-1,-1,-22.875,-22.875,-22.875,4.75,4.75,4.75,6.959686,5.834393,0.7956349,3.03371,2.947024,6.331087,-0.1828307,-0.4509642,1.352299,-0.06056391,0.08210483,1.306073,0.02580797,0.3958103,1.422209,-0.1357951,-0.4347685,1.320643,-0.02928875,0.1309579,1.33025,0.01337638,-0.06031054,1.438742,0.002073676,-0.3785976,1.415491,-0.1388793,0.1206404,1.423627,-0.07811318,-0.3663392,1.387673,-0.1809066,-0.1400139,1.446392,0.2165242,-0.07554547,1.300925,NA,NA,NotTracked,Unknown,
-0.4980469,0.7851563,0.2456055,0.9619141,-0.2685547,0.121582,-8,-6,1,-4,14,7,0,-30,-2,-2,-2,-2,-1,-1,-1,-1,-19.5625,-19.5625,-19.5625,4.75,4.75,4.75,6.944226,5.840945,0.8110763,3.03371,2.947024,6.331087,-0.1828701,-0.4512885,1.350999,-0.03571557,0.07034357,1.297206,0.026046,0.3957689,1.4217,-0.1354575,-0.4448301,1.319742,-0.000730826,0.1052186,1.270484,0.01344722,-0.06033141,1.438662,0.002143971,-0.3786092,1.415402,-0.1388813,0.1206384,1.423608,-0.07803889,-0.3663514,1.387468,-0.1807965,-0.1399158,1.445822,0.2165955,-0.0756337,1.301192,NA,NA,NotTracked,Unknown,
-0.4980469,0.7851563,0.2456055,0.9619141,-0.2685547,0.121582,-8,-6,1,-4,14,7,0,-30,-2,-2,-2,-2,-1,-1,-1,-1,-19.5625,-19.5625,-19.5625,4.75,4.75,4.75,6.944226,5.840945,0.8110763,3.03371,2.947024,6.331087,-0.182448,-0.4516996,1.350329,-0.05558861,0.08298162,1.308077,0.02620672,0.395683,1.421492,-0.1356447,-0.4405004,1.319878,-0.04595087,0.1302776,1.304214,0.01348417,-0.06036883,1.438629,0.002123235,-0.3786394,1.415354,-0.1388943,0.1206333,1.4236,-0.07808752,-0.3663844,1.387378,-0.1807771,-0.1397752,1.445636,0.2166791,-0.0759921,1.301936,NA,NA,NotTracked,Unknown,
-0.5058594,0.8276367,0.3061523,0.9619141,-0.2685547,0.121582,-22,-3,-4,-19,-12,3,-2,16,-2,-2,-2,-2,-1,-1,-1,-1,-5.75,-5.75,-5.75,4.75,4.75,4.75,6.932422,5.846253,0.8104519,3.03371,2.947024,6.331087,-0.18213,-0.4508572,1.3495,-0.04387443,0.07736999,1.302486,0.02647891,0.3954717,1.420904,-0.1355482,-0.439055,1.319121,-0.03361698,0.1381314,1.346357,0.01378514,-0.06049394,1.438315,0.002245036,-0.3786504,1.415119,-0.1388952,0.1206339,1.423596,-0.07800029,-0.366402,1.387138,-0.1806892,-0.1399699,1.445189,0.2165016,-0.07617449,1.302261,NA,NA,NotTracked,Unknown,
-0.5405273,0.8413086,0.3232422,0.9619141,-0.2685547,0.121582,29,1,7,8,-9,-7,-6,-16,-2,-2,-2,-2,-1,-1,-1,-1,2.5,2.5,2.5,4.75,4.75,4.75,6.9308,5.847024,0.8041592,3.03371,2.947024,6.331087,-0.182301,-0.4507229,1.35019,-0.05229813,0.08194838,1.309359,0.02666355,0.395374,1.420667,-0.13546,-0.4439783,1.319779,-0.01306976,0.1133775,1.280423,0.01387064,-0.06054883,1.438265,0.002401531,-0.3787318,1.414986,-0.138748,0.1205619,1.423435,-0.07787242,-0.3665009,1.386961,-0.1807248,-0.1405545,1.444954,0.2163009,-0.07642101,1.30287,NA,NA,NotTracked,Unknown,
-0.5498047,0.8291016,0.2993164,0.9619141,-0.2685547,0.121582,9,-5,5,20,2,-11,-10,-17,-2,-2,-2,-2,-1,-1,-1,-1,-2.0625,-2.0625,-2.0625,4.75,4.75,4.75,6.927866,5.847993,0.7997546,3.03371,2.947024,6.331087,-0.1826125,-0.4509152,1.349416,-0.05573695,0.0844949,1.310988,0.02684499,0.3953255,1.420408,-0.1354334,-0.4426596,1.319183,-0.02314904,0.1349408,1.340944,0.01400885,-0.06060974,1.43816,0.002572241,-0.3787622,1.414822,-0.13875,0.120552,1.42342,-0.07770689,-0.36655,1.386688,-0.1806838,-0.140349,1.444824,0.2162873,-0.0764599,1.302984,NA,NA,NotTracked,Unknown,
-0.4731445,0.8017578,0.3408203,0.9619141,-0.2685547,0.121582,-11,9,0,7,-7,1,4,-21,-2,-2,-2,-2,-1,-1,-1,-1,-0.375,-0.375,-0.375,4.75,4.75,4.75,6.923527,5.846649,0.7937382,3.03371,2.947024,6.331087,-0.1822027,-0.4505841,1.349263,-0.05740334,0.08400639,1.312823,0.0270961,0.3952882,1.420098,-0.1355066,-0.4429986,1.319388,-0.02001799,0.1337098,1.339597,0.01410472,-0.06063653,1.438079,0.002703025,-0.3787991,1.414693,-0.1387677,0.1205635,1.423415,-0.07758277,-0.3665819,1.386465,-0.1807039,-0.1402671,1.444381,0.2161777,-0.07648788,1.303003,NA,NA,NotTracked,Unknown,
-0.4599609,0.7895508,0.3608398,0.9619141,-0.2685547,0.121582,-2,3,-4,2,-30,-16,1,-4,-2,-2,-2,-2,-1,-1,-1,-1,12.8125,12.8125,12.8125,4.75,4.75,4.75,6.930283,5.861255,0.7687538,3.03371,2.947024,6.331087,-0.1819991,-0.4501982,1.348793,-0.05729184,0.084864,1.313948,0.02753093,0.3952763,1.419567,-0.1361342,-0.4260456,1.318607,-0.02618891,0.13608,1.345198,0.01425652,-0.06069757,1.437935,0.002810417,-0.3788583,1.414483,-0.1384084,0.1204117,1.423033,-0.07751562,-0.3666308,1.386216,-0.1804265,-0.1399043,1.443964,0.216348,-0.07667341,1.303484,NA,NA,NotTracked,Unknown,
-0.543457,0.8085938,0.2910156,0.9619141,-0.2685547,0.121582,-3,4,3,-8,13,10,-3,2,-2,-2,-2,-2,-1,-1,-1,-1,-8.1875,-8.1875,-8.1875,4.75,4.75,4.75,6.929063,5.867617,0.7692803,3.03371,2.947024,6.331087,-0.182736,-0.4503013,1.34911,-0.05764478,0.08453635,1.315409,0.02767589,0.395293,1.419431,-0.1356861,-0.4351974,1.318712,-0.03382455,0.1280772,1.306025,0.01428706,-0.06070482,1.437897,0.002839008,-0.3788898,1.414428,-0.1382204,0.1203301,1.422819,-0.077501,-0.366668,1.386147,-0.1804902,-0.1400906,1.443749,0.2164674,-0.07669853,1.30357,NA,NA,NotTracked,Unknown,
-0.4916992,0.75,0.3398438,0.9619141,-0.2685547,0.121582,26,0,-4,-12,13,3,-13,-3,-2,-2,-2,-2,-1,-1,-1,-1,-3.125,-3.125,-3.125,4.75,4.75,4.75,6.916409,5.870934,0.7640361,3.03371,2.947024,6.331087,-0.1823386,-0.4512084,1.348134,-0.03642963,0.07665823,1.304068,0.02778222,0.3952852,1.419278,-0.1367102,-0.4212013,1.318283,-0.07615238,0.028347,1.330036,0.01434172,-0.06071178,1.437827,0.002882362,-0.3789068,1.414305,-0.1382374,0.1200899,1.422562,-0.07747545,-0.3666925,1.386007,-0.180514,-0.1400104,1.443595,0.2164387,-0.07673941,1.303856,NA,NA,NotTracked,Unknown,
-0.53125,0.8071289,0.300293,0.9619141,-0.2685547,0.121582,0,2,-1,-12,6,6,-1,7,-2,-2,-2,-2,-1,-1,-1,-1,-6.25,-6.25,-6.25,4.75,4.75,4.75,6.912903,5.86661,0.7657093,3.03371,2.947024,6.331087,-0.1824408,-0.451935,1.348469,-0.03809666,0.0760681,1.305343,0.0279009,0.3953016,1.419134,-0.1363827,-0.418667,1.318465,-0.04348635,0.0421345,1.265485,0.01434999,-0.06073298,1.437786,0.002860947,-0.378961,1.414228,-0.1380671,0.1200344,1.422402,-0.07751779,-0.3667392,1.385945,-0.1804495,-0.1394904,1.443443,0.2164513,-0.0766748,1.303964,NA,NA,NotTracked,Unknown,
-0.5117188,0.7729492,0.3168945,0.9619141,-0.2685547,0.121582,8,2,-6,-10,1,-1,-3,0,-2,-2,-2,-2,-1,-1,-1,-1,-8.0625,-8.0625,-8.0625,4.75,4.75,4.75,6.898612,5.857705,0.7554514,3.03371,2.947024,6.331087,-0.1828327,-0.449349,1.348994,-0.0480549,0.0788365,1.310101,0.02797586,0.3952081,1.41904,-0.1349825,-0.43881,1.3187,-0.07536991,0.02945797,1.314577,0.01440142,-0.06078443,1.437763,0.002877117,-0.3789702,1.414195,-0.138032,0.1200136,1.422381,-0.07751063,-0.3667455,1.385869,-0.1804888,-0.1398823,1.443322,0.2162706,-0.07677006,1.304146,NA,NA,NotTracked,Unknown,
-0.4379883,0.7592773,0.3139648,0.9619141,-0.2685547,0.121582,13,1,0,1,2,-1,-3,-2,-2,-2,-2,-2,-1,-1,-1,-1,-2.1875,-2.1875,-2.1875,4.75,4.75,4.75,6.884146,5.837313,0.7358705,3.03371,2.947024,6.331087,-0.1828767,-0.4506113,1.348661,-0.05603445,0.08047949,1.311548,0.02808128,0.3951643,1.418945,-0.1343542,-0.4485497,1.315964,-0.08120484,0.02177592,1.333637,0.01448575,-0.06082854,1.437661,0.002974295,-0.3790011,1.414101,-0.1380492,0.1200288,1.422389,-0.07742023,-0.3667766,1.385725,-0.1805379,-0.140387,1.443097,0.2162672,-0.07721049,1.305268,NA,NA,NotTracked,Unknown,
-0.3457031,0.7089844,0.2617188,0.9619141,-0.2685547,0.121582,3,0,-2,2,2,0,0,1,-2,-2,-2,-2,-1,-1,-1,-1,-6.1875,-6.1875,-6.1875,4.75,4.75,4.75,6.859036,5.797925,0.6947064,3.03371,2.947024,6.331087,-0.182685,-0.4504988,1.348457,-0.05652737,0.07969972,1.305852,0.02809113,0.3951469,1.418933,-0.1359179,-0.4297898,1.317788,-0.07826637,0.02201691,1.325674,0.0144995,-0.06083471,1.437643,0.003010278,-0.3789865,1.414021,-0.1381431,0.1200317,1.422423,-0.07737352,-0.3667605,1.385538,-0.1805115,-0.1404943,1.4429,0.2168207,-0.07796795,1.307094,NA,NA,NotTracked,Unknown,
-0.2958984,0.6513672,0.3027344,0.9619141,-0.2685547,0.121582,0,-1,-2,1,0,1,-2,-4,-2,-2,-2,-2,-1,-1,-1,-1,-11.125,-11.125,-11.125,4.75,4.75,4.75,6.814349,5.717401,0.6198948,3.03371,2.947024,6.331087,-0.1825472,-0.4501022,1.347322,-0.05852251,0.07353763,1.296019,0.02809892,0.3951369,1.418849,-0.1354144,-0.4363465,1.317701,-0.07561267,0.01674925,1.312385,0.0144983,-0.06081068,1.437559,0.003051114,-0.3789118,1.413905,-0.1384367,0.1201723,1.422609,-0.07734219,-0.3667201,1.385489,-0.1804173,-0.1402195,1.442546,0.2173987,-0.07895759,1.30944,NA,NA,NotTracked,Unknown,
-0.2646484,0.6489258,0.3266602,0.9619141,-0.2685547,0.121582,-2,0,1,-1,1,0,-1,0,-2,-2,-2,-2,-1,-1,-1,-1,1.5,1.5,1.5,4.75,4.75,4.75,6.769947,5.583135,0.5154809,3.03371,2.947024,6.331087,-0.1819798,-0.450571,1.34819,-0.06304595,0.04335651,1.271338,0.02805197,0.3951611,1.418849,-0.1353046,-0.4367523,1.317729,-0.07339937,-0.01232794,1.3111,0.01449485,-0.06078529,1.437545,0.003128445,-0.3788226,1.41389,-0.1390153,0.1203131,1.423093,-0.07723172,-0.3666454,1.385537,-0.1805317,-0.140742,1.442398,0.2199223,-0.08149087,1.316189,NA,NA,NotTracked,Unknown,
-0.1630859,0.6855469,0.3378906,0.9619141,-0.2685547,0.121582,-2,0,0,-1,0,0,0,-2,-2,-2,-2,-2,-1,-1,-1,-1,-3.75,-3.75,-3.75,4.75,4.75,4.75,6.733586,5.382356,0.3909136,3.03371,2.947024,6.331087,-0.1823428,-0.4506981,1.347678,-0.0381389,0.01177793,1.247783,0.02792705,0.3951726,1.418825,-0.1353452,-0.4360337,1.317736,-0.04767371,-0.05446229,1.289588,0.01445005,-0.06070156,1.437515,0.003209704,-0.3786003,1.413782,-0.1398563,0.1205403,1.423926,-0.07711452,-0.3664354,1.385503,-0.1804003,-0.1410457,1.442203,0.2222296,-0.08332017,1.321568,NA,NA,NotTracked,Unknown,
-0.07421875,0.6972656,0.3930664,0.9619141,-0.2685547,0.121582,0,2,1,7,1,0,-1,2,-2,-2,-2,-2,-1,-1,-1,-1,-9.9375,-9.9375,-9.9375,4.75,4.75,4.75,6.714443,5.258256,0.3239513,3.03371,2.947024,6.331087,-0.1812751,-0.4515299,1.346907,-0.001018633,-0.08802693,1.21195,0.02733969,0.3951859,1.418718,-0.1346098,-0.4257369,1.316572,0.01754139,-0.1757296,1.251222,0.01421732,-0.06037451,1.437395,0.003260738,-0.3775688,1.413686,-0.1451095,0.1206371,1.429218,-0.07689232,-0.3654936,1.385501,-0.1806061,-0.1403357,1.442109,0.2286223,-0.08832712,1.339863,NA,NA,NotTracked,Unknown,
-0.005859375,0.65625,0.4023438,0.9619141,-0.2685547,0.121582,0,-1,-2,-5,0,0,1,2,-2,-2,-2,-2,-1,-1,-1,-1,-13.625,-13.625,-13.625,4.75,4.75,4.75,6.698594,5.121938,0.2565473,3.03371,2.947024,6.331087,-0.1812414,-0.4519252,1.347772,0.009866979,-0.1433017,1.198238,0.02645099,0.3954184,1.418996,-0.1350275,-0.4452404,1.3175,-0.02202475,-0.1991898,1.242947,0.01405105,-0.06029744,1.437409,0.003255273,-0.3775539,1.41369,-0.1466913,0.1201303,1.430698,-0.07689872,-0.3654988,1.385516,-0.1813056,-0.1389009,1.442835,0.2311745,-0.08958963,1.349596,NA,NA,NotTracked,Unknown,
0.2856445,0.7753906,0.4492188,0.9619141,-0.2685547,0.121582,-2,0,1,1,0,1,0,-2,-2,-2,-2,-2,-1,-1,-1,-1,-2.625,-2.625,-2.625,4.75,4.75,4.75,6.723118,4.481349,9.95472,3.03371,2.947024,6.331087,-0.1808968,-0.4524055,1.348027,0.02812658,-0.1972418,1.182202,0.02526384,0.3955875,1.419119,-0.1349063,-0.4366643,1.317475,0.01440408,-0.2642678,1.219846,0.01376266,-0.06033378,1.43752,0.003178138,-0.3777906,1.413899,-0.1465847,0.1201247,1.430664,-0.07694969,-0.3656658,1.385625,-0.1812562,-0.1395816,1.442977,0.2353639,-0.09178901,1.364493,NA,NA,NotTracked,Unknown,
0.5053711,0.8046875,0.3251953,0.9619141,-0.2685547,0.121582,-1,-2,-1,0,1,-3,-2,-5,-2,-2,-2,-2,-1,-1,-1,-1,0.625,0.625,0.625,4.75,4.75,4.75,6.807189,4.131595,9.755137,3.03371,2.947024,6.331087,-0.1804276,-0.4523744,1.348093,0.06350184,-0.2480379,1.195103,0.02391531,0.3958037,1.419229,-0.1351995,-0.4374717,1.317923,0.0127414,-0.2554615,1.239842,0.01336901,-0.0603962,1.437518,0.002478075,-0.3779958,1.414093,-0.1465594,0.1201477,1.430645,-0.0776456,-0.365886,1.385576,-0.1813655,-0.1410033,1.442489,0.2778514,-0.107356,1.374431,NA,NA,NotTracked,Unknown,
0.8310547,0.890625,0.4223633,0.9619141,-0.2685547,0.121582,-1,0,-1,3,0,-2,0,-1,-2,-2,-2,-2,-1,-1,-1,-1,-26,-26,-26,4.75,4.75,4.75,6.939768,3.793363,9.493641,3.03371,2.947024,6.331087,-0.1803589,-0.4525999,1.349209,0.1107393,-0.2955759,1.220343,0.02267126,0.3959045,1.419019,-0.134823,-0.459986,1.31629,0.1075195,-0.3481595,1.263444,0.0115515,-0.06039065,1.436964,-0.001101518,-0.3780263,1.412938,-0.1502804,0.1194267,1.432542,-0.08205446,-0.36583,1.383903,-0.1813734,-0.1411344,1.442577,0.2288558,-0.09884115,1.393166,NA,NA,NotTracked,Unknown,
1.324707,0.6313477,0.09228516,0.9619141,-0.2685547,0.121582,1,0,-3,8,3,2,2,1,-2,-2,-2,-2,-1,-1,-1,-1,-19.375,-19.375,-19.375,4.75,4.75,4.75,7.218086,3.502113,9.100626,3.03371,2.947024,6.331087,-0.1805468,-0.4537164,1.34906,0.1986667,-0.4117754,1.223655,0.01974713,0.3960601,1.418293,-0.1348142,-0.4520379,1.316499,0.2039876,-0.433789,1.231909,0.01111532,-0.060882,1.436592,0.001354228,-0.3803512,1.412685,-0.1533321,0.1186953,1.433432,-0.07968254,-0.3682297,1.382633,-0.1831622,-0.1401386,1.442299,0.2249291,-0.1317866,1.386629,NA,NA,NotTracked,Unknown,
1.427734,0.6269531,-0.3754883,0.9619141,-0.2685547,0.121582,-2,-3,-2,-6,-2,-1,1,2,-2,-2,-2,-2,-1,-1,-1,-1,-39.6875,-39.6875,-39.6875,4.75,4.75,4.75,7.598671,3.323244,8.606947,3.03371,2.947024,6.331087,-0.1806929,-0.4530093,1.349908,0.2322708,-0.4407598,1.261659,0.01860967,0.3959702,1.417778,-0.1340724,-0.4389912,1.317294,0.2527268,-0.4703031,1.27475,0.01134513,-0.06114065,1.436498,0.003488942,-0.3813028,1.413013,-0.1542747,0.1185587,1.433689,-0.07736901,-0.3695051,1.382723,-0.1836401,-0.1403123,1.442179,0.2263753,-0.1389985,1.387587,NA,NA,NotTracked,Unknown,
1.179688,0.597168,-0.4277344,0.9619141,-0.2685547,0.121582,1,0,0,6,0,0,1,2,-2,-2,-2,-2,-1,-1,-1,-1,-123.8125,-123.8125,-123.8125,4.75,4.75,4.75,7.854476,3.238609,8.192441,3.03371,2.947024,6.331087,-0.1813027,-0.4527607,1.350258,0.2616432,-0.4566488,1.29861,0.0178855,0.396125,1.417351,-0.1348018,-0.4556982,1.31603,0.2856321,-0.4507059,1.314154,0.01134107,-0.0612625,1.436359,0.003568396,-0.3814029,1.413049,-0.1548582,0.1185488,1.433863,-0.07731315,-0.3696098,1.382766,-0.1841311,-0.1412644,1.442022,0.230754,-0.1490594,1.392088,NA,NA,NotTracked,Unknown,
1.012207,0.2250977,-0.08154297,0.9619141,-0.2685547,0.121582,1,0,1,-3,0,0,-1,-3,-2,-2,-2,-2,-1,-1,-1,-1,-87.75,-87.75,-87.75,4.75,4.75,4.75,7.943752,3.190009,7.960984,3.03371,2.947024,6.331087,-0.1817101,-0.4529283,1.349885,0.280081,-0.4601375,1.330626,0.01713284,0.396117,1.416474,-0.1355735,-0.4313121,1.31659,0.3185198,-0.4384377,1.337238,0.0111989,-0.06129257,1.436179,0.003557444,-0.3814051,1.413061,-0.15557,0.1187674,1.433916,-0.07733983,-0.3696079,1.382763,-0.1846762,-0.142102,1.441892,0.2375486,-0.1543412,1.40276,NA,NA,NotTracked,NotTracked,
0.9365234,0.3706055,0.2929688,0.9619141,-0.2685547,0.121582,-2,-1,-1,1,-3,-2,0,-2,-2,-2,-2,-2,-1,-1,-1,-1,8.5,8.5,8.5,4.75,4.75,4.75,8.00661,3.157454,7.871302,3.03371,2.947024,6.331087,-0.1819094,-0.4529385,1.350314,0.2913322,-0.4590006,1.355531,0.01640401,0.3958945,1.415211,-0.1345408,-0.4545112,1.314,0.3213568,-0.4536431,1.36835,0.01097347,-0.06136432,1.435874,0.003377353,-0.3814064,1.413095,-0.1561999,0.1187489,1.43374,-0.07759679,-0.3695936,1.382758,-0.1849185,-0.1421636,1.441905,0.2479269,-0.1532927,1.418223,NA,NA,NotTracked,NotTracked,
0.9365234,0.3706055,0.2929688,0.9619141,-0.2685547,0.121582,-2,-1,-1,1,-3,-2,0,-2,-2,-2,-2,-2,-1,-1,-1,-1,8.5,8.5,8.5,4.75,4.75,4.75,8.00661,3.157454,7.871302,3.03371,2.947024,6.331087,-0.1828285,-0.4532048,1.350227,0.2964642,-0.4563387,1.370983,0.01556807,0.3957927,1.41305,-0.1349419,-0.4437597,1.315476,0.3352118,-0.4310596,1.372647,0.010564,-0.06157559,1.435215,0.002885586,-0.3815145,1.413035,-0.1564553,0.1187649,1.432923,-0.07821686,-0.3696771,1.382836,-0.1858852,-0.1402605,1.441745,0.2540974,-0.1523269,1.430639,NA,NA,NotTracked,NotTracked,
0.8681641,0.5561523,0.2314453,0.9619141,-0.2685547,0.121582,-1,0,-1,-1,0,0,0,2,-2,-2,-2,-2,-1,-1,-1,-1,-9.75,-9.75,-9.75,4.75,4.75,4.75,7.962821,3.143376,7.903999,3.03371,2.947024,6.331087,-0.1833502,-0.4543546,1.353157,0.2996189,-0.4549512,1.385117,0.01515976,0.3954076,1.41139,-0.1348907,-0.444353,1.315927,0.3037514,-0.4823011,1.411583,0.01032435,-0.06172871,1.434887,0.002321666,-0.38163,1.413191,-0.1562091,0.1190683,1.431774,-0.07889669,-0.3697439,1.383034,-0.1867038,-0.1389064,1.44198,0.2600629,-0.1514967,1.444117,NA,NA,NotTracked,NotTracked,
0.8393555,0.5214844,0.2119141,0.9619141,-0.2685547,0.121582,0,-1,-1,-1,-1,-1,1,-1,-2,-2,-2,-2,-1,-1,-1,-1,-49.375,-49.375,-49.375,4.75,4.75,4.75,7.848666,3.142842,7.967818,3.03371,2.947024,6.331087,-0.1844032,-0.4549424,1.354529,0.301277,-0.4530401,1.392069,0.01480156,0.395123,1.409649,-0.1353365,-0.4586283,1.31597,0.3098646,-0.4757255,1.416273,0.009909248,-0.06195162,1.434326,0.001769317,-0.3817531,1.413128,-0.1557659,0.119781,1.429935,-0.07956489,-0.3698129,1.382985,-0.1871742,-0.139118,1.44154,0.2623684,-0.1507062,1.451817,NA,NA,NotTracked,NotTracked,
0.8339844,0.4833984,0.1977539,0.9619141,-0.2685547,0.121582,-1,1,0,-1,-1,-1,-3,-1,-2,-2,-2,-2,-1,-1,-1,-1,-52.75,-52.75,-52.75,4.75,4.75,4.75,7.718297,3.147573,8.035392,3.03371,2.947024,6.331087,-0.1851903,-0.4553152,1.356932,0.3003384,-0.4521271,1.396212,0.01472604,0.3945271,1.407972,-0.1351099,-0.4484069,1.316803,0.3024666,-0.47988,1.4266,0.009868743,-0.0621,1.434094,0.001672006,-0.3817952,1.4132,-0.1553853,0.1202076,1.42846,-0.07968573,-0.3698776,1.382971,-0.1879065,-0.1399499,1.441017,0.2642125,-0.1507275,1.459464,NA,NA,NotTracked,NotTracked,
0.8305664,0.527832,0.1508789,0.9619141,-0.2685547,0.121582,0,-1,-2,-2,1,-1,1,0,-2,-2,-2,-2,-1,-1,-1,-1,-50,-50,-50,4.75,4.75,4.75,7.590088,3.162071,8.108196,3.03371,2.947024,6.331087,-0.1858135,-0.4546021,1.357572,0.2967842,-0.450628,1.396552,0.01468538,0.3942099,1.40659,-0.1353454,-0.4459378,1.317536,0.3023469,-0.4748326,1.428467,0.009754384,-0.06223477,1.4338,0.001622815,-0.3818079,1.413235,-0.1555905,0.1209781,1.427065,-0.07976793,-0.3698935,1.382919,-0.187968,-0.1397283,1.440318,0.2641366,-0.1503841,1.465602,NA,NA,NotTracked,NotTracked,
0.8017578,0.5327148,0.1113281,0.9619141,-0.2685547,0.121582,-2,-2,-1,0,-1,-1,0,1,-2,-2,-2,-2,-1,-1,-1,-1,-63,-63,-63,4.75,4.75,4.75,7.461412,3.183104,8.171739,3.03371,2.947024,6.331087,-0.1860043,-0.4536043,1.356067,0.2854607,-0.4473198,1.39036,0.01512555,0.3934545,1.40406,-0.1355888,-0.4463965,1.317592,0.2879544,-0.472897,1.418111,0.009906251,-0.06238497,1.433189,0.001732192,-0.381734,1.413322,-0.1509929,0.124629,1.422357,-0.07966249,-0.3698116,1.382736,-0.1877681,-0.1428701,1.437823,0.2600969,-0.1503338,1.472662,NA,NA,NotTracked,NotTracked,
0.8271484,0.4194336,0.02880859,0.9619141,-0.2685547,0.121582,-2,-2,0,-1,0,-2,1,-3,-2,-2,-2,-2,-1,-1,-1,-1,-45.8125,-45.8125,-45.8125,4.75,4.75,4.75,7.355412,3.195466,8.22304,3.03371,2.947024,6.331087,-0.1844702,-0.4533775,1.355786,0.2781661,-0.4465411,1.387927,0.01538278,0.3932805,1.403538,-0.1351756,-0.4484546,1.317892,0.2432754,-0.4741486,1.409,0.01000983,-0.06249928,1.433044,0.002136301,-0.3817788,1.413478,-0.1487184,0.1254404,1.421433,-0.07926527,-0.369809,1.382581,-0.1879491,-0.1435679,1.43736,0.2571863,-0.1503769,1.474883,NA,NA,NotTracked,NotTracked,
0.8383789,0.4438477,0.001953125,0.9619141,-0.2685547,0.121582,-2,-1,-4,-2,-2,-2,-1,-5,-2,-2,-2,-2,-1,-1,-1,-1,-5.75,-5.75,-5.75,4.75,4.75,4.75,7.284354,3.204034,8.285116,3.03371,2.947024,6.331087,-0.1846648,-0.4510447,1.353458,0.2687912,-0.4461335,1.382583,0.0158312,0.3930412,1.402769,-0.1355573,-0.4390722,1.319213,0.2683923,-0.47259,1.403333,0.01025076,-0.06271025,1.432837,0.00304256,-0.3819297,1.413734,-0.1466583,0.1257249,1.420561,-0.07840181,-0.3699427,1.382426,-0.187854,-0.1441805,1.436478,0.253854,-0.150865,1.475701,NA,NA,NotTracked,NotTracked,
0.8696289,0.4663086,-0.01513672,0.9619141,-0.2685547,0.121582,3,1,2,0,-1,-1,-5,0,-2,-2,-2,-2,-1,-1,-1,-1,8.5,8.5,8.5,4.75,4.75,4.75,7.232068,3.21285,8.353992,3.03371,2.947024,6.331087,-0.1837468,-0.4504131,1.352011,0.2584331,-0.4477158,1.379455,0.01638062,0.392859,1.402129,-0.1351021,-0.4462826,1.317638,0.2262173,-0.4660552,1.408222,0.01033352,-0.06277458,1.432859,0.004538201,-0.3822073,1.414193,-0.1448086,0.125706,1.419921,-0.07702041,-0.3702575,1.382413,-0.1879897,-0.1443328,1.435704,0.2505914,-0.1500998,1.476053,NA,NA,NotTracked,NotTracked,
0.8930664,0.4345703,-0.01904297,0.9619141,-0.2685547,0.121582,-1,-1,0,-1,0,-1,1,2,-2,-2,-2,-2,-1,-1,-1,-1,15.4375,15.4375,15.4375,4.75,4.75,4.75,7.188403,3.221223,8.422585,3.03371,2.947024,6.331087,-0.1824563,-0.4511182,1.348587,0.2496158,-0.4477972,1.3744,0.0168395,0.3926288,1.401697,-0.1350725,-0.4459159,1.317063,0.2521986,-0.4759592,1.395111,0.01051249,-0.06294556,1.432869,0.006066541,-0.3827673,1.414555,-0.1432651,0.1250248,1.419242,-0.07556306,-0.3708127,1.382213,-0.1874969,-0.1457625,1.433606,0.2473811,-0.1495996,1.475317,NA,NA,NotTracked,NotTracked,
0.8974609,0.4370117,-0.03222656,0.9619141,-0.2685547,0.121582,1,-2,-1,0,-1,-2,0,0,-2,-2,-2,-2,-1,-1,-1,-1,29.5,29.5,29.5,4.75,4.75,4.75,7.16499,3.229113,8.486007,3.03371,2.947024,6.331087,-0.1821644,-0.4507463,1.345865,0.2387386,-0.4462422,1.372378,0.01725925,0.3925388,1.401348,-0.1345845,-0.4298798,1.315684,0.2441161,-0.4773791,1.396454,0.01072732,-0.06317464,1.432906,0.007786659,-0.3835282,1.414906,-0.1425267,0.1243533,1.418816,-0.07383242,-0.3716092,1.382052,-0.1873739,-0.1461445,1.432516,0.2449021,-0.1492429,1.474614,NA,NA,NotTracked,NotTracked,
0.8974609,0.4370117,-0.03222656,0.9619141,-0.2685547,0.121582,0,-1,0,0,-1,-1,-3,1,-2,-2,-2,-2,-1,-1,-1,-1,29.5,29.5,29.5,4.75,4.75,4.75,7.16499,3.229113,8.486007,3.03371,2.947024,6.331087,-0.1812929,-0.448125,1.343122,0.2319996,-0.4438106,1.370255,0.01759589,0.3924372,1.401217,-0.1331818,-0.4293157,1.314095,0.2362919,-0.4785094,1.393455,0.01095082,-0.06331258,1.433031,0.008935955,-0.3838769,1.415377,-0.1427933,0.1236737,1.417418,-0.07271472,-0.3720222,1.382032,-0.1871873,-0.1462966,1.431953,0.2428716,-0.1488272,1.473693,NA,NA,NotTracked,NotTracked,
0.8867188,0.4555664,-0.01806641,0.9619141,-0.2685547,0.121582,0,1,1,-1,-2,0,-1,2,-2,-2,-2,-2,-1,-1,-1,-1,29.25,29.25,29.25,4.75,4.75,4.75,7.154024,3.239818,8.540998,3.03371,2.947024,6.331087,-0.1798061,-0.448772,1.339378,0.2269401,-0.4398797,1.366576,0.01804293,0.3924477,1.400923,-0.1320947,-0.4372694,1.313422,0.2307715,-0.4769551,1.38896,0.01176934,-0.06339189,1.433011,0.01030958,-0.3839178,1.41563,-0.1426317,0.1235765,1.417379,-0.0713544,-0.3721136,1.381924,-0.1872651,-0.1469949,1.430065,0.2410719,-0.1478726,1.472768,NA,NA,NotTracked,NotTracked,
0.8852539,0.4501953,0.0009765625,0.9619141,-0.2685547,0.121582,0,-1,-1,-1,0,0,1,-1,-2,-2,-2,-2,-1,-1,-1,-1,19.75,19.75,19.75,4.75,4.75,4.75,7.144296,3.252308,8.583591,3.03371,2.947024,6.331087,-0.1782745,-0.4474291,1.336746,0.2242935,-0.438419,1.364398,0.01853495,0.3926138,1.400754,-0.1301303,-0.4284751,1.310409,0.2262896,-0.4791787,1.388312,0.01213663,-0.06330476,1.433003,0.01078712,-0.3837504,1.415775,-0.1440814,0.1244256,1.416051,-0.07071367,-0.3719107,1.381458,-0.1873111,-0.1464664,1.429778,0.2398066,-0.1473252,1.471979,NA,NA,NotTracked,NotTracked,
0.8642578,0.4477539,0.03271484,0.9619141,-0.2685547,0.121582,0,-1,-1,0,0,1,0,-2,-2,-2,-2,-2,-1,-1,-1,-1,16.3125,16.3125,16.3125,4.75,4.75,4.75,7.138624,3.26587,8.613621,3.03371,2.947024,6.331087,-0.1781601,-0.449279,1.334078,0.2205803,-0.4389627,1.361279,0.0188337,0.3925551,1.400754,-0.1286006,-0.4391167,1.308575,0.2214535,-0.4766842,1.385737,0.01235302,-0.06346235,1.433008,0.01103569,-0.383921,1.41582,-0.1467368,0.1226817,1.415739,-0.07048491,-0.3721126,1.381444,-0.1872813,-0.1464587,1.428992,0.2389281,-0.1471881,1.471284,NA,NA,NotTracked,NotTracked,
0.8510742,0.4589844,0.04443359,0.9619141,-0.2685547,0.121582,-1,-2,-1,-1,-1,1,1,-2,-2,-2,-2,-2,-1,-1,-1,-1,15.0625,15.0625,15.0625,4.75,4.75,4.75,7.144771,3.277749,8.628911,3.03371,2.947024,6.331087,-0.1780199,-0.4502856,1.331545,0.2199905,-0.4379945,1.358099,0.01921636,0.3925238,1.400882,-0.1286377,-0.436171,1.308126,0.2221991,-0.4777381,1.3813,0.01252506,-0.06355882,1.433074,0.01119663,-0.3839828,1.415916,-0.1488705,0.121906,1.415742,-0.07036339,-0.3721701,1.381463,-0.1872186,-0.1458854,1.428242,0.238271,-0.1469209,1.470395,NA,NA,NotTracked,NotTracked,
0.8369141,0.4594727,0.06738281,0.9619141,-0.2685547,0.121582,-2,-1,-2,0,-1,0,0,2,-2,-2,-2,-2,-1,-1,-1,-1,8.8125,8.8125,8.8125,4.75,4.75,4.75,7.155576,3.288381,8.630877,3.03371,2.947024,6.331087,-0.1767083,-0.4484375,1.330991,0.2201932,-0.4354174,1.357084,0.01951439,0.392635,1.401028,-0.1287257,-0.4126137,1.308351,0.2610559,-0.4394493,1.34844,0.01267826,-0.06354192,1.433113,0.01126475,-0.3839595,1.416008,-0.1499326,0.1216398,1.416034,-0.07033555,-0.3721675,1.381462,-0.1872418,-0.1457112,1.427766,0.2378354,-0.1463095,1.469847,NA,NA,NotTracked,NotTracked,
0.8427734,0.4594727,0.078125,0.9619141,-0.2685547,0.121582,-2,-2,-1,-1,-1,-1,-1,0,-2,-2,-2,-2,-1,-1,-1,-1,7.5,7.5,7.5,4.75,4.75,4.75,7.163273,3.29199,8.627797,3.03371,2.947024,6.331087,-0.1766739,-0.4481731,1.329656,0.2221449,-0.4352974,1.355211,0.01994315,0.3925336,1.401385,-0.1266123,-0.435176,1.305353,0.2267172,-0.475001,1.380177,0.01296768,-0.06370687,1.433277,0.01144645,-0.384093,1.416118,-0.152289,0.1209372,1.416851,-0.07017002,-0.3722923,1.381389,-0.1875533,-0.145289,1.427492,0.2376266,-0.1462308,1.46874,NA,NA,NotTracked,NotTracked,
0.8569336,0.4555664,0.07519531,0.9619141,-0.2685547,0.121582,-2,0,-4,-1,1,0,1,-1,-2,-2,-2,-2,-1,-1,-1,-1,6,6,6,4.75,4.75,4.75,7.182782,3.297468,8.614431,3.03371,2.947024,6.331087,-0.1769373,-0.4486086,1.331629,0.2232932,-0.43581,1.354489,0.02020187,0.3925737,1.401978,-0.1283929,-0.4261423,1.308746,0.2264495,-0.4737202,1.376047,0.01309954,-0.06367663,1.433464,0.01148332,-0.3840705,1.416234,-0.1531655,0.120906,1.417559,-0.07014542,-0.3722948,1.381442,-0.1877306,-0.145779,1.427483,0.237734,-0.1462812,1.468344,NA,NA,NotTracked,NotTracked,
0.8564453,0.4516602,0.07080078,0.9619141,-0.2685547,0.121582,0,0,0,1,-2,-1,-3,2,-2,-2,-2,-2,-1,-1,-1,-1,6.25,6.25,6.25,4.75,4.75,4.75,7.219541,3.301605,8.58488,3.03371,2.947024,6.331087,-0.1765346,-0.4473202,1.332417,0.22517,-0.4359609,1.353618,0.02036497,0.392646,1.402169,-0.1264178,-0.4383886,1.306212,0.2730718,-0.4380331,1.343818,0.01311895,-0.06365396,1.433557,0.01149305,-0.3840349,1.41634,-0.1541474,0.1208982,1.418166,-0.07013997,-0.3722753,1.381466,-0.1877173,-0.145739,1.427512,0.2380338,-0.1462652,1.467353,NA,NA,NotTracked,NotTracked,
0.8574219,0.4492188,0.06933594,0.9619141,-0.2685547,0.121582,0,-1,1,-1,-3,-2,-1,-2,-2,-2,-2,-2,-1,-1,-1,-1,6,6,6,4.75,4.75,4.75,7.232214,3.302366,8.574731,3.03371,2.947024,6.331087,-0.176918,-0.4469653,1.333277,0.2276662,-0.4368812,1.353205,0.02048873,0.3925976,1.402327,-0.1267043,-0.4518133,1.3055,0.2705972,-0.4319284,1.334149,0.01318974,-0.06368136,1.433622,0.01153032,-0.3840379,1.416373,-0.1545771,0.1207609,1.418413,-0.07011259,-0.3722838,1.381453,-0.1877565,-0.1459247,1.427636,0.2383078,-0.146359,1.466368,NA,NA,NotTracked,NotTracked,
0.8710938,0.4511719,0.07763672,0.9619141,-0.2685547,0.121582,0,-1,0,-3,-1,-1,-1,0,-2,-2,-2,-2,-1,-1,-1,-1,4.5,4.5,4.5,4.75,4.75,4.75,7.265572,3.303474,8.545488,3.03371,2.947024,6.331087,-0.1772323,-0.4471792,1.335415,0.2297168,-0.4387002,1.352287,0.02053503,0.3926143,1.402445,-0.1275633,-0.4401999,1.307122,0.2740008,-0.4341835,1.34018,0.0132455,-0.06369049,1.433727,0.01153265,-0.3840396,1.416421,-0.1548986,0.1206119,1.41872,-0.07011168,-0.3722889,1.381471,-0.1878905,-0.1461925,1.42787,0.2387602,-0.1464435,1.465337,NA,NA,NotTracked,NotTracked,
0.8710938,0.4511719,0.07763672,0.9619141,-0.2685547,0.121582,0,-1,0,-3,-1,-1,-1,0,-2,-2,-2,-2,-1,-1,-1,-1,4.5,4.5,4.5,4.75,4.75,4.75,7.265572,3.303474,8.545488,3.03371,2.947024,6.331087,-0.1769429,-0.4464705,1.338704,0.2325887,-0.4386384,1.352053,0.02056677,0.3926765,1.402885,-0.1270012,-0.447358,1.307876,0.2768145,-0.4205178,1.337228,0.01329659,-0.06367119,1.43387,0.01152863,-0.3840083,1.416478,-0.155496,0.1206929,1.419356,-0.07011481,-0.372265,1.381482,-0.1879461,-0.1458983,1.428334,0.2390815,-0.1461944,1.464568,NA,NA,NotTracked,NotTracked,
0.8671875,0.4570313,0.06835938,0.9619141,-0.2685547,0.121582,-3,-2,-1,0,0,-1,-2,-3,-2,-2,-2,-2,-1,-1,-1,-1,0.9375,0.9375,0.9375,4.75,4.75,4.75,7.283923,3.303902,8.52699,3.03371,2.947024,6.331087,-0.1774628,-0.4475346,1.339656,0.2349477,-0.4385675,1.349613,0.02059041,0.3926528,1.403041,-0.1278185,-0.4550766,1.307552,0.2664763,-0.4389951,1.311155,0.01332309,-0.06366999,1.433931,0.01152789,-0.3839938,1.4165,-0.1558871,0.1205405,1.419687,-0.0701139,-0.3722579,1.381482,-0.1880563,-0.146906,1.428936,0.2397227,-0.1464124,1.463152,NA,NA,NotTracked,NotTracked,
