ALX,ALY,ALZ,ARX,ARY,ARZ,EMG0L,EMG1L,EMG2L,EMG3L,EMG4L,EMG5L,EMG6L,EMG7L,EMG0R,EMG1R,EMG2R,EMG3R,EMG4R,EMG5R,EMG6R,EMG7R,GLX,GLY,GLZ,GRX,GRY,GRZ,ORL,OPL,OYL,ORR,OPR,OYR,LHNX,LHNY,LHNZ,RHNX,RHNY,RHNZ,HX,HY,HZ,LTX,LTY,LTZ,RTX,RTY,RTZ,SpineMidX,SpineMidY,SpineMidZ,SpineBaseX,SpineBaseY,SpineBaseZ,ShoulderLeftX,ShoulderLeftY,ShoulderLeftZ,ShoulderRightX,ShoulderRightY,ShoulderRightZ,ElbowLeftX,ElbowLeftY,ElbowLeftZ,ElbowRightX,ElbowRightY,ElbowRightZ,Myo_Pose_left,Myo_Pose_Right,Kinect_pose_left,Kinect_pose_right
-0.9990234,-0.1132813,0.2285156,-0.9443359,0.2983398,-0.1625977,1,-2,2,0,0,-2,-2,-2,-2,-2,-3,-1,-1,-1,-2,0,1.8125,1.8125,1.8125,-4.25,-4.25,-4.25,4.235214,7.093704,5.197834,8.283572,6.969454,6.677619,-0.08881585,-0.4544213,1.339339,0.2685086,-0.4490303,1.307015,0.113642,0.3842409,1.390249,-0.04067776,-0.4292279,1.311863,0.3102877,-0.4511445,1.30752,0.1023567,-0.09418515,1.43016,0.09751818,-0.4185973,1.417348,-0.04945447,0.0890615,1.415119,0.01105215,-0.4068018,1.384646,-0.1035947,-0.1698552,1.42236,0.3146769,-0.162518,1.402686,NA,NA,NotTracked,NotTracked,
-0.9975586,-0.1206055,0.2207031,-0.9443359,0.2983398,-0.1625977,0,1,-1,-1,-1,0,0,0,-2,-2,-3,-1,-1,-1,-2,0,-0.875,-0.875,-0.875,-4.25,-4.25,-4.25,4.234932,7.094288,5.197773,8.283572,6.969454,6.677619,-0.08898498,-0.4546115,1.33977,0.2677227,-0.4492047,1.30666,0.1137648,0.3842236,1.390136,-0.04114059,-0.4226888,1.312052,0.3095038,-0.4499672,1.303894,0.1024662,-0.09412126,1.430077,0.09765799,-0.4185638,1.417222,-0.04930235,0.08900988,1.415315,0.01114264,-0.4067833,1.38462,-0.1034053,-0.1698301,1.422417,0.3148503,-0.1629243,1.402451,NA,NA,NotTracked,NotTracked,
-0.9995117,-0.1157227,0.2319336,-0.9443359,0.2983398,-0.1625977,0,-2,-1,-1,0,0,0,0,-2,-2,-3,-1,-1,-1,-2,0,1.8125,1.8125,1.8125,-4.25,-4.25,-4.25,4.239085,7.092621,5.200181,8.283572,6.969454,6.677619,-0.08913191,-0.4548655,1.340735,0.2683825,-0.4506889,1.308261,0.1138019,0.3842199,1.390138,-0.04178104,-0.4100404,1.312514,0.3110414,-0.4542344,1.30788,0.102748,-0.09410454,1.430103,0.09782374,-0.4185653,1.417222,-0.04899641,0.08897443,1.415607,0.0112907,-0.4067878,1.384594,-0.1032902,-0.1697965,1.422474,0.3149827,-0.163165,1.402426,NA,NA,NotTracked,NotTracked,
-0.9980469,-0.1220703,0.2329102,-0.9443359,0.2983398,-0.1625977,0,-1,-1,-1,-2,0,1,2,-2,-2,-3,-1,-1,-1,-2,0,-0.25,-0.25,-0.25,-4.25,-4.25,-4.25,4.236527,7.092873,5.199312,8.283572,6.969454,6.677619,-0.08856013,-0.4549281,1.342081,0.2682059,-0.4508404,1.309075,0.1138574,0.38424,1.390196,-0.03916907,-0.4379816,1.314714,0.3108765,-0.4517633,1.3082,0.1029854,-0.09409273,1.430313,0.09805745,-0.4185495,1.417324,-0.0489058,0.08893404,1.415788,0.01150132,-0.4067962,1.384693,-0.1031237,-0.1696404,1.422613,0.3151566,-0.1626768,1.402712,NA,NA,NotTracked,NotTracked,
-0.996582,-0.1259766,0.237793,-0.9443359,0.2983398,-0.1625977,0,0,-3,0,0,-1,-1,0,-2,-2,-3,-1,-1,-1,-2,0,-1.1875,-1.1875,-1.1875,-4.25,-4.25,-4.25,4.23354,7.091873,5.201079,8.283572,6.969454,6.677619,-0.08805242,-0.4551164,1.341509,0.2685564,-0.4490876,1.308923,0.1138808,0.3842483,1.390223,-0.03849114,-0.4388325,1.314192,0.3103614,-0.4506243,1.306904,0.1031982,-0.09402481,1.430421,0.09818466,-0.4185222,1.417377,-0.04856643,0.08899066,1.416178,0.01161435,-0.4068082,1.384737,-0.1030492,-0.169759,1.422669,0.3156162,-0.1623912,1.402761,NA,NA,NotTracked,NotTracked,
-1.004395,-0.1162109,0.2270508,-0.9443359,0.2983398,-0.1625977,-1,-6,-5,-1,-2,-2,0,0,-2,-2,-3,-1,-1,-1,-2,0,-1.5625,-1.5625,-1.5625,-4.25,-4.25,-4.25,4.233524,7.092245,5.201891,8.283572,6.969454,6.677619,-0.08790861,-0.4547164,1.341511,0.2688136,-0.4488271,1.308411,0.1139335,0.384269,1.390316,-0.04014318,-0.4184631,1.31303,0.310411,-0.4510925,1.30721,0.1034434,-0.09399129,1.430463,0.09845249,-0.4184909,1.41742,-0.04806988,0.08901794,1.416375,0.01186707,-0.4067983,1.384827,-0.1029856,-0.1697363,1.42288,0.3157184,-0.1622925,1.402784,NA,NA,NotTracked,NotTracked,
-1.02002,-0.1938477,0.1938477,-0.9443359,0.2983398,-0.1625977,0,1,8,3,10,3,1,0,-2,-2,-3,-1,-1,-1,-2,0,4,4,4,-4.25,-4.25,-4.25,4.218791,7.089463,5.187195,8.283572,6.969454,6.677619,-0.08743972,-0.4553188,1.342265,0.2682771,-0.4488532,1.307118,0.1139953,0.3842899,1.39041,-0.03725744,-0.4619551,1.315893,0.3104081,-0.4516697,1.306112,0.1036849,-0.09395576,1.430539,0.09860326,-0.4184545,1.417508,-0.0478024,0.08895802,1.416445,0.01202908,-0.4067623,1.384998,-0.1028366,-0.1696298,1.422948,0.3160546,-0.1625391,1.402852,NA,NA,NotTracked,NotTracked,
-1.246582,-0.3173828,0.2026367,-0.9443359,0.2983398,-0.1625977,-2,-4,-10,-14,-1,-3,-5,-1,-2,-2,-3,-1,-1,-1,-2,0,59.4375,59.4375,59.4375,-4.25,-4.25,-4.25,4.266147,7.04627,5.170141,8.283572,6.969454,6.677619,-0.08782955,-0.4548911,1.343012,0.2638057,-0.4371141,1.28895,0.1140601,0.3842668,1.390572,-0.03900676,-0.426614,1.314333,0.3051571,-0.4425629,1.282913,0.1037546,-0.09396884,1.430631,0.09860069,-0.4185042,1.417569,-0.047515,0.08879201,1.416839,0.01201621,-0.4067645,1.385235,-0.1026328,-0.1696348,1.423373,0.318497,-0.1618805,1.405107,NA,NA,NotTracked,NotTracked,
-1.421387,0.02978516,0.824707,-0.9443359,0.2983398,-0.1625977,-4,-6,-17,-72,-2,0,-3,-5,-2,-2,-3,-1,-1,-1,-2,0,39.9375,39.9375,39.9375,-4.25,-4.25,-4.25,4.672324,6.551064,5.344512,8.283572,6.969454,6.677619,-0.0887574,-0.4516439,1.342437,0.2519121,-0.3811158,1.23625,0.1141033,0.3842229,1.390619,-0.04165382,-0.4050891,1.314095,0.2723885,-0.3661917,1.20969,0.1036467,-0.09389731,1.430589,0.09686531,-0.4181876,1.417468,-0.04735847,0.08882306,1.416945,0.009977509,-0.406141,1.385258,-0.1026172,-0.1695843,1.423572,0.333566,-0.1529211,1.417967,NA,NA,NotTracked,Unknown,
-0.8266602,-0.159668,0.9526367,-0.9443359,0.2983398,-0.1625977,-2,-3,-9,-11,-4,-4,-1,-2,-2,-2,-3,-1,-1,-1,-2,0,20.125,20.125,20.125,-4.25,-4.25,-4.25,4.693483,6.055204,5.353202,8.283572,6.969454,6.677619,-0.09067182,-0.4489313,1.344996,0.2371849,-0.276538,1.195253,0.1141952,0.3841676,1.390351,-0.04144869,-0.4115227,1.31465,0.2316764,-0.2448672,1.156971,0.10261,-0.09345795,1.430595,0.0901743,-0.4158297,1.41758,-0.04703494,0.08906961,1.417155,0.003321788,-0.4027419,1.385591,-0.1027333,-0.1664433,1.424614,0.3507253,-0.1226083,1.433764,NA,NA,NotTracked,Closed,
-0.402832,-0.03320313,0.8803711,-0.9443359,0.2983398,-0.1625977,-1,-7,19,-8,5,-6,-4,-2,-2,-2,-3,-1,-1,-1,-2,0,1.25,1.25,1.25,-4.25,-4.25,-4.25,4.735845,5.494249,5.374687,8.283572,6.969454,6.677619,-0.09208461,-0.4530944,1.345564,0.2365877,-0.1477981,1.168463,0.1145433,0.3838421,1.389617,-0.04224747,-0.4141056,1.315443,0.2330256,-0.1065942,1.124222,0.102277,-0.09333352,1.430587,0.08871598,-0.4152442,1.417739,-0.04658922,0.08920332,1.417234,0.001891508,-0.4021196,1.385834,-0.1024569,-0.1651196,1.42495,0.3581594,-0.1125659,1.430369,NA,NA,NotTracked,Closed,
-0.01757813,-0.05957031,0.7182617,-0.9443359,0.2983398,-0.1625977,-6,1,-7,-26,3,7,-1,-2,-2,-2,-3,-1,-1,-1,-2,0,-32.4375,-32.4375,-32.4375,-4.25,-4.25,-4.25,4.701579,4.913649,5.428076,8.283572,6.969454,6.677619,-0.09338591,-0.4534444,1.345164,0.2230752,-0.005399967,1.168159,0.1151266,0.3832796,1.388669,-0.04409803,-0.4094571,1.315883,0.2475164,0.0166203,1.1502,0.1020611,-0.09330998,1.430693,0.08804332,-0.414951,1.418091,-0.04626747,0.08935648,1.417074,0.001058053,-0.4018427,1.387202,-0.1026318,-0.1645898,1.424703,0.3489465,-0.1178133,1.371006,NA,NA,NotTracked,Unknown,
0.4135742,-0.0625,0.5957031,-0.9443359,0.2983398,-0.1625977,3,1,22,18,12,-18,-7,2,-2,-2,-3,-1,-1,-1,-2,0,-76.9375,-76.9375,-76.9375,-4.25,-4.25,-4.25,4.58024,4.361395,5.553753,8.283572,6.969454,6.677619,-0.09287604,-0.4508839,1.345388,0.2256261,0.08749476,1.223302,0.1151444,0.3828144,1.388087,-0.04347399,-0.4113527,1.316933,0.1906992,0.06247951,1.299692,0.1019471,-0.09354599,1.430825,0.08785901,-0.4152708,1.418311,-0.0460791,0.08945058,1.417126,0.0006442185,-0.4026723,1.388322,-0.102659,-0.1635019,1.424798,0.3483567,-0.1147914,1.358216,NA,NA,NotTracked,Closed,
0.644043,-0.2841797,0.5478516,-0.9443359,0.2983398,-0.1625977,-4,0,15,34,9,-6,-50,-9,-2,-2,-3,-1,-1,-1,-2,0,-86.0625,-86.0625,-86.0625,-4.25,-4.25,-4.25,4.301451,3.916643,5.791565,8.283572,6.969454,6.677619,-0.09244175,-0.4512314,1.343211,0.1787143,0.2218242,1.281818,0.1148931,0.3825881,1.387808,-0.04396629,-0.4081311,1.317369,0.1039682,0.2459661,1.2782,0.1021925,-0.09219242,1.430602,0.08763634,-0.4144934,1.418733,-0.04572732,0.08974881,1.417124,5.511066E-05,-0.4018907,1.390113,-0.1016362,-0.1603252,1.424118,0.3475093,-0.1091601,1.338983,NA,NA,NotTracked,Unknown,
0.5981445,-0.3530273,0.4790039,-0.9443359,0.2983398,-0.1625977,-1,-19,-24,-6,5,-1,15,0,-2,-2,-3,-1,-1,-1,-2,0,-8.9375,-8.9375,-8.9375,-4.25,-4.25,-4.25,3.777588,3.595652,6.382873,8.283572,6.969454,6.677619,-0.09069809,-0.4496992,1.340789,0.1839495,0.1873353,1.287515,0.1149964,0.3822336,1.387395,-0.04234014,-0.4225089,1.316858,0.1668317,0.141431,1.337345,0.102327,-0.09108262,1.429333,0.08735462,-0.414082,1.418968,-0.04514215,0.09032778,1.416952,-0.0004657392,-0.4015432,1.391689,-0.1009829,-0.1585178,1.423599,0.3419935,-0.1015263,1.311605,NA,NA,NotTracked,Unknown,
0.5454102,-0.4228516,0.5224609,-0.9443359,0.2983398,-0.1625977,4,18,27,22,-5,-8,11,1,-2,-2,-3,-1,-1,-1,-2,0,14.875,14.875,14.875,-4.25,-4.25,-4.25,3.66933,3.589679,6.538506,8.283572,6.969454,6.677619,-0.08926143,-0.4509729,1.338552,0.1753011,0.1834818,1.29173,0.1153603,0.381995,1.387115,-0.04164324,-0.4379156,1.319933,0.1652925,0.1332182,1.338121,0.1036541,-0.0895649,1.42673,0.08733051,-0.4140366,1.419222,-0.04750481,0.09078549,1.417523,-0.0004175263,-0.4018711,1.393575,-0.1003767,-0.1576116,1.423425,0.3375305,-0.09750288,1.292006,NA,NA,NotTracked,NotTracked,
0.6123047,-0.4912109,0.5141602,-0.9443359,0.2983398,-0.1625977,-1,3,30,-1,9,1,8,-1,-2,-2,-3,-1,-1,-1,-2,0,12.5625,12.5625,12.5625,-4.25,-4.25,-4.25,3.605442,3.615743,6.691931,8.283572,6.969454,6.677619,-0.08819532,-0.4501204,1.337394,0.1710391,0.1798618,1.294034,0.1156595,0.3819672,1.38715,-0.04223927,-0.3961726,1.3168,0.1473567,0.1237522,1.332148,0.1032211,-0.09007268,1.425763,0.08725904,-0.4141927,1.41937,-0.04664541,0.0909153,1.418463,-0.0004799012,-0.4026583,1.394877,-0.09988941,-0.1577138,1.423742,0.3333898,-0.09430085,1.28251,NA,NA,NotTracked,NotTracked,
0.6884766,-0.5244141,0.5185547,-0.9443359,0.2983398,-0.1625977,-7,-8,3,1,4,3,-7,0,-2,-2,-3,-1,-1,-1,-2,0,16.875,16.875,16.875,-4.25,-4.25,-4.25,3.608175,3.63851,6.747788,8.283572,6.969454,6.677619,-0.08918645,-0.4511912,1.340233,0.1665957,0.1773488,1.291807,0.1158542,0.3823508,1.387093,-0.04170531,-0.4327509,1.319143,0.1456447,0.1283743,1.330877,0.1026781,-0.09066193,1.424746,0.08710861,-0.4145142,1.419473,-0.04644422,0.09079695,1.419455,-0.0006061262,-0.4034469,1.396098,-0.09943208,-0.1580119,1.423926,0.3292694,-0.09274317,1.276308,NA,NA,NotTracked,NotTracked,
0.7299805,-0.5385742,0.4770508,-0.9443359,0.2983398,-0.1625977,0,-17,-8,-22,-14,-3,-2,1,-2,-2,-3,-1,-1,-1,-2,0,6.625,6.625,6.625,-4.25,-4.25,-4.25,3.612577,3.651875,6.773528,8.283572,6.969454,6.677619,-0.09129868,-0.4522979,1.345298,0.1662656,0.1784572,1.294552,0.1159234,0.3825662,1.387024,-0.04259813,-0.39398,1.318043,0.1437545,0.1304858,1.334658,0.1021922,-0.09093698,1.424309,0.08671971,-0.4147826,1.419926,-0.04654364,0.09074484,1.420958,-0.0009735991,-0.4038526,1.397217,-0.09890276,-0.1579111,1.425118,0.3263085,-0.09203804,1.272754,NA,NA,NotTracked,NotTracked,
0.7475586,-0.5185547,0.487793,-0.9443359,0.2983398,-0.1625977,-4,-11,-6,4,4,1,-7,-4,-2,-2,-3,-1,-1,-1,-2,0,-1.5,-1.5,-1.5,-4.25,-4.25,-4.25,3.622557,3.6636,6.771342,8.283572,6.969454,6.677619,-0.0928665,-0.454214,1.348292,0.1644345,0.1749581,1.294561,0.1160132,0.3827719,1.386782,-0.04225711,-0.4461964,1.320607,0.1354645,0.1256889,1.334303,0.1016519,-0.09119631,1.423822,0.08634312,-0.4150105,1.420191,-0.04654857,0.09063795,1.420961,-0.001314222,-0.4042214,1.398051,-0.09909812,-0.1587646,1.426552,0.3248732,-0.0915854,1.271366,NA,NA,NotTracked,NotTracked,
0.7202148,-0.4921875,0.4824219,-0.9443359,0.2983398,-0.1625977,3,3,10,-23,-4,-3,-9,1,-2,-2,-3,-1,-1,-1,-2,0,-3.5625,-3.5625,-3.5625,-4.25,-4.25,-4.25,3.626799,3.671215,6.760195,8.283572,6.969454,6.677619,-0.09512542,-0.4550719,1.3509,0.1640035,0.1755967,1.293844,0.1159961,0.3830209,1.386416,-0.04461832,-0.42647,1.319865,0.1427696,0.1263111,1.334513,0.1012426,-0.09141232,1.423457,0.08584198,-0.4153057,1.42051,-0.04653539,0.09066045,1.42099,-0.001776889,-0.4044919,1.398747,-0.09912508,-0.158831,1.42768,0.3239739,-0.091376,1.270621,NA,NA,NotTracked,NotTracked,
0.75,-0.5083008,0.4506836,-0.9443359,0.2983398,-0.1625977,3,9,18,51,3,-3,4,0,-2,-2,-3,-1,-1,-1,-2,0,-2.875,-2.875,-2.875,-4.25,-4.25,-4.25,3.625707,3.672839,6.753954,8.283572,6.969454,6.677619,-0.09647889,-0.45562,1.352175,0.164355,0.1742647,1.296671,0.1160493,0.3831421,1.386082,-0.04593163,-0.4378498,1.322202,0.1326565,0.1213715,1.327944,0.1009145,-0.0915139,1.423144,0.08553407,-0.4153027,1.420681,-0.04666722,0.0909314,1.421424,-0.001981611,-0.4044216,1.398971,-0.09917271,-0.1588522,1.428056,0.3232878,-0.09101225,1.270065,NA,NA,NotTracked,NotTracked,
0.7216797,-0.5014648,0.4584961,-0.9443359,0.2983398,-0.1625977,3,-5,5,31,0,-1,-5,2,-2,-2,-3,-1,-1,-1,-2,0,1,1,1,-4.25,-4.25,-4.25,3.635331,3.674427,6.742616,8.283572,6.969454,6.677619,-0.09690363,-0.4558492,1.351053,0.162715,0.1748552,1.294249,0.1162288,0.3832605,1.385479,-0.04575678,-0.4407869,1.322224,0.1233307,0.1159076,1.326783,0.1005782,-0.09179628,1.422758,0.08519915,-0.4156841,1.420808,-0.04670074,0.09087116,1.421265,-0.002273496,-0.4047374,1.399213,-0.09933081,-0.1588949,1.428214,0.3232721,-0.09153263,1.269438,NA,NA,NotTracked,NotTracked,
0.7304688,-0.5029297,0.4599609,-0.9443359,0.2983398,-0.1625977,-6,-11,-74,-59,-4,1,-6,-5,-2,-2,-3,-1,-1,-1,-2,0,2,2,2,-4.25,-4.25,-4.25,3.643008,3.667983,6.740871,8.283572,6.969454,6.677619,-0.09738357,-0.4549447,1.34911,0.1639609,0.174853,1.29487,0.1163475,0.3834331,1.38517,-0.04777005,-0.4153515,1.321263,0.1233397,0.1184893,1.32325,0.1002371,-0.09197215,1.422498,0.08472945,-0.4159259,1.420909,-0.04673635,0.09092576,1.421252,-0.002687316,-0.4047885,1.399366,-0.09955336,-0.1585891,1.428261,0.3231505,-0.09200118,1.269107,NA,NA,NotTracked,NotTracked,
0.7036133,-0.4658203,0.4482422,-0.9443359,0.2983398,-0.1625977,-7,-2,4,3,0,0,1,-4,-2,-2,-3,-1,-1,-1,-2,0,9.125,9.125,9.125,-4.25,-4.25,-4.25,3.654238,3.658937,6.737521,8.283572,6.969454,6.677619,-0.09787278,-0.4529297,1.346353,0.1625648,0.1750115,1.294912,0.1163978,0.3835444,1.384831,-0.04832907,-0.4657966,1.325,0.1312355,0.1238623,1.329359,0.1000595,-0.09207106,1.422205,0.08455859,-0.4160504,1.420934,-0.04675891,0.09092475,1.421213,-0.002819855,-0.4048659,1.399424,-0.09970859,-0.158573,1.428432,0.3223285,-0.09282172,1.268918,NA,NA,NotTracked,NotTracked,
0.6293945,-0.4038086,0.4277344,-0.9443359,0.2983398,-0.1625977,-1,-7,-7,2,3,2,2,-1,-2,-2,-3,-1,-1,-1,-2,0,47.1875,47.1875,47.1875,-4.25,-4.25,-4.25,3.763368,3.661146,6.678179,8.283572,6.969454,6.677619,-0.09841715,-0.4511911,1.34559,0.1583056,0.1875619,1.289519,0.1164486,0.3837844,1.384787,-0.04882471,-0.4082776,1.319952,0.1304747,0.1381384,1.332156,0.09976016,-0.09218516,1.421998,0.08433234,-0.4162081,1.420881,-0.04685615,0.09134079,1.421389,-0.002982564,-0.4050109,1.3995,-0.09992078,-0.158463,1.4284,0.3204453,-0.09472104,1.270776,NA,NA,NotTracked,NotTracked,
0.7880859,-0.3881836,0.5527344,-0.9443359,0.2983398,-0.1625977,-1,-4,-4,-6,-1,1,1,-1,-2,-2,-3,-1,-1,-1,-2,0,83.75,83.75,83.75,-4.25,-4.25,-4.25,4.051362,3.718611,6.540878,8.283572,6.969454,6.677619,-0.09860876,-0.4511476,1.344688,0.1493192,0.1800947,1.279386,0.1159795,0.3847851,1.385179,-0.04883178,-0.4146638,1.32058,0.1147878,0.1247993,1.3226,0.09913573,-0.09233032,1.421633,0.08393228,-0.4165093,1.420727,-0.0505905,0.09170101,1.420804,-0.00330618,-0.4052692,1.399468,-0.1001764,-0.1584647,1.428191,0.3131569,-0.1017182,1.279626,NA,NA,NotTracked,NotTracked,
0.8544922,-0.4404297,0.6552734,-0.9443359,0.2983398,-0.1625977,-3,-2,-10,-6,0,0,-4,-4,-2,-2,-3,-1,-1,-1,-2,0,73.125,73.125,73.125,-4.25,-4.25,-4.25,4.156882,3.761743,6.507859,8.283572,6.969454,6.677619,-0.09900815,-0.4522299,1.345218,0.1453148,0.1624524,1.267365,0.1154222,0.3868833,1.386057,-0.04879072,-0.4252948,1.320375,0.1080818,0.1139579,1.311308,0.09805764,-0.09273922,1.421424,0.08337254,-0.4171367,1.420457,-0.05296665,0.09174936,1.420456,-0.003888371,-0.4059296,1.39939,-0.1004937,-0.1588893,1.428211,0.3078012,-0.1081859,1.289636,NA,NA,NotTracked,Unknown,
0.7817383,-0.3461914,0.7578125,-0.9443359,0.2983398,-0.1625977,2,1,6,1,-6,0,3,4,-2,-2,-3,-1,-1,-1,-2,0,48.5625,48.5625,48.5625,-4.25,-4.25,-4.25,4.251263,3.826651,6.579707,8.283572,6.969454,6.677619,-0.09880815,-0.4525157,1.347176,0.1368032,0.1529494,1.272983,0.1152198,0.389866,1.387607,-0.04877347,-0.411204,1.318618,0.1007878,0.1220159,1.241699,0.09726246,-0.0930206,1.421469,0.08294872,-0.4175255,1.420304,-0.05447753,0.09168526,1.42045,-0.004178938,-0.4061861,1.399321,-0.1010766,-0.1604877,1.428184,0.3036743,-0.1111195,1.290964,NA,NA,NotTracked,Unknown,
0.6835938,-0.3852539,0.7421875,-0.9443359,0.2983398,-0.1625977,0,7,3,-2,-5,-4,-4,-4,-2,-2,-3,-1,-1,-1,-2,0,31.3125,31.3125,31.3125,-4.25,-4.25,-4.25,4.229226,3.838748,6.690228,8.283572,6.969454,6.677619,-0.09912226,-0.4547075,1.349223,0.1349529,0.1478319,1.279621,0.1156209,0.3905824,1.388617,-0.04992379,-0.4030325,1.320367,0.08332598,0.1231127,1.278867,0.09676718,-0.09278664,1.42186,0.08274291,-0.4176165,1.420308,-0.05640196,0.09159029,1.420337,-0.004261381,-0.4062437,1.399354,-0.1011294,-0.1607549,1.428328,0.2999525,-0.1127528,1.289217,NA,NA,NotTracked,Unknown,
0.6181641,-0.3754883,0.690918,-0.9443359,0.2983398,-0.1625977,0,-5,-21,-18,0,-1,2,-1,-2,-2,-3,-1,-1,-1,-2,0,11.9375,11.9375,11.9375,-4.25,-4.25,-4.25,4.185907,3.822061,6.806039,8.283572,6.969454,6.677619,-0.09949857,-0.454731,1.34965,0.1332442,0.1479913,1.284437,0.1163961,0.3913175,1.389672,-0.04897666,-0.4281434,1.320417,0.08723083,0.117292,1.2855,0.09646922,-0.09262051,1.422115,0.08258837,-0.4176451,1.420361,-0.05721673,0.09161662,1.419989,-0.004346385,-0.4062536,1.399449,-0.1013109,-0.1613864,1.428514,0.2966711,-0.1134534,1.287087,NA,NA,NotTracked,Unknown,
0.6455078,-0.3803711,0.6503906,-0.9443359,0.2983398,-0.1625977,1,4,9,-11,-4,-1,2,0,-2,-2,-3,-1,-1,-1,-2,0,-4.125,-4.125,-4.125,-4.25,-4.25,-4.25,4.156413,3.808917,6.859823,8.283572,6.969454,6.677619,-0.09890176,-0.4546947,1.350376,0.1321087,0.14706,1.285256,0.1167526,0.3919498,1.390357,-0.05011816,-0.4037154,1.321387,0.08451983,0.1253142,1.2854,0.09606304,-0.0924616,1.422298,0.0821299,-0.417656,1.420438,-0.05760642,0.0917033,1.419898,-0.004773064,-0.4062857,1.399863,-0.1014971,-0.1615566,1.429025,0.292637,-0.1138713,1.283784,NA,NA,NotTracked,Unknown,
0.6748047,-0.3823242,0.6455078,-0.9443359,0.2983398,-0.1625977,-1,0,8,2,-3,-4,-5,-4,-2,-2,-3,-1,-1,-1,-2,0,1.375,1.375,1.375,-4.25,-4.25,-4.25,4.140108,3.805009,6.882191,8.283572,6.969454,6.677619,-0.09938991,-0.4553953,1.350925,0.1297337,0.1499221,1.287065,0.1167354,0.3923457,1.391073,-0.04970973,-0.4505597,1.324417,0.08479207,0.1252605,1.278021,0.0958347,-0.09232786,1.422445,0.08181588,-0.4175462,1.420527,-0.05792522,0.09166875,1.4198,-0.004971263,-0.4062525,1.400022,-0.1019317,-0.1622183,1.43022,0.2902562,-0.113741,1.281473,NA,NA,NotTracked,Unknown,
0.6640625,-0.3994141,0.6494141,-0.9443359,0.2983398,-0.1625977,-1,6,2,2,3,-1,-1,-1,-2,-2,-3,-1,-1,-1,-2,0,1.375,1.375,1.375,-4.25,-4.25,-4.25,4.131191,3.814489,6.906085,8.283572,6.969454,6.677619,-0.1002512,-0.4541332,1.352323,0.1260987,0.1491647,1.285509,0.1166673,0.3925395,1.39135,-0.0497779,-0.4368887,1.322258,0.08291884,0.1255968,1.278931,0.09553561,-0.09229267,1.422581,0.08138703,-0.4176387,1.420562,-0.05815774,0.09170309,1.419722,-0.005327655,-0.4063241,1.400257,-0.102111,-0.1625175,1.430826,0.2885174,-0.113768,1.279715,NA,NA,NotTracked,Unknown,
0.6811523,-0.3984375,0.6552734,-0.9443359,0.2983398,-0.1625977,-2,14,3,19,17,1,-3,-2,-2,-2,-3,-1,-1,-1,-2,0,-0.8125,-0.8125,-0.8125,-4.25,-4.25,-4.25,4.130243,3.821743,6.917798,8.283572,6.969454,6.677619,-0.1005486,-0.4549822,1.354566,0.1263299,0.1491807,1.286893,0.1166421,0.3925771,1.391795,-0.04988338,-0.4405465,1.323565,0.08396374,0.1264858,1.275487,0.09371787,-0.0941328,1.423261,0.08098415,-0.417614,1.420774,-0.05864684,0.09184343,1.41999,-0.005676454,-0.4062997,1.400626,-0.1022267,-0.1626802,1.432011,0.2878366,-0.1137675,1.279276,NA,NA,NotTracked,Unknown,
0.6787109,-0.3989258,0.6503906,-0.9443359,0.2983398,-0.1625977,-1,-3,-11,-6,-2,0,2,0,-2,-2,-3,-1,-1,-1,-2,0,-0.375,-0.375,-0.375,-4.25,-4.25,-4.25,4.12903,3.822326,6.918417,8.283572,6.969454,6.677619,-0.1012583,-0.4555408,1.355341,0.1275836,0.1482501,1.288735,0.1165251,0.3926543,1.392265,-0.05004485,-0.4426457,1.323712,0.07918696,0.1304833,1.279444,0.09354573,-0.09383421,1.423417,0.08050681,-0.4176362,1.420974,-0.05874679,0.09188151,1.419976,-0.006152955,-0.4062777,1.40108,-0.102602,-0.1629903,1.432481,0.2865926,-0.1137906,1.278586,NA,NA,NotTracked,Unknown,
0.6635742,-0.3959961,0.6503906,-0.9443359,0.2983398,-0.1625977,-1,-10,-7,-8,-7,-3,-1,1,-2,-2,-3,-1,-1,-1,-2,0,-3.25,-3.25,-3.25,-4.25,-4.25,-4.25,4.126027,3.8272,6.916807,8.283572,6.969454,6.677619,-0.101809,-0.4564076,1.354975,0.1244611,0.1471373,1.286617,0.1163755,0.3927027,1.392681,-0.0504226,-0.4401437,1.323751,0.08255634,0.1265242,1.278152,0.0930919,-0.09333207,1.423771,0.08016656,-0.4174421,1.421218,-0.05901161,0.09198601,1.420059,-0.006382894,-0.4061722,1.401357,-0.1034968,-0.1627958,1.433202,0.2861814,-0.1137743,1.278367,NA,NA,NotTracked,NotTracked,
0.6748047,-0.3916016,0.6494141,-0.9443359,0.2983398,-0.1625977,1,6,2,-3,-6,-1,-8,1,-2,-2,-3,-1,-1,-1,-2,0,-0.75,-0.75,-0.75,-4.25,-4.25,-4.25,4.126292,3.829297,6.914139,8.283572,6.969454,6.677619,-0.1036457,-0.4559411,1.353854,0.1244575,0.1472609,1.287147,0.116143,0.3928078,1.393149,-0.05220607,-0.423911,1.323447,0.08010066,0.1282447,1.280804,0.09135847,-0.09432957,1.424796,0.07996151,-0.4174283,1.421475,-0.05955389,0.09191018,1.420141,-0.006531656,-0.406171,1.401822,-0.1039156,-0.1622739,1.433677,0.2859175,-0.113882,1.2785,NA,NA,NotTracked,Unknown,
0.6254883,-0.402832,0.6586914,-0.9443359,0.2983398,-0.1625977,-2,-3,-16,-15,-2,0,0,0,-2,-2,-3,-1,-1,-1,-2,0,-2.75,-2.75,-2.75,-4.25,-4.25,-4.25,4.130818,3.834965,6.900794,8.283572,6.969454,6.677619,-0.103637,-0.4561068,1.353526,0.1245357,0.147218,1.286988,0.1160127,0.392838,1.393431,-0.05271051,-0.4371836,1.323857,0.08208185,0.1275021,1.277571,0.09135783,-0.09382747,1.424917,0.07968038,-0.4173483,1.421708,-0.05973315,0.09206179,1.420156,-0.00671162,-0.4060605,1.401941,-0.1044396,-0.1616094,1.433793,0.2856752,-0.1140183,1.278707,NA,NA,NotTracked,Unknown,
0.3955078,-0.3959961,0.671875,-0.9443359,0.2983398,-0.1625977,-1,1,0,0,-2,1,-3,-4,-2,-2,-3,-1,-1,-1,-2,0,-2.875,-2.875,-2.875,-4.25,-4.25,-4.25,4.169269,3.874249,6.835333,8.283572,6.969454,6.677619,-0.1042124,-0.4561833,1.354014,0.1273144,0.1486809,1.284009,0.1155544,0.3931479,1.393839,-0.05265055,-0.4270123,1.324953,0.08219394,0.1286432,1.269407,0.09122939,-0.09356821,1.425045,0.07932856,-0.4174206,1.421959,-0.05994127,0.09214803,1.420218,-0.007074171,-0.4061168,1.402318,-0.105193,-0.1616897,1.434043,0.2862944,-0.1146771,1.280873,NA,NA,NotTracked,Unknown,
0.4194336,-0.25,0.6801758,-0.9443359,0.2983398,-0.1625977,-2,-7,-4,4,2,-1,0,-3,-2,-2,-3,-1,-1,-1,-2,0,12.1875,12.1875,12.1875,-4.25,-4.25,-4.25,4.281757,3.974383,6.683843,8.283572,6.969454,6.677619,-0.1043529,-0.4539273,1.35187,0.1310494,0.1418504,1.275431,0.1141068,0.3937411,1.394462,-0.05269003,-0.4394948,1.324266,0.09391388,0.1115714,1.240893,0.09014289,-0.09427499,1.425318,0.07879294,-0.4176131,1.422109,-0.0611528,0.09222953,1.420588,-0.007627989,-0.4063327,1.402329,-0.1059798,-0.1612384,1.434218,0.2934231,-0.1166643,1.291639,NA,NA,NotTracked,Unknown,
0.4438477,-0.2304688,0.7304688,-0.9443359,0.2983398,-0.1625977,-2,-5,11,9,1,3,1,-3,-2,-2,-3,-1,-1,-1,-2,0,16.5625,16.5625,16.5625,-4.25,-4.25,-4.25,4.434249,4.180411,6.437109,8.283572,6.969454,6.677619,-0.1047915,-0.4547578,1.353765,0.1283123,0.08433069,1.248904,0.1116752,0.3933833,1.395118,-0.05290929,-0.431633,1.324794,0.140462,0.1032618,1.2016,0.09004111,-0.09398188,1.425764,0.07833828,-0.4174402,1.422383,-0.06216832,0.09222011,1.421005,-0.008035099,-0.406208,1.402464,-0.1067968,-0.1614746,1.434942,0.3113022,-0.1177099,1.320235,NA,NA,NotTracked,Unknown,
0.328125,-0.1499023,0.7587891,-0.9443359,0.2983398,-0.1625977,2,1,9,14,-2,-2,0,5,-2,-2,-3,-1,-1,-1,-2,0,22.9375,22.9375,22.9375,-4.25,-4.25,-4.25,4.627397,4.642865,6.102611,8.283572,6.969454,6.677619,-0.1053488,-0.4548226,1.354905,0.1349981,0.009738484,1.216933,0.1088819,0.3910871,1.395806,-0.05399848,-0.4424215,1.325445,0.1240721,0.05494792,1.273,0.08965241,-0.09258424,1.428387,0.07786411,-0.4163517,1.42261,-0.06278415,0.09217162,1.421274,-0.008415224,-0.4050176,1.401682,-0.1080486,-0.1626347,1.436249,0.3235185,-0.1167304,1.340722,NA,NA,NotTracked,Unknown,
0.2392578,-0.1606445,0.8056641,-0.9443359,0.2983398,-0.1625977,0,-2,-43,-25,-6,-2,-5,-1,-2,-2,-3,-1,-1,-1,-2,0,27.75,27.75,27.75,-4.25,-4.25,-4.25,4.675779,4.922826,5.955844,8.283572,6.969454,6.677619,-0.1063043,-0.4553374,1.357269,0.1525142,-0.08433936,1.195899,0.1065357,0.3897265,1.395839,-0.05350893,-0.4460051,1.325193,0.1218391,-0.04087592,1.251333,0.08922367,-0.09177806,1.430182,0.07728139,-0.4145045,1.422835,-0.06241076,0.09214059,1.421728,-0.008683695,-0.4026941,1.399573,-0.1092022,-0.1633266,1.437353,0.3382635,-0.1139366,1.37613,NA,NA,NotTracked,Unknown,
-0.05371094,-0.1796875,0.9921875,-0.9443359,0.2983398,-0.1625977,-1,-1,0,-1,-3,3,2,0,-2,-2,-3,-1,-1,-1,-2,0,8.8125,8.8125,8.8125,-4.25,-4.25,-4.25,4.675217,5.327931,5.777456,8.283572,6.969454,6.677619,-0.1075979,-0.458474,1.358779,0.1713872,-0.1711701,1.191713,0.1037918,0.3882877,1.395508,-0.05727489,-0.4283758,1.323946,0.1297528,-0.2103368,1.254,0.08928569,-0.09180225,1.430217,0.07704719,-0.4139155,1.422857,-0.06166094,0.09180421,1.42223,-0.00899373,-0.4018813,1.397922,-0.1102022,-0.1638145,1.438008,0.3464406,-0.1097596,1.404466,NA,NA,NotTracked,Unknown,
