ALX,ALY,ALZ,ARX,ARY,ARZ,EMG0L,EMG1L,EMG2L,EMG3L,EMG4L,EMG5L,EMG6L,EMG7L,EMG0R,EMG1R,EMG2R,EMG3R,EMG4R,EMG5R,EMG6R,EMG7R,GLX,GLY,GLZ,GRX,GRY,GRZ,ORL,OPL,OYL,ORR,OPR,OYR,LHNX,LHNY,LHNZ,RHNX,RHNY,RHNZ,HX,HY,HZ,LTX,LTY,LTZ,RTX,RTY,RTZ,SpineMidX,SpineMidY,SpineMidZ,SpineBaseX,SpineBaseY,SpineBaseZ,ShoulderLeftX,ShoulderLeftY,ShoulderLeftZ,ShoulderRightX,ShoulderRightY,ShoulderRightZ,ElbowLeftX,ElbowLeftY,ElbowLeftZ,ElbowRightX,ElbowRightY,ElbowRightZ,Myo_Pose_left,Myo_Pose_Right,Kinect_pose_left,Kinect_pose_right
-0.9853516,-0.1474609,0.2563477,-0.9277344,0.3266602,-0.1699219,-3,-6,-1,-1,-1,-2,-1,1,-1,-2,-3,-2,-1,0,1,-1,0.4375,0.4375,0.4375,-1.125,-1.125,-1.125,4.132051,7.039744,5.326964,8.189137,6.893117,5.892777,-0.1009239,-0.4568264,1.338148,0.2644804,-0.441905,1.318285,0.1019032,0.3851945,1.414557,-0.05034962,-0.4058509,1.332107,0.2207464,-0.4262244,1.309165,0.09502844,-0.09356678,1.450716,0.09203532,-0.4191027,1.435966,-0.0566012,0.08896952,1.431248,0.005736362,-0.4078406,1.401951,-0.1152933,-0.1680281,1.426401,0.3135279,-0.1604343,1.421481,NA,NA,NotTracked,NotTracked,
-0.9936523,-0.1533203,0.2558594,-0.9291992,0.3261719,-0.1699219,-5,-1,0,1,0,-1,-1,-1,-1,-2,-2,0,-2,-2,-4,-2,1.3125,1.3125,1.3125,0.4375,0.4375,0.4375,4.132965,7.040468,5.327599,8.192948,6.897017,5.896288,-0.1016672,-0.4569697,1.33924,0.2652111,-0.4425227,1.319135,0.1017591,0.3852378,1.414258,-0.05052331,-0.4087842,1.331941,0.22109,-0.4359326,1.303485,0.09492601,-0.09364235,1.450512,0.09199543,-0.4191456,1.435871,-0.05677788,0.08891303,1.430977,0.005695269,-0.4079336,1.401826,-0.1152736,-0.1678909,1.426159,0.3134731,-0.1604343,1.421246,NA,NA,NotTracked,NotTracked,
-0.9907227,-0.1455078,0.25,-0.9267578,0.3325195,-0.1650391,-1,-1,-3,-1,2,1,1,-4,-3,-2,-1,-1,-1,-1,-1,2,0.875,0.875,0.875,-0.875,-0.875,-0.875,4.141182,7.040987,5.333092,8.197087,6.898553,5.899799,-0.1021422,-0.4558961,1.339986,0.2646362,-0.4417713,1.318968,0.1016295,0.3851874,1.413835,-0.05037793,-0.4053697,1.3305,0.2215963,-0.4319247,1.304681,0.09485201,-0.09370268,1.45035,0.09193674,-0.4191985,1.435738,-0.05685721,0.08873486,1.430421,0.005662472,-0.4079953,1.401774,-0.1152676,-0.1679619,1.425852,0.3134206,-0.1604272,1.421161,NA,NA,NotTracked,NotTracked,
-0.9897461,-0.1572266,0.2524414,-0.9335938,0.3364258,-0.1660156,-3,-8,-1,-2,-1,-2,-1,-2,-1,-2,-1,-2,-1,-2,-2,-1,1.6875,1.6875,1.6875,-0.625,-0.625,-0.625,4.143855,7.040361,5.33452,8.199466,6.899334,5.903676,-0.1024951,-0.4535629,1.341419,0.2644688,-0.4420336,1.319233,0.1015138,0.3851029,1.413267,-0.07615472,-0.4266092,1.370281,0.2208914,-0.4272016,1.307871,0.09470654,-0.09376498,1.450065,0.09185796,-0.4192724,1.435571,-0.05702623,0.08863828,1.430009,0.005569985,-0.4080885,1.401605,-0.1153102,-0.1680027,1.425555,0.3132242,-0.1606578,1.420645,NA,NA,NotTracked,NotTracked,
-0.9956055,-0.1499023,0.2451172,-0.9291992,0.3232422,-0.1645508,0,3,-2,-1,-1,-1,0,-3,-1,-1,-1,0,-1,-1,-1,-2,1,1,1,-0.8125,-0.8125,-0.8125,4.15005,7.041252,5.337437,8.196803,6.899175,5.90262,-0.102417,-0.4572216,1.339545,0.2631543,-0.4419787,1.318355,0.1014136,0.3849713,1.412783,-0.05058634,-0.4051999,1.329206,0.2207505,-0.4269053,1.307703,0.09461263,-0.09379877,1.449884,0.09176483,-0.4193196,1.435403,-0.05695294,0.08861173,1.429717,0.005455403,-0.4081154,1.401337,-0.1155049,-0.16791,1.425482,0.3128882,-0.1609925,1.420488,NA,NA,NotTracked,NotTracked,
-0.9892578,-0.1733398,0.2456055,-0.9257813,0.3320313,-0.1699219,-2,-2,-5,-2,-1,-1,-3,-1,-3,-1,-3,0,0,0,1,1,1.8125,1.8125,1.8125,-0.6875,-0.6875,-0.6875,4.143792,7.040738,5.331508,8.195193,6.899231,5.901722,-0.1022452,-0.4570355,1.339395,0.2636249,-0.442021,1.318612,0.1013531,0.3849153,1.412521,-0.05128647,-0.4086798,1.33121,0.2207337,-0.4267744,1.307619,0.09453967,-0.09381307,1.449726,0.09169546,-0.4192886,1.43527,-0.0571105,0.08876303,1.429374,0.005415347,-0.4080915,1.401265,-0.1155917,-0.1681091,1.42529,0.3127632,-0.1608113,1.420501,NA,NA,NotTracked,NotTracked,
-1.109375,-0.3388672,0.1914063,-0.9433594,0.3359375,-0.1689453,-2,-15,-16,-34,-2,-2,-5,-2,-1,0,0,-2,-2,-1,0,0,27.9375,27.9375,27.9375,-4.625,-4.625,-4.625,4.128408,7.028913,5.292178,8.193327,6.898179,5.903814,-0.1028911,-0.4567856,1.340322,0.2623686,-0.4384615,1.313735,0.1012069,0.3849776,1.41219,-0.05067592,-0.4075159,1.33,0.2196962,-0.4221984,1.30754,0.09442934,-0.09384716,1.44961,0.09167758,-0.4192997,1.435234,-0.05721128,0.08873515,1.429184,0.005393269,-0.4081079,1.401133,-0.115784,-0.1679163,1.425172,0.3126777,-0.1605762,1.42072,NA,NA,NotTracked,NotTracked,
-1.333984,-0.2958984,0.2216797,-0.9433594,0.3359375,-0.1689453,2,5,16,14,-3,1,4,1,-1,0,0,-2,-2,-1,0,0,113.5,113.5,113.5,-4.625,-4.625,-4.625,4.247416,6.970291,5.319422,8.193327,6.898179,5.903814,-0.102289,-0.4565679,1.339685,0.2557367,-0.3957058,1.287141,0.1009513,0.385082,1.411627,-0.05000004,-0.4042346,1.328913,0.2240383,-0.3695705,1.306548,0.0940216,-0.09387751,1.449084,0.09090412,-0.4191847,1.434915,-0.0573534,0.0887619,1.429034,0.004561639,-0.4079205,1.400774,-0.1158126,-0.1672925,1.425175,0.3202529,-0.1546135,1.428542,NA,NA,NotTracked,Unknown,
-1.420898,-0.1044922,1.164063,-0.9433594,0.3359375,-0.1689453,3,1,-9,-14,-1,-1,-1,1,-1,0,0,-2,-2,-1,0,0,17.6875,17.6875,17.6875,-4.625,-4.625,-4.625,4.630688,6.390487,5.557243,8.193327,6.898179,5.903814,-0.1026108,-0.4560865,1.339956,0.2198879,-0.3170699,1.248489,0.100727,0.3848604,1.410359,-0.05047851,-0.4059342,1.328801,0.1880797,-0.3527285,1.299579,0.09231353,-0.09348349,1.448253,0.08554747,-0.4177835,1.434066,-0.0572704,0.08881883,1.428715,-0.0007839247,-0.4058673,1.400468,-0.1159828,-0.1666849,1.425127,0.3361541,-0.1268307,1.450382,NA,NA,NotTracked,Unknown,
-0.5351563,-0.3081055,0.980957,-0.9433594,0.3359375,-0.1689453,1,-3,6,26,7,-3,3,1,-1,0,0,-2,-2,-1,0,0,55.0625,55.0625,55.0625,-4.625,-4.625,-4.625,4.695611,5.793103,5.597625,8.193327,6.898179,5.903814,-0.103955,-0.4534816,1.342688,0.2097526,-0.1743451,1.202291,0.1006862,0.3843676,1.408391,-0.05035203,-0.4060767,1.328582,0.2271165,-0.1970587,1.17055,0.091575,-0.09333593,1.447782,0.08296017,-0.4171125,1.433516,-0.05721483,0.08890626,1.42837,-0.003326523,-0.405044,1.399841,-0.1160155,-0.1664101,1.425142,0.340554,-0.1150936,1.449353,NA,NA,NotTracked,Unknown,
-0.2729492,-0.07470703,0.7700195,-0.9433594,0.3359375,-0.1689453,-14,-16,-77,-45,0,-15,-8,-8,-1,0,0,-2,-2,-1,0,0,13.5,13.5,13.5,-4.625,-4.625,-4.625,4.748613,5.353995,5.644997,8.193327,6.898179,5.903814,-0.105452,-0.4548,1.344542,0.196344,-0.01550781,1.190234,0.1012127,0.3837329,1.406213,-0.05359943,-0.4234677,1.331614,0.217676,0.006933127,1.166429,0.09115767,-0.09339775,1.447394,0.08191247,-0.4167733,1.433583,-0.05731659,0.08910666,1.427982,-0.004495034,-0.404661,1.400575,-0.1159604,-0.1653176,1.425303,0.3387201,-0.1164862,1.409362,NA,NA,NotTracked,Unknown,
0.4125977,-0.1499023,0.5214844,-0.9433594,0.3359375,-0.1689453,-3,-2,-2,16,1,-5,-11,-1,-1,0,0,-2,-2,-1,0,0,-117.625,-117.625,-117.625,-4.625,-4.625,-4.625,4.498663,4.323065,5.858614,8.193327,6.898179,5.903814,-0.1064156,-0.4545535,1.345209,0.1951622,0.08607303,1.247853,0.1013806,0.3825675,1.404202,-0.07617381,-0.4300364,1.367227,0.2078067,0.06021876,1.200894,0.09089784,-0.09379466,1.447193,0.08178607,-0.4171191,1.433766,-0.05762184,0.0891996,1.427631,-0.005006284,-0.4056218,1.402441,-0.1159268,-0.1635754,1.425273,0.3352775,-0.1145687,1.387159,NA,NA,NotTracked,Closed,
0.4829102,-0.2583008,0.519043,-0.9433594,0.3359375,-0.1689453,-9,-20,6,14,3,-18,-18,-7,-1,0,0,-2,-2,-1,0,0,-107.4375,-107.4375,-107.4375,-4.625,-4.625,-4.625,4.172617,3.906162,6.116678,8.193327,6.898179,5.903814,-0.1063827,-0.4566412,1.342989,0.191932,0.1232016,1.28661,0.1010587,0.3819721,1.403087,-0.05405644,-0.4079406,1.332463,0.2115591,0.1610197,1.2364,0.0910384,-0.09279338,1.44624,0.08145436,-0.4169066,1.434249,-0.05646344,0.08974804,1.426426,-0.005861474,-0.40558,1.405141,-0.1159462,-0.1613772,1.424382,0.3304209,-0.108403,1.353211,NA,NA,NotTracked,Unknown,
0.5200195,-0.3300781,0.5327148,-0.9433594,0.3359375,-0.1689453,-7,-7,10,25,10,20,-17,-8,-1,0,0,-2,-2,-1,0,0,-34.75,-34.75,-34.75,-4.625,-4.625,-4.625,3.746003,3.652746,6.52846,8.193327,6.898179,5.903814,-0.1053718,-0.4570659,1.339683,0.180366,0.1476419,1.302829,0.1010791,0.3816836,1.402409,-0.0544118,-0.4091775,1.333232,0.1943783,0.1850343,1.2492,0.09195653,-0.09195468,1.443522,0.0813217,-0.41677,1.434578,-0.05557229,0.09010562,1.42553,-0.006158976,-0.4055806,1.406685,-0.1159836,-0.1602137,1.423914,0.3300914,-0.1043539,1.326257,NA,NA,NotTracked,NotTracked,
0.5517578,-0.4282227,0.487793,-0.9433594,0.3359375,-0.1689453,-3,3,-12,-20,-15,0,4,-3,-1,0,0,-2,-2,-1,0,0,5.9375,5.9375,5.9375,-4.625,-4.625,-4.625,3.589224,3.618874,6.729572,8.193327,6.898179,5.903814,-0.1041638,-0.4563741,1.336724,0.1684619,0.1630811,1.307865,0.1012472,0.3815055,1.402261,-0.05382948,-0.4077224,1.333464,0.173343,0.1767931,1.244543,0.0927393,-0.09222016,1.441291,0.08116318,-0.4167979,1.434984,-0.0556256,0.09020216,1.425694,-0.006333773,-0.4058951,1.408151,-0.1154897,-0.1593172,1.423902,0.3270121,-0.09951787,1.308492,NA,NA,Unknown,NotTracked,
0.5771484,-0.4804688,0.512207,-0.9433594,0.3359375,-0.1689453,2,8,23,40,6,8,-8,-2,-1,0,0,-2,-2,-1,0,0,16.3125,16.3125,16.3125,-4.625,-4.625,-4.625,3.551488,3.640156,6.814128,8.193327,6.898179,5.903814,-0.1030138,-0.4542964,1.335693,0.1596882,0.1678017,1.310495,0.1013818,0.3814981,1.402101,-0.07169507,-0.4258664,1.363732,0.1783938,0.1960515,1.261286,0.09338534,-0.0924587,1.439132,0.0810544,-0.4168828,1.435162,-0.05607028,0.08991173,1.426317,-0.006383562,-0.4061978,1.40901,-0.1145456,-0.1590542,1.424429,0.3228752,-0.09589357,1.297991,NA,NA,Unknown,NotTracked,
0.6640625,-0.5478516,0.4975586,-0.9433594,0.3359375,-0.1689453,-7,-15,-42,-97,-20,-11,-7,-4,-1,0,0,-2,-2,-1,0,0,15.0625,15.0625,15.0625,-4.625,-4.625,-4.625,3.561036,3.677486,6.861915,8.193327,6.898179,5.903814,-0.101644,-0.4532576,1.336888,0.1553047,0.1703313,1.311137,0.1015147,0.3816488,1.401797,-0.0533739,-0.4034341,1.333045,0.1714399,0.1986309,1.26064,0.09365769,-0.0926577,1.437732,0.08102404,-0.4169517,1.435238,-0.05666153,0.08985447,1.427271,-0.006327967,-0.4065453,1.409851,-0.1138125,-0.1590618,1.424817,0.3199387,-0.09487556,1.293109,NA,NA,Unknown,NotTracked,
0.6728516,-0.5424805,0.4926758,-0.9433594,0.3359375,-0.1689453,-3,2,2,12,4,7,2,1,-1,0,0,-2,-2,-1,0,0,14.1875,14.1875,14.1875,-4.625,-4.625,-4.625,3.580335,3.699124,6.87806,8.193327,6.898179,5.903814,-0.1009951,-0.454702,1.341955,0.1553441,0.1599255,1.310599,0.1016585,0.3819233,1.401614,-0.05068313,-0.3974697,1.330421,0.1508811,0.1638936,1.2474,0.09372517,-0.09268314,1.436907,0.08103421,-0.4169531,1.435357,-0.05752518,0.09007529,1.42851,-0.006226133,-0.4065412,1.410387,-0.1130068,-0.1585125,1.42648,0.3179605,-0.0941766,1.291558,NA,NA,Unknown,NotTracked,
0.7290039,-0.5708008,0.4804688,-0.9433594,0.3359375,-0.1689453,4,-4,17,27,7,-1,-7,1,-1,0,0,-2,-2,-1,0,0,5.8125,5.8125,5.8125,-4.625,-4.625,-4.625,3.58785,3.712726,6.882552,8.193327,6.898179,5.903814,-0.1020647,-0.4559878,1.346405,0.1549646,0.1603106,1.309689,0.1018096,0.3820396,1.401478,-0.05220593,-0.4054074,1.332433,0.1663348,0.1922034,1.257576,0.09376199,-0.0928776,1.436292,0.0810328,-0.4170741,1.435434,-0.05775792,0.09012724,1.428859,-0.006122588,-0.4067923,1.41084,-0.112214,-0.1599581,1.427976,0.3171587,-0.09429266,1.290629,NA,NA,Unknown,NotTracked,
0.6889648,-0.565918,0.5039063,-0.9433594,0.3359375,-0.1689453,2,2,22,1,2,1,1,1,-1,0,0,-2,-2,-1,0,0,-5.8125,-5.8125,-5.8125,-4.625,-4.625,-4.625,3.594327,3.722764,6.873081,8.193327,6.898179,5.903814,-0.1040321,-0.4603181,1.351731,0.129797,0.2127188,1.316403,0.1019361,0.3821809,1.401274,-0.05332399,-0.4116293,1.33362,0.1532122,0.1959376,1.2516,0.09374015,-0.09290929,1.435985,0.08099225,-0.4171442,1.435561,-0.05783267,0.09011423,1.428851,-0.006161694,-0.4069552,1.411286,-0.1117223,-0.1598007,1.429251,0.3167498,-0.09390473,1.290295,NA,NA,NotTracked,NotTracked,
0.7050781,-0.5258789,0.4624023,-0.9433594,0.3359375,-0.1689453,-1,-3,-7,-8,-3,-1,2,3,-1,0,0,-2,-2,-1,0,0,-0.5,-0.5,-0.5,-4.625,-4.625,-4.625,3.594316,3.723787,6.873611,8.193327,6.898179,5.903814,-0.105569,-0.4598016,1.353749,0.1454422,0.1794151,1.311775,0.1021583,0.3823892,1.401185,-0.05367871,-0.4077166,1.334385,0.1630618,0.1911641,1.255774,0.09370865,-0.09292095,1.435737,0.08089858,-0.4171792,1.435736,-0.05798724,0.08998783,1.428928,-0.006218378,-0.4069571,1.411702,-0.1118819,-0.1613054,1.430414,0.3164079,-0.09355396,1.29019,NA,NA,NotTracked,NotTracked,
0.7143555,-0.5458984,0.4692383,-0.9433594,0.3359375,-0.1689453,1,1,-19,-11,2,2,7,0,-1,0,0,-2,-2,-1,0,0,-0.375,-0.375,-0.375,-4.625,-4.625,-4.625,3.59752,3.726868,6.86579,8.193327,6.898179,5.903814,-0.1064805,-0.4590115,1.353535,0.1424036,0.1938358,1.311363,0.102415,0.3827258,1.400774,-0.05364785,-0.4075656,1.334345,0.1627928,0.1920522,1.2547,0.09365308,-0.09292559,1.435363,0.08084764,-0.4171979,1.435753,-0.0581993,0.09004932,1.42913,-0.006240145,-0.4069522,1.411854,-0.1120992,-0.1614662,1.430915,0.3160107,-0.09349631,1.288985,NA,NA,NotTracked,NotTracked,
0.7333984,-0.527832,0.465332,-0.9433594,0.3359375,-0.1689453,-2,0,9,9,3,-3,3,-2,-1,0,0,-2,-2,-1,0,0,2.125,2.125,2.125,-4.625,-4.625,-4.625,3.597348,3.720704,6.872942,8.193327,6.898179,5.903814,-0.1071194,-0.4583856,1.349773,0.1498504,0.1729947,1.313332,0.1025951,0.3829263,1.400674,-0.05375177,-0.4109037,1.333477,0.169894,0.201554,1.264,0.09369002,-0.09305733,1.435103,0.08078956,-0.4174106,1.435856,-0.05724737,0.09023388,1.428161,-0.006251762,-0.4072335,1.412263,-0.1122588,-0.1614039,1.430959,0.3156048,-0.09348525,1.287878,NA,NA,NotTracked,NotTracked,
0.7075195,-0.5253906,0.4438477,-0.9433594,0.3359375,-0.1689453,3,4,21,30,6,15,4,4,-1,0,0,-2,-2,-1,0,0,4.6875,4.6875,4.6875,-4.625,-4.625,-4.625,3.594411,3.709982,6.885836,8.193327,6.898179,5.903814,-0.1062827,-0.4574248,1.347168,0.1490065,0.1744395,1.312603,0.1027242,0.3830516,1.400671,-0.0783115,-0.4267945,1.37374,0.1590069,0.1853139,1.250243,0.09373224,-0.09311444,1.434864,0.08081007,-0.4174368,1.435857,-0.05660877,0.09010894,1.427509,-0.006212222,-0.4072519,1.412329,-0.1123508,-0.1613013,1.43093,0.3145745,-0.09304275,1.287209,NA,NA,NotTracked,NotTracked,
0.7265625,-0.496582,0.4291992,-0.9433594,0.3359375,-0.1689453,2,9,-16,-9,-1,0,3,0,-1,0,0,-2,-2,-1,0,0,17,17,17,-4.625,-4.625,-4.625,3.617217,3.701571,6.882127,8.193327,6.898179,5.903814,-0.1053346,-0.4550135,1.344176,0.1583825,0.1480118,1.305688,0.1028228,0.3831959,1.400776,-0.05340442,-0.4319523,1.3338,0.1667458,0.2019153,1.260565,0.09377956,-0.093126,1.434691,0.08085117,-0.4174715,1.43587,-0.05699389,0.08998287,1.427917,-0.006106315,-0.4073808,1.412457,-0.1123729,-0.1612692,1.430874,0.3134143,-0.09281407,1.286411,NA,NA,NotTracked,NotTracked,
0.6782227,-0.4150391,0.4882813,-0.9433594,0.3359375,-0.1689453,-3,-5,0,1,6,4,0,-3,-1,0,0,-2,-2,-1,0,0,57.75,57.75,57.75,-4.625,-4.625,-4.625,3.734117,3.707779,6.853251,8.193327,6.898179,5.903814,-0.1043751,-0.4574043,1.340838,0.1422033,0.183107,1.306044,0.1028857,0.3839682,1.401067,-0.05335222,-0.40673,1.332591,0.1354502,0.1682464,1.243355,0.09371569,-0.09312216,1.434538,0.08084132,-0.4174833,1.435869,-0.05765142,0.08999012,1.428626,-0.006097444,-0.4073871,1.412488,-0.1121053,-0.160854,1.430732,0.3099205,-0.09462764,1.287795,NA,NA,NotTracked,NotTracked,
0.7680664,-0.4658203,0.5292969,-0.9433594,0.3359375,-0.1689453,0,7,5,13,-2,9,2,1,-1,0,0,-2,-2,-1,0,0,85.75,85.75,85.75,-4.625,-4.625,-4.625,3.871529,3.734214,6.85006,8.193327,6.898179,5.903814,-0.1033852,-0.4554319,1.341635,0.139123,0.1754768,1.303984,0.1027451,0.385892,1.401971,-0.05317807,-0.4254613,1.333781,0.1637774,0.2449614,1.276312,0.09340505,-0.09332507,1.434064,0.08077661,-0.4179107,1.435688,-0.05687092,0.08996255,1.427692,-0.006159202,-0.4076931,1.412377,-0.1118623,-0.1626287,1.429462,0.3027192,-0.1006715,1.292241,NA,NA,NotTracked,NotTracked,
0.7519531,-0.5439453,0.640625,-0.9433594,0.3359375,-0.1689453,0,-7,10,23,5,10,1,2,-1,0,0,-2,-2,-1,0,0,77.1875,77.1875,77.1875,-4.625,-4.625,-4.625,3.976599,3.795953,6.882842,8.193327,6.898179,5.903814,-0.1031944,-0.4559818,1.342471,0.128381,0.1704523,1.30066,0.1024055,0.3902759,1.40466,-0.05326382,-0.4343142,1.334,0.1425568,0.2372944,1.26475,0.09296136,-0.0935983,1.433901,0.08078046,-0.4181509,1.435624,-0.05624892,0.08994491,1.42681,-0.006139274,-0.4078738,1.412354,-0.1118212,-0.1630035,1.429395,0.2957776,-0.1056577,1.294913,NA,NA,NotTracked,NotTracked,
0.6806641,-0.449707,0.7280273,-0.9433594,0.3359375,-0.1689453,0,7,-17,-14,-3,-10,-5,0,-1,0,0,-2,-2,-1,0,0,33.0625,33.0625,33.0625,-4.625,-4.625,-4.625,4.0542,3.857448,6.985116,8.193327,6.898179,5.903814,-0.1030977,-0.4587108,1.343447,0.1234682,0.1647827,1.301999,0.1026442,0.3931539,1.407459,-0.05317236,-0.4079247,1.332227,0.210312,0.1315977,1.355167,0.09153586,-0.0958814,1.4339,0.08077509,-0.418575,1.43543,-0.05557043,0.0898726,1.425876,-0.006171801,-0.4082412,1.412376,-0.1116788,-0.1633826,1.429387,0.293092,-0.1080662,1.294982,NA,NA,NotTracked,NotTracked,
0.6450195,-0.4873047,0.6611328,-0.9433594,0.3359375,-0.1689453,-4,-5,-25,-26,-7,-3,-3,-2,-1,0,0,-2,-2,-1,0,0,17.3125,17.3125,17.3125,-4.625,-4.625,-4.625,4.034912,3.859387,7.060658,8.193327,6.898179,5.903814,-0.1031439,-0.4589108,1.344652,0.1228982,0.1629629,1.307268,0.1030745,0.3946645,1.40919,-0.05339571,-0.4069,1.331522,0.1970353,0.1351354,1.355143,0.09133398,-0.09507649,1.433935,0.08065657,-0.418587,1.4353,-0.05501961,0.08977582,1.425094,-0.006234476,-0.4082397,1.412329,-0.1114876,-0.1634242,1.429171,0.2906061,-0.1090135,1.294169,NA,NA,NotTracked,NotTracked,
0.6245117,-0.4550781,0.6328125,-0.9433594,0.3359375,-0.1689453,-6,-7,-8,-8,-3,4,-2,-5,-1,0,0,-2,-2,-1,0,0,-7.3125,-7.3125,-7.3125,-4.625,-4.625,-4.625,4.013264,3.85599,7.092629,8.193327,6.898179,5.903814,-0.1036451,-0.4593762,1.346398,0.1215996,0.1623473,1.304102,0.103305,0.3953158,1.409901,-0.05400213,-0.4102798,1.333013,0.1536553,0.2144773,1.304923,0.09112251,-0.09458786,1.433973,0.08045668,-0.4187022,1.435081,-0.05465095,0.08977585,1.424681,-0.006356298,-0.4082997,1.412324,-0.1111915,-0.1638258,1.429509,0.2879119,-0.1088396,1.290784,NA,NA,NotTracked,NotTracked,
0.6479492,-0.4350586,0.6445313,-0.9433594,0.3359375,-0.1689453,0,-1,10,-4,-2,-4,0,1,-1,0,0,-2,-2,-1,0,0,-3.4375,-3.4375,-3.4375,-4.625,-4.625,-4.625,4.016158,3.861791,7.086715,8.193327,6.898179,5.903814,-0.1047384,-0.4585395,1.349209,0.1216429,0.1604245,1.304131,0.1032755,0.3962433,1.411072,-0.05316195,-0.4411497,1.3345,0.1759824,0.1563731,1.346539,0.09081192,-0.09408358,1.433837,0.08028758,-0.4187135,1.434767,-0.05429683,0.0898378,1.424256,-0.006441082,-0.4082741,1.412241,-0.1112951,-0.1644946,1.429934,0.285545,-0.1092201,1.289178,NA,NA,NotTracked,NotTracked,
0.6645508,-0.4375,0.6357422,-0.9433594,0.3359375,-0.1689453,5,9,5,23,-2,-4,-3,1,-1,0,0,-2,-2,-1,0,0,-2.6875,-2.6875,-2.6875,-4.625,-4.625,-4.625,4.018276,3.863544,7.085046,8.193327,6.898179,5.903814,-0.105015,-0.4588645,1.348784,0.120685,0.1610126,1.302878,0.1033972,0.3966491,1.411392,-0.05334138,-0.4388053,1.332346,0.1423262,0.2273658,1.289636,0.09062828,-0.0937534,1.433721,0.08017819,-0.418787,1.434442,-0.05426526,0.08980054,1.424153,-0.006511881,-0.4083431,1.41221,-0.1112836,-0.1646073,1.430055,0.2846988,-0.1091151,1.287981,NA,NA,NotTracked,NotTracked,
0.6665039,-0.440918,0.6342773,-0.9433594,0.3359375,-0.1689453,0,7,13,11,9,3,0,-2,-1,0,0,-2,-2,-1,0,0,0.1875,0.1875,0.1875,-4.625,-4.625,-4.625,4.017221,3.86159,7.084971,8.193327,6.898179,5.903814,-0.1055882,-0.4596311,1.351024,0.1205168,0.1608238,1.301629,0.1035337,0.3972139,1.411783,-0.05435494,-0.4504179,1.3355,0.1473631,0.2199867,1.292395,0.09047834,-0.09331363,1.433663,0.08001682,-0.4187434,1.434255,-0.05405817,0.08977108,1.42378,-0.006599616,-0.4083015,1.412217,-0.1111467,-0.1641445,1.430647,0.2836388,-0.1091768,1.287018,NA,NA,NotTracked,NotTracked,
0.6464844,-0.4482422,0.6469727,-0.9433594,0.3359375,-0.1689453,-5,-7,-61,-27,0,-1,-1,-8,-1,0,0,-2,-2,-1,0,0,-0.875,-0.875,-0.875,-4.625,-4.625,-4.625,4.016761,3.863593,7.081105,8.193327,6.898179,5.903814,-0.1057364,-0.4593326,1.350237,0.1214691,0.1609317,1.301443,0.1035785,0.3974019,1.411883,-0.05307646,-0.4305927,1.331726,0.192606,0.151163,1.334,0.09038374,-0.09306518,1.433473,0.07975646,-0.4186664,1.433889,-0.053539,0.08993319,1.423176,-0.006756443,-0.4082216,1.41205,-0.1110332,-0.1641269,1.430638,0.282957,-0.1094788,1.286632,NA,NA,NotTracked,NotTracked,
0.6357422,-0.4506836,0.6279297,-0.9433594,0.3359375,-0.1689453,-4,-8,-9,-23,-9,-5,-1,-1,-1,0,0,-2,-2,-1,0,0,-3.8125,-3.8125,-3.8125,-4.625,-4.625,-4.625,4.015931,3.866251,7.076871,8.193327,6.898179,5.903814,-0.1048428,-0.4587839,1.348091,0.1207693,0.1600543,1.301727,0.1037072,0.3977402,1.411842,-0.05352099,-0.4367138,1.332474,0.1342447,0.2405404,1.290167,0.09019929,-0.09285536,1.433406,0.07959665,-0.4187734,1.433654,-0.05343528,0.08996331,1.422922,-0.006907484,-0.4082747,1.411855,-0.1109789,-0.1644016,1.430674,0.2828012,-0.1091751,1.285551,NA,NA,NotTracked,NotTracked,
0.4990234,-0.421875,0.6635742,-0.9433594,0.3359375,-0.1689453,0,1,2,3,2,-2,-1,-1,-1,0,0,-2,-2,-1,0,0,-4.1875,-4.1875,-4.1875,-4.625,-4.625,-4.625,4.03156,3.879354,7.053638,8.193327,6.898179,5.903814,-0.1047117,-0.4580148,1.346369,0.1199265,0.159132,1.295021,0.1037623,0.3980096,1.411746,-0.05341363,-0.4369163,1.330634,0.1364805,0.2294712,1.282462,0.09009363,-0.09271557,1.433269,0.07952429,-0.418859,1.433255,-0.05349635,0.08998315,1.422867,-0.00695844,-0.4083729,1.411501,-0.1109967,-0.1646937,1.430329,0.2832249,-0.1091584,1.28519,NA,NA,NotTracked,NotTracked,
0.2685547,-0.3598633,0.5151367,-0.9433594,0.3359375,-0.1689453,1,2,3,4,-2,-1,-12,0,-1,0,0,-2,-2,-1,0,0,9.4375,9.4375,9.4375,-4.625,-4.625,-4.625,4.114703,3.961583,6.921098,8.193327,6.898179,5.903814,-0.1043953,-0.4562327,1.343251,0.1207491,0.1515912,1.28295,0.1036562,0.3981852,1.411521,-0.05351301,-0.4034205,1.327445,0.2310554,0.1608288,1.3335,0.09003051,-0.09258112,1.433137,0.07936348,-0.4189663,1.432698,-0.05340861,0.09005675,1.4226,-0.007157406,-0.4085214,1.410652,-0.11098,-0.1648016,1.429815,0.2909691,-0.110974,1.295556,NA,NA,NotTracked,Unknown,
0.362793,-0.1845703,0.5546875,-0.9433594,0.3359375,-0.1689453,-2,4,-27,-6,-3,2,5,0,-1,0,0,-2,-2,-1,0,0,19.5625,19.5625,19.5625,-4.625,-4.625,-4.625,4.37311,4.349683,6.500859,8.193327,6.898179,5.903814,-0.1045609,-0.4577976,1.339817,0.103063,0.05018271,1.217966,0.1027308,0.3957487,1.410956,-0.05409544,-0.4036936,1.327137,0.0662727,0.01587775,1.2848,0.0894403,-0.09203507,1.434409,0.07899651,-0.4186601,1.431769,-0.05348811,0.09012053,1.422581,-0.007568111,-0.4081254,1.409031,-0.1110781,-0.1658432,1.42962,0.3080544,-0.1123734,1.31768,NA,NA,NotTracked,Unknown,
0.234375,-0.184082,0.6362305,-0.9433594,0.3359375,-0.1689453,1,11,-1,-7,2,3,7,1,-1,0,0,-2,-2,-1,0,0,31.25,31.25,31.25,-4.625,-4.625,-4.625,4.504875,4.892607,6.194818,8.193327,6.898179,5.903814,-0.1043953,-0.4572874,1.339187,0.1320368,-0.08328838,1.182113,0.1013409,0.3941134,1.410193,-0.05427512,-0.4070635,1.325599,0.08621985,-0.1191277,1.24175,0.0893881,-0.0918669,1.434444,0.07802731,-0.4160004,1.43032,-0.05310632,0.08988043,1.422295,-0.008026769,-0.4049492,1.405083,-0.1116118,-0.1672272,1.429457,0.3348345,-0.1109577,1.36859,NA,NA,NotTracked,Unknown,
-0.2382813,-0.215332,0.9311523,-0.9433594,0.3359375,-0.1689453,-2,3,9,19,2,2,1,-4,-1,0,0,-2,-2,-1,0,0,-5.3125,-5.3125,-5.3125,-4.625,-4.625,-4.625,4.516166,5.478173,5.970113,8.193327,6.898179,5.903814,-0.1039312,-0.4600583,1.34076,0.1497617,-0.2167525,1.168088,0.09919958,0.3922743,1.409317,-0.05432656,-0.4107895,1.322126,0.1091688,-0.1897384,1.165857,0.08929999,-0.09197965,1.434267,0.07715651,-0.415021,1.428031,-0.05430679,0.08931928,1.423085,-0.008738646,-0.4038156,1.400262,-0.1121895,-0.16825,1.42969,0.3402265,-0.1103779,1.391442,NA,NA,NotTracked,Unknown,
-0.612793,-0.3334961,1.068359,-0.9433594,0.3359375,-0.1689453,-1,-7,-1,-8,-3,-5,-5,2,-1,0,0,-2,-2,-1,0,0,20.3125,20.3125,20.3125,-4.625,-4.625,-4.625,4.453469,5.992295,5.823351,8.193327,6.898179,5.903814,-0.1038169,-0.4610434,1.343882,0.1860442,-0.3213588,1.226464,0.09716739,0.3914083,1.408675,-0.05479623,-0.4140238,1.320943,0.158761,-0.379554,1.25925,0.08574358,-0.09164816,1.435378,0.07129093,-0.4150492,1.425029,-0.05666196,0.08868391,1.423601,-0.01489191,-0.4022796,1.39575,-0.1128452,-0.1695677,1.429716,0.334277,-0.1135865,1.399069,NA,NA,NotTracked,Unknown,
-1.083008,-0.25,0.8505859,-0.9433594,0.3359375,-0.1689453,0,-7,0,-1,-2,-2,3,0,-1,0,0,-2,-2,-1,0,0,10,10,10,-4.625,-4.625,-4.625,4.353786,6.511243,5.643068,8.193327,6.898179,5.903814,-0.1033458,-0.4612339,1.346453,0.2268837,-0.3802147,1.243957,0.09543791,0.3905636,1.407971,-0.05486809,-0.4180261,1.32088,0.1841288,-0.3828887,1.228353,0.08472119,-0.09157983,1.435642,0.07105679,-0.4154454,1.424168,-0.05890723,0.08795536,1.423718,-0.01508208,-0.4027525,1.394521,-0.1136691,-0.1711498,1.429324,0.3248447,-0.1200966,1.407162,NA,NA,NotTracked,Unknown,
-1.141113,-0.2905273,0.5688477,-0.9433594,0.3359375,-0.1689453,-1,-1,-1,-3,-4,-4,-1,1,-1,0,0,-2,-2,-1,0,0,0.375,0.375,0.375,-4.625,-4.625,-4.625,4.186977,6.859875,5.447869,8.193327,6.898179,5.903814,-0.1027906,-0.4579585,1.348807,0.2430301,-0.4111905,1.279209,0.09434462,0.3900738,1.40716,-0.05345033,-0.447892,1.32225,0.2006111,-0.3981968,1.28313,0.08477878,-0.09162112,1.435718,0.07376187,-0.4162093,1.42311,-0.06001544,0.0873277,1.423078,-0.01223395,-0.404082,1.392267,-0.1140564,-0.1725355,1.428777,0.3170923,-0.1354657,1.408195,NA,NA,NotTracked,Unknown,
-1.134277,-0.1914063,0.4750977,-0.9433594,0.3359375,-0.1689453,-5,-6,-10,-4,-2,-1,-3,-1,-1,0,0,-2,-2,-1,0,0,19.875,19.875,19.875,-4.625,-4.625,-4.625,4.105995,6.97788,5.340428,8.193327,6.898179,5.903814,-0.1011207,-0.4597288,1.346196,0.2512443,-0.4281303,1.298978,0.09354603,0.389521,1.405894,-0.05300977,-0.4481973,1.322084,0.2059704,-0.4124639,1.29148,0.0850273,-0.09170611,1.435673,0.07698758,-0.4167305,1.422467,-0.06121219,0.08693017,1.422158,-0.008823563,-0.4050659,1.390862,-0.1144104,-0.1731406,1.427722,0.312196,-0.1458235,1.406952,NA,NA,NotTracked,Unknown,
