ALX,ALY,ALZ,ARX,ARY,ARZ,EMG0L,EMG1L,EMG2L,EMG3L,EMG4L,EMG5L,EMG6L,EMG7L,EMG0R,EMG1R,EMG2R,EMG3R,EMG4R,EMG5R,EMG6R,EMG7R,GLX,GLY,GLZ,GRX,GRY,GRZ,ORL,OPL,OYL,ORR,OPR,OYR,LHNX,LHNY,LHNZ,RHNX,RHNY,RHNZ,HX,HY,HZ,LTX,LTY,LTZ,RTX,RTY,RTZ,SpineMidX,SpineMidY,SpineMidZ,SpineBaseX,SpineBaseY,SpineBaseZ,ShoulderLeftX,ShoulderLeftY,ShoulderLeftZ,ShoulderRightX,ShoulderRightY,ShoulderRightZ,ElbowLeftX,ElbowLeftY,ElbowLeftZ,ElbowRightX,ElbowRightY,ElbowRightZ,Myo_Pose_left,Myo_Pose_Right,Kinect_pose_left,Kinect_pose_right
0.9526367,-0.2788086,-0.02929688,-0.9316406,0.2949219,-0.2016602,-2,1,-2,-1,0,-1,1,1,9,6,-3,-20,-10,2,10,12,0.3125,0.3125,0.3125,4.375,4.375,4.375,2.281853,2.969965,4.455988,8.354428,6.913333,7.568609,-0.05031005,-0.5262652,1.490354,0.2379231,0.1784581,1.456228,0.1615738,0.2438046,1.580236,-0.09714303,-0.5245783,1.492914,0.2347748,0.1125015,1.499419,0.15094,-0.1759968,1.576295,0.1361083,-0.4749941,1.554397,-0.001468164,-0.01157659,1.576989,0.06184989,-0.4629293,1.533197,-0.0466596,-0.2511844,1.575775,0.4076361,-0.1128173,1.340326,NA,NA,NotTracked,NotTracked,
0.9526367,-0.2788086,-0.02929688,-0.90625,0.2900391,-0.1958008,-2,1,-2,-1,0,-1,1,1,-9,-3,-1,-2,8,3,-3,-14,0.3125,0.3125,0.3125,8.6875,8.6875,8.6875,2.281853,2.969965,4.455988,8.351884,6.913496,7.560402,-0.04991617,-0.5262215,1.48945,0.2387071,0.1787828,1.454837,0.161689,0.2437321,1.580307,-0.09506512,-0.526388,1.488167,0.2266269,0.1206284,1.505231,0.1510078,-0.1760053,1.576228,0.1362047,-0.47493,1.554269,-0.001252135,-0.01155065,1.577047,0.06191501,-0.4628807,1.533092,-0.04663382,-0.2510777,1.575796,0.4088663,-0.1130708,1.341444,NA,NA,NotTracked,NotTracked,
0.9526367,-0.2788086,-0.02929688,-0.9365234,0.3071289,-0.2353516,-2,1,-2,-1,0,-1,1,1,7,-4,-9,-13,-13,-10,-10,-7,0.3125,0.3125,0.3125,21.375,21.375,21.375,2.281853,2.969965,4.455988,8.31568,6.915257,7.477072,-0.0502391,-0.5262624,1.490088,0.2407225,0.1799393,1.455091,0.161818,0.2436004,1.580418,-0.1005519,-0.5241964,1.4664,0.2340046,0.1196986,1.486154,0.1510124,-0.1760107,1.576221,0.1362071,-0.4749224,1.554259,-0.001040404,-0.01165622,1.577177,0.06191016,-0.4628726,1.533072,-0.04671941,-0.2500502,1.576,0.4101311,-0.1132712,1.34295,NA,NA,NotTracked,NotTracked,
0.9526367,-0.2788086,-0.02929688,-0.894043,0.378418,-0.2734375,-2,1,-2,-1,0,-1,1,1,-9,-1,-1,-10,3,-6,-2,2,0.3125,0.3125,0.3125,30.8125,30.8125,30.8125,2.281853,2.969965,4.455988,8.300657,6.91706,7.424948,-0.05041767,-0.5257599,1.490129,0.2458244,0.1775993,1.453938,0.1621918,0.243392,1.580568,-0.09764124,-0.5156531,1.489781,0.2241873,0.1275335,1.5036,0.1510146,-0.1759975,1.576223,0.136224,-0.4747511,1.554242,-0.003669868,-0.01166773,1.575403,0.06190102,-0.462734,1.533059,-0.04690005,-0.2491663,1.575902,0.4108894,-0.1127114,1.344143,NA,NA,NotTracked,NotTracked,
0.9526367,-0.2788086,-0.02929688,-0.9306641,0.3691406,-0.3354492,-2,1,-2,-1,0,-1,1,1,-4,7,-1,-4,-7,-11,-17,-15,0.3125,0.3125,0.3125,46.4375,46.4375,46.4375,2.281853,2.969965,4.455988,8.298764,6.922256,7.370914,-0.04985219,-0.5255712,1.48944,0.2636479,0.1757346,1.449576,0.1624742,0.243417,1.581043,-0.0987912,-0.5008535,1.499111,0.2211809,0.1348613,1.50225,0.1515541,-0.1753162,1.576979,0.1366821,-0.4738764,1.554061,-0.004017437,-0.01218326,1.574599,0.06210631,-0.462056,1.532658,-0.04676212,-0.2475018,1.576083,0.4175766,-0.1084932,1.353433,NA,NA,NotTracked,NotTracked,
0.9526367,-0.2788086,-0.02929688,-0.9282227,0.4379883,-0.3461914,-2,1,-2,-1,0,-1,1,1,-15,-9,-7,-13,-15,-6,1,-11,0.3125,0.3125,0.3125,85.875,85.875,85.875,2.281853,2.969965,4.455988,8.296013,6.93906,7.27646,-0.04938455,-0.5260631,1.490603,0.2784117,0.1796104,1.449594,0.1620767,0.2437998,1.582091,-0.09368867,-0.5288553,1.490706,0.2299708,0.1700097,1.499,0.1514533,-0.173743,1.578628,0.1372026,-0.4721073,1.55421,-0.003343331,-0.0120894,1.575332,0.06244307,-0.4604714,1.532449,-0.04646192,-0.246566,1.576243,0.4204843,-0.1056845,1.363219,NA,NA,NotTracked,NotTracked,
0.9526367,-0.2788086,-0.02929688,-0.9042969,0.4223633,-0.1850586,-2,1,-2,-1,0,-1,1,1,-7,0,-2,-19,-10,10,2,-6,0.3125,0.3125,0.3125,130.125,130.125,130.125,2.281853,2.969965,4.455988,8.237201,7.037393,7.003202,-0.04963136,-0.5263038,1.491618,0.2977641,0.1838984,1.452754,0.1613681,0.244601,1.584012,-0.09646607,-0.5183327,1.494139,0.2242489,0.1640966,1.513,0.1514028,-0.1732618,1.579745,0.1374469,-0.4715399,1.554285,-0.003248788,-0.01201459,1.57617,0.06263656,-0.4599516,1.532171,-0.04618181,-0.2465084,1.576497,0.4351078,-0.104623,1.375574,NA,NA,NotTracked,NotTracked,
0.9526367,-0.2788086,-0.02929688,-0.9140625,0.3505859,-0.1069336,-2,1,-2,-1,0,-1,1,1,7,10,-1,-8,-9,-3,4,-5,0.3125,0.3125,0.3125,139,139,139,2.281853,2.969965,4.455988,8.199956,7.078784,6.884224,-0.04898844,-0.5273496,1.491457,0.3180326,0.1906482,1.454809,0.160632,0.2455037,1.584809,-0.09635882,-0.5131567,1.5027,0.2940075,0.1821605,1.498818,0.151045,-0.1729571,1.580553,0.1376005,-0.4711887,1.554314,-0.004354638,-0.01190007,1.578214,0.06280074,-0.4596186,1.531924,-0.04588824,-0.2494034,1.576658,0.4483875,-0.1034137,1.386689,NA,NA,NotTracked,NotTracked,
0.9526367,-0.2788086,-0.02929688,-0.8920898,0.1513672,0.1308594,-2,1,-2,-1,0,-1,1,1,0,7,10,16,21,13,16,-2,0.3125,0.3125,0.3125,143.875,143.875,143.875,2.281853,2.969965,4.455988,7.97235,7.180952,6.405381,-0.04969444,-0.5272049,1.495158,0.3522595,0.1969671,1.462089,0.1574011,0.2475143,1.587,-0.09562258,-0.5153034,1.496433,0.328891,0.1817105,1.482471,0.1508134,-0.1726942,1.581672,0.1376579,-0.4709093,1.554491,-0.005396781,-0.01191914,1.579744,0.06284996,-0.4595874,1.531966,-0.04546626,-0.2536425,1.577632,0.4706624,-0.1071572,1.418801,NA,NA,NotTracked,NotTracked,
0.9526367,-0.2788086,-0.02929688,-0.8994141,0.09228516,0.1313477,-2,1,-2,-1,0,-1,1,1,2,-4,6,14,-4,6,1,-2,0.3125,0.3125,0.3125,135.25,135.25,135.25,2.281853,2.969965,4.455988,7.863443,7.196827,6.217693,-0.05007742,-0.5274472,1.496995,0.3670052,0.1973349,1.463871,0.156173,0.2482145,1.587568,-0.09560689,-0.5503646,1.497667,0.3452643,0.1766105,1.480083,0.1506948,-0.1726027,1.582024,0.1376639,-0.470818,1.554693,-0.006227135,-0.01170381,1.580684,0.06289484,-0.4596143,1.532064,-0.04543766,-0.2545881,1.577979,0.4770073,-0.1094172,1.4302,NA,NA,NotTracked,NotTracked,
0.9526367,-0.2788086,-0.02929688,-1.018555,0.03027344,0.144043,-2,1,-2,-1,0,-1,1,1,4,6,-5,-12,-3,-10,-11,-15,0.3125,0.3125,0.3125,132.875,132.875,132.875,2.281853,2.969965,4.455988,7.636708,7.198571,5.840081,-0.05060081,-0.5261083,1.499604,0.3800876,0.1970544,1.466761,0.15538,0.2486032,1.588017,-0.0968309,-0.5315982,1.500167,0.347921,0.175462,1.482,0.1505843,-0.1725017,1.582288,0.1376161,-0.4707835,1.554809,-0.006576656,-0.01167838,1.581101,0.0628975,-0.4596643,1.532118,-0.0452488,-0.2556604,1.578452,0.4830756,-0.1108184,1.441702,NA,NA,NotTracked,NotTracked,
0.9526367,-0.2788086,-0.02929688,-1.11084,0.09716797,0.1762695,-2,1,-2,-1,0,-1,1,1,-19,-3,-5,-14,-3,8,8,-10,0.3125,0.3125,0.3125,109.6875,109.6875,109.6875,2.281853,2.969965,4.455988,7.434892,7.195291,5.497233,-0.05037998,-0.5263195,1.500373,0.3898335,0.1975115,1.467984,0.1543971,0.2488845,1.587937,-0.09691042,-0.529593,1.50425,0.3393586,0.1649503,1.456979,0.1504107,-0.1723943,1.582522,0.1375927,-0.4707544,1.554976,-0.006959788,-0.01172995,1.581159,0.06291474,-0.4597181,1.53221,-0.04513214,-0.2566388,1.578683,0.4872642,-0.1107785,1.448913,NA,NA,NotTracked,NotTracked,
0.9526367,-0.2788086,-0.02929688,-1.12207,0.02246094,0.3286133,-2,1,-2,-1,0,-1,1,1,21,19,4,0,-3,-10,-55,-40,0.3125,0.3125,0.3125,64.625,64.625,64.625,2.281853,2.969965,4.455988,7.16157,7.191827,5.136461,-0.05071789,-0.5266182,1.503317,0.4000329,0.18669,1.469735,0.1537301,0.2491738,1.588108,-0.09832244,-0.5325202,1.508842,0.3280248,0.1726444,1.440556,0.1500915,-0.1721968,1.583004,0.1374531,-0.4706524,1.555331,-0.007415872,-0.01183802,1.581546,0.06290249,-0.4598727,1.532461,-0.0450656,-0.257567,1.579166,0.4909351,-0.1114387,1.457481,NA,NA,NotTracked,NotTracked,
0.9526367,-0.2788086,-0.02929688,-1.098145,-0.05078125,0.3525391,-2,1,-2,-1,0,-1,1,1,3,6,12,35,5,1,-10,-10,0.3125,0.3125,0.3125,33.875,33.875,33.875,2.281853,2.969965,4.455988,7.026057,7.187403,4.981947,-0.05069742,-0.5268678,1.504282,0.4018829,0.1857422,1.466928,0.1530676,0.2491854,1.588119,-0.09898803,-0.5356897,1.508273,0.3448849,0.1561065,1.472179,0.1499175,-0.1722919,1.583434,0.1372977,-0.4709964,1.55584,-0.007577252,-0.01184658,1.581524,0.06282283,-0.4604153,1.532828,-0.04539889,-0.2596474,1.57941,0.493777,-0.1125522,1.464737,NA,NA,NotTracked,NotTracked,
0.9526367,-0.2788086,-0.02929688,-0.9946289,0.05615234,0.1552734,-2,1,-2,-1,0,-1,1,1,-7,-17,-15,-19,1,3,27,20,0.3125,0.3125,0.3125,-17.125,-17.125,-17.125,2.281853,2.969965,4.455988,6.941052,7.170845,4.905139,-0.05167061,-0.5263957,1.50436,0.4014634,0.18533,1.464893,0.1528714,0.2492688,1.588169,-0.09946136,-0.5089208,1.509484,0.3396487,0.1618175,1.460428,0.1497033,-0.172253,1.583838,0.1372277,-0.4710044,1.556117,-0.007684784,-0.01185505,1.58165,0.06280088,-0.4604609,1.533024,-0.04547925,-0.259931,1.579462,0.4942847,-0.1125617,1.46559,NA,NA,NotTracked,NotTracked,
0.9526367,-0.2788086,-0.02929688,-0.9990234,0.1523438,0.05761719,-2,1,-2,-1,0,-1,1,1,-5,0,-1,-16,6,1,-32,-8,0.3125,0.3125,0.3125,-4.375,-4.375,-4.375,2.281853,2.969965,4.455988,7.006674,7.163013,4.990881,-0.05081009,-0.5271676,1.501353,0.3993758,0.1837686,1.462283,0.1524729,0.2493311,1.588106,-0.09656817,-0.5303096,1.502235,0.3406071,0.1610194,1.461844,0.1497421,-0.1722967,1.584067,0.137301,-0.4710782,1.556362,-0.007698882,-0.01189148,1.581654,0.06289721,-0.4605829,1.533226,-0.04534685,-0.2607033,1.579295,0.4945891,-0.1130509,1.465636,NA,NA,NotTracked,NotTracked,
0.9526367,-0.2788086,-0.02929688,-1,0.2255859,0.03515625,-2,1,-2,-1,0,-1,1,1,-6,-7,-14,-22,-5,-11,-39,-25,0.3125,0.3125,0.3125,-17.4375,-17.4375,-17.4375,2.281853,2.969965,4.455988,7.041788,7.156464,5.041141,-0.0507695,-0.5263143,1.499337,0.3977863,0.1846202,1.459327,0.1519932,0.2493882,1.587995,-0.09510964,-0.5242301,1.493524,0.3485539,0.1495129,1.47187,0.1497429,-0.1722921,1.584262,0.1374328,-0.4711905,1.556502,-0.007689352,-0.01190277,1.581635,0.06301206,-0.4607123,1.533299,-0.04530801,-0.2609136,1.579217,0.4944507,-0.1132603,1.46576,NA,NA,NotTracked,NotTracked,
0.9526367,-0.2788086,-0.02929688,-0.9980469,0.1982422,0.05517578,-2,1,-2,-1,0,-1,1,1,5,-10,-13,-22,-16,-4,18,27,0.3125,0.3125,0.3125,-24.6875,-24.6875,-24.6875,2.281853,2.969965,4.455988,7.039521,7.154654,5.053126,-0.05050422,-0.5260019,1.497194,0.3968162,0.1852773,1.457645,0.151651,0.2494158,1.587911,-0.0967235,-0.5149294,1.50202,0.3467074,0.1523615,1.458321,0.14975,-0.17233,1.584345,0.1375329,-0.4712972,1.556623,-0.00767985,-0.01187484,1.581613,0.06313832,-0.460868,1.533485,-0.04519554,-0.2611998,1.579045,0.4944211,-0.1135537,1.465658,NA,NA,NotTracked,NotTracked,
0.9526367,-0.2788086,-0.02929688,-0.9980469,0.1982422,0.05517578,-2,1,-2,-1,0,-1,1,1,5,-10,-13,-22,-16,-4,18,27,0.3125,0.3125,0.3125,-24.6875,-24.6875,-24.6875,2.281853,2.969965,4.455988,7.039521,7.154654,5.053126,-0.04919151,-0.5256258,1.496025,0.3956769,0.1836479,1.457491,0.1512865,0.249403,1.587914,-0.09701736,-0.544833,1.50375,0.3384775,0.1588652,1.452932,0.149767,-0.172357,1.584435,0.1376184,-0.4713567,1.556754,-0.00775864,-0.01193295,1.581666,0.06321634,-0.4609358,1.53358,-0.0449357,-0.2617856,1.578702,0.4943627,-0.113664,1.465477,NA,NA,NotTracked,NotTracked,
0.9526367,-0.2788086,-0.02929688,-0.9853516,0.2055664,0.04394531,-2,1,-2,-1,0,-1,1,1,24,6,-6,-8,-3,-11,-12,21,0.3125,0.3125,0.3125,-13.1875,-13.1875,-13.1875,2.281853,2.969965,4.455988,7.020761,7.158564,5.062165,-0.04867247,-0.5259281,1.49559,0.3945481,0.1845952,1.457028,0.1510044,0.2494008,1.588027,-0.09509576,-0.5379118,1.497892,0.338345,0.1592543,1.461846,0.1499322,-0.1723903,1.584709,0.1378644,-0.4714376,1.557021,-0.007825137,-0.01189374,1.58177,0.06344727,-0.4610415,1.533747,-0.044868,-0.2618413,1.578678,0.4946273,-0.1138679,1.464964,NA,NA,NotTracked,NotTracked,
0.9526367,-0.2788086,-0.02929688,-0.9829102,0.1899414,0.04589844,-2,1,-2,-1,0,-1,1,1,-14,-4,-8,-17,-12,-14,-2,-4,0.3125,0.3125,0.3125,-16.9375,-16.9375,-16.9375,2.281853,2.969965,4.455988,7.027434,7.160096,5.086172,-0.04814529,-0.5252725,1.495206,0.3925952,0.1843904,1.455896,0.1504071,0.249401,1.587915,-0.09189148,-0.5308996,1.493233,0.3381693,0.157403,1.458926,0.1499367,-0.172407,1.58479,0.1380132,-0.4714505,1.557183,-0.007870116,-0.01190761,1.581857,0.06362845,-0.461157,1.533957,-0.04482162,-0.261711,1.57865,0.4942632,-0.1140448,1.464356,NA,NA,NotTracked,NotTracked,
0.9526367,-0.2788086,-0.02929688,-0.9731445,0.199707,0.03271484,-2,1,-2,-1,0,-1,1,1,-39,-28,-11,-8,-1,-1,0,-29,0.3125,0.3125,0.3125,-12.5,-12.5,-12.5,2.281853,2.969965,4.455988,7.044098,7.16118,5.119003,-0.04767144,-0.5256155,1.495637,0.3909762,0.1837714,1.455235,0.1501212,0.2492993,1.587804,-0.0905638,-0.5285283,1.492176,0.3373559,0.1542639,1.458811,0.1499848,-0.1724986,1.584857,0.1382862,-0.4716834,1.557489,-0.007941521,-0.01196703,1.581896,0.06393928,-0.4614817,1.534186,-0.04478148,-0.2617756,1.57863,0.4939658,-0.1144963,1.463382,NA,NA,NotTracked,NotTracked,
0.9526367,-0.2788086,-0.02929688,-0.9448242,0.199707,0.0234375,-2,1,-2,-1,0,-1,1,1,7,4,2,-1,-6,-1,-2,3,0.3125,0.3125,0.3125,-13.25,-13.25,-13.25,2.281853,2.969965,4.455988,7.05049,7.160174,5.140004,-0.04867125,-0.5250068,1.497372,0.390248,0.1821726,1.455118,0.1496227,0.2491939,1.587724,-0.09425267,-0.5258932,1.500098,0.3344232,0.1558449,1.45767,0.1499763,-0.1725196,1.584979,0.1383775,-0.4717052,1.557612,-0.007999512,-0.01204548,1.581991,0.06402953,-0.4615789,1.534273,-0.04474637,-0.261764,1.578643,0.4934889,-0.1146035,1.462656,NA,NA,NotTracked,NotTracked,
0.9526367,-0.2788086,-0.02929688,-0.934082,0.1875,0.02880859,-2,1,-2,-1,0,-1,1,1,-3,0,-2,-5,-4,0,1,-5,0.3125,0.3125,0.3125,-13.75,-13.75,-13.75,2.281853,2.969965,4.455988,7.050545,7.157418,5.147386,-0.04865339,-0.5257965,1.49848,0.3903607,0.182496,1.453049,0.1493098,0.2491799,1.587627,-0.09398931,-0.5313779,1.497476,0.3323165,0.1572769,1.455376,0.1499703,-0.1725155,1.585068,0.1384976,-0.4716672,1.557785,-0.008009742,-0.01205833,1.582007,0.06412067,-0.4616071,1.534345,-0.04459946,-0.2616481,1.578673,0.4925286,-0.1158035,1.462265,NA,NA,NotTracked,NotTracked,
0.9526367,-0.2788086,-0.02929688,-0.8354492,0.2290039,0.09326172,-2,1,-2,-1,0,-1,1,1,1,1,2,1,2,1,-1,2,0.3125,0.3125,0.3125,-7.5,-7.5,-7.5,2.281853,2.969965,4.455988,7.02774,7.126278,5.137914,-0.04901325,-0.5245151,1.501143,0.3933813,0.1751051,1.443688,0.1485539,0.2491717,1.587522,-0.0959774,-0.4994628,1.5061,0.3494877,0.1651262,1.453706,0.1500703,-0.1725275,1.585345,0.1387163,-0.4716813,1.558201,-0.008081894,-0.01214728,1.582109,0.06435154,-0.4616798,1.534699,-0.04448713,-0.2618548,1.578758,0.4898563,-0.1199187,1.461941,NA,NA,NotTracked,Open,
0.9526367,-0.2788086,-0.02929688,-0.7148438,0.2446289,0.04248047,-2,1,-2,-1,0,-1,1,1,-3,-5,-2,-6,-5,1,1,3,0.3125,0.3125,0.3125,-5.6875,-5.6875,-5.6875,2.281853,2.969965,4.455988,7.016851,7.062743,5.134487,-0.04884253,-0.5254432,1.500285,0.3993262,0.1643897,1.435151,0.1478478,0.2492498,1.587221,-0.09568095,-0.5148116,1.503591,0.3237092,0.117165,1.3742,0.1500735,-0.172509,1.585376,0.1387778,-0.4716482,1.558289,-0.008078888,-0.01212535,1.582165,0.06441271,-0.4616789,1.534783,-0.04441682,-0.2619068,1.578773,0.4870955,-0.1234731,1.462398,NA,NA,NotTracked,Open,
0.9526367,-0.2788086,-0.02929688,-0.6728516,0.2636719,0.06201172,-2,1,-2,-1,0,-1,1,1,-2,-3,-3,-2,-3,-3,0,0,0.3125,0.3125,0.3125,20.3125,20.3125,20.3125,2.281853,2.969965,4.455988,7.013377,6.954749,5.115753,-0.04940926,-0.5261635,1.501377,0.4047676,0.1525564,1.423145,0.1474867,0.2492522,1.587161,-0.09849231,-0.5351644,1.508429,0.3325568,0.1553206,1.371421,0.1500647,-0.1725432,1.585452,0.1388103,-0.4717521,1.558524,-0.008145205,-0.01214444,1.58242,0.06445055,-0.461812,1.534965,-0.04444366,-0.2618372,1.578895,0.4819018,-0.1340079,1.468031,NA,NA,NotTracked,Open,
0.9526367,-0.2788086,-0.02929688,-0.652832,0.3520508,0.07910156,-2,1,-2,-1,0,-1,1,1,-1,0,0,1,1,2,1,1,0.3125,0.3125,0.3125,31.4375,31.4375,31.4375,2.281853,2.969965,4.455988,7.017609,6.879724,5.101277,-0.05016505,-0.5261495,1.500779,0.4109398,0.1310359,1.407688,0.1468403,0.2493377,1.586976,-0.09743112,-0.5236503,1.506479,0.3360772,0.1371154,1.347467,0.1500534,-0.1725268,1.585472,0.1388099,-0.4717234,1.558622,-0.008379278,-0.01217415,1.582831,0.06445968,-0.4618051,1.535157,-0.04433054,-0.2619516,1.579037,0.4560885,-0.1727534,1.494288,NA,NA,NotTracked,Open,
0.9526367,-0.2788086,-0.02929688,-0.6982422,0.5429688,0.2133789,-2,1,-2,-1,0,-1,1,1,1,-1,0,-2,3,2,1,1,0.3125,0.3125,0.3125,20.375,20.375,20.375,2.281853,2.969965,4.455988,7.046035,6.574987,5.082833,-0.04977499,-0.5263669,1.501133,0.4182413,0.1006201,1.393991,0.1462762,0.2493711,1.587029,-0.09624445,-0.5255182,1.504271,0.3516192,0.1062419,1.349133,0.1500513,-0.1725274,1.585495,0.1388424,-0.4717529,1.558756,-0.008456303,-0.01212463,1.583136,0.06451821,-0.4618638,1.535447,-0.04428657,-0.2620246,1.579364,0.433777,-0.2013281,1.536321,NA,NA,NotTracked,Open,
0.9526367,-0.2788086,-0.02929688,-0.6083984,0.6347656,0.3154297,-2,1,-2,-1,0,-1,1,1,2,0,2,2,0,2,9,2,0.3125,0.3125,0.3125,22.6875,22.6875,22.6875,2.281853,2.969965,4.455988,7.052827,6.307975,5.062785,-0.04999769,-0.526637,1.501599,0.4250786,0.009863216,1.36984,0.1451177,0.2496382,1.587022,-0.09752244,-0.5240161,1.507984,0.3745465,0.02951552,1.313625,0.1500361,-0.1725269,1.585491,0.138817,-0.4718609,1.558856,-0.008898405,-0.0122962,1.583843,0.06449953,-0.4619831,1.535613,-0.04419506,-0.2621205,1.57987,0.4269049,-0.2118306,1.550215,NA,NA,NotTracked,Closed,
0.9526367,-0.2788086,-0.02929688,-0.5498047,0.6801758,0.3261719,-2,1,-2,-1,0,-1,1,1,4,5,0,-2,-4,-2,-7,-4,0.3125,0.3125,0.3125,23.0625,23.0625,23.0625,2.281853,2.969965,4.455988,7.062922,6.154294,5.060028,-0.05037541,-0.5266402,1.502996,0.427037,-0.04188735,1.354441,0.1446882,0.2498509,1.587018,-0.1013379,-0.5324064,1.511125,0.38158,-0.03168466,1.308143,0.1500316,-0.1725011,1.585487,0.138789,-0.4718865,1.558927,-0.008871876,-0.01231395,1.584298,0.06447576,-0.4620372,1.535775,-0.04411259,-0.2621819,1.580225,0.4020793,-0.2470377,1.606747,NA,NA,NotTracked,Closed,
0.9526367,-0.2788086,-0.02929688,-0.5249023,0.7944336,0.253418,-2,1,-2,-1,0,-1,1,1,-4,-1,1,-2,-4,-2,0,-2,0.3125,0.3125,0.3125,5.9375,5.9375,5.9375,2.281853,2.969965,4.455988,7.083593,5.633857,5.069846,-0.05020117,-0.5269627,1.50344,0.4208252,-0.09068291,1.325393,0.1442572,0.2501511,1.587111,-0.09773714,-0.5242249,1.507184,0.3812881,-0.07649665,1.300037,0.1500472,-0.1724451,1.585432,0.1387287,-0.4718851,1.558974,-0.00920119,-0.0122899,1.584926,0.06440128,-0.4620527,1.535971,-0.04410272,-0.2622126,1.580511,0.3970508,-0.24703,1.605629,NA,NA,NotTracked,Unknown,
0.9526367,-0.2788086,-0.02929688,-0.4262695,0.8535156,0.2080078,-2,1,-2,-1,0,-1,1,1,-9,-9,-5,-4,-2,-5,5,-1,0.3125,0.3125,0.3125,-2.6875,-2.6875,-2.6875,2.281853,2.969965,4.455988,7.08381,5.265524,5.074437,-0.05166598,-0.5268962,1.505327,0.4199506,-0.149581,1.316472,0.1440145,0.2504318,1.587224,-0.09875749,-0.5225246,1.506509,0.3901433,-0.1312068,1.333333,0.1500931,-0.1723421,1.585431,0.1386621,-0.471812,1.559154,-0.009304741,-0.01210222,1.585591,0.06438415,-0.4620143,1.536679,-0.04397136,-0.262198,1.581117,0.3846754,-0.2367069,1.603672,NA,NA,NotTracked,Unknown,
0.9526367,-0.2788086,-0.02929688,-0.3564453,0.8808594,0.168457,-2,1,-2,-1,0,-1,1,1,-4,-8,1,-1,2,-2,-11,2,0.3125,0.3125,0.3125,-6.1875,-6.1875,-6.1875,2.281853,2.969965,4.455988,7.081533,5.079287,5.080598,-0.05217922,-0.5253533,1.505213,0.419138,-0.2148411,1.326423,0.1437921,0.2507362,1.587419,-0.1003365,-0.5168858,1.510484,0.408213,-0.1762201,1.299889,0.1502704,-0.172164,1.585341,0.1386438,-0.4717572,1.559196,-0.009280545,-0.01207025,1.585777,0.06440961,-0.4619588,1.536895,-0.04399401,-0.262228,1.581417,0.3641971,-0.2228674,1.629192,NA,NA,NotTracked,Unknown,
0.9526367,-0.2788086,-0.02929688,-0.159668,0.9345703,0.1557617,-2,1,-2,-1,0,-1,1,1,0,-2,1,-1,0,3,7,4,0.3125,0.3125,0.3125,4.875,4.875,4.875,2.281853,2.969965,4.455988,7.082547,4.706916,5.103489,-0.05212088,-0.525052,1.506427,0.409292,-0.3310061,1.353924,0.1436868,0.2512918,1.587896,-0.0991982,-0.5099433,1.508372,0.4059086,-0.2927644,1.301941,0.1504923,-0.1718172,1.585243,0.1385989,-0.4716934,1.559252,-0.009257037,-0.01198875,1.58645,0.06442024,-0.4619526,1.537035,-0.04389894,-0.2623032,1.58204,0.3670077,-0.2198617,1.612728,NA,NA,NotTracked,Unknown,
0.9526367,-0.2788086,-0.02929688,0.3286133,0.9633789,0.1279297,-2,1,-2,-1,0,-1,1,1,5,10,2,0,0,-2,2,2,0.3125,0.3125,0.3125,77,77,77,2.281853,2.969965,4.455988,7.159319,4.225317,5.131921,-0.05293579,-0.5230634,1.50809,0.4057215,-0.3829291,1.373415,0.1438372,0.2516333,1.588466,-0.1028087,-0.504608,1.520741,0.4127587,-0.3408155,1.324923,0.1506889,-0.1717082,1.5853,0.1386376,-0.4716823,1.559284,-0.009188029,-0.01195162,1.586419,0.06448944,-0.4619399,1.53712,-0.04390563,-0.2622858,1.582064,0.3675064,-0.2209865,1.611654,NA,NA,NotTracked,Unknown,
0.9526367,-0.2788086,-0.02929688,0.6171875,0.9941406,0.1259766,-2,1,-2,-1,0,-1,1,1,0,-2,-4,-1,-2,0,8,5,0.3125,0.3125,0.3125,87.4375,87.4375,87.4375,2.281853,2.969965,4.455988,7.20828,4.083847,5.132076,-0.05327261,-0.5230668,1.50615,0.3997495,-0.4219201,1.389004,0.1440193,0.251744,1.588812,-0.1007231,-0.5144217,1.512206,0.4111245,-0.3839386,1.352745,0.1507627,-0.1716867,1.585294,0.1386494,-0.4716936,1.559285,-0.009101041,-0.01195911,1.586387,0.06451447,-0.4619534,1.537127,-0.04399458,-0.2621861,1.582178,0.3687514,-0.2241833,1.609085,NA,NA,NotTracked,Unknown,
0.9526367,-0.2788086,-0.02929688,0.9135742,0.9873047,0.06884766,-2,1,-2,-1,0,-1,1,1,3,4,2,0,-2,-1,-1,-1,0.3125,0.3125,0.3125,94,94,94,2.281853,2.969965,4.455988,7.362801,3.734717,5.13523,-0.05372111,-0.5230001,1.505126,0.3961184,-0.449504,1.407094,0.1443212,0.2519561,1.589228,-0.1009488,-0.5115965,1.511552,0.4125713,-0.4285395,1.36408,0.1510927,-0.1715274,1.585422,0.1388824,-0.4717073,1.559379,-0.008956986,-0.01188816,1.58646,0.06488448,-0.4619369,1.537256,-0.04399277,-0.2622083,1.582199,0.3708335,-0.232169,1.604224,NA,NA,NotTracked,Unknown,
0.9526367,-0.2788086,-0.02929688,0.793457,0.8779297,0.04248047,-2,1,-2,-1,0,-1,1,1,-1,-2,-3,1,0,-4,-6,-6,0.3125,0.3125,0.3125,55.4375,55.4375,55.4375,2.281853,2.969965,4.455988,7.432511,3.540052,5.144878,-0.05398747,-0.5219408,1.499924,0.3886674,-0.4916607,1.436281,0.1455169,0.2520836,1.590307,-0.1022978,-0.5245798,1.503895,0.4136821,-0.4745266,1.395442,0.1516861,-0.1714426,1.585623,0.1391047,-0.4717993,1.559395,-0.008399635,-0.0118276,1.586001,0.06519435,-0.4619965,1.53724,-0.04405696,-0.2621349,1.581776,0.373595,-0.2438074,1.594369,NA,NA,NotTracked,NotTracked,
0.9526367,-0.2788086,-0.02929688,0.8828125,0.7436523,-0.01074219,-2,1,-2,-1,0,-1,1,1,-5,0,1,0,-2,1,1,0,0.3125,0.3125,0.3125,32.6875,32.6875,32.6875,2.281853,2.969965,4.455988,7.459727,3.452485,5.133921,-0.05499292,-0.5207544,1.497242,0.3847136,-0.5025046,1.451544,0.1463315,0.2520311,1.591022,-0.1041767,-0.5251095,1.4976,0.4195422,-0.4955031,1.431571,0.1521254,-0.1714788,1.585751,0.1396789,-0.4719974,1.559467,-0.00802727,-0.01158289,1.585878,0.06582905,-0.4621746,1.537171,-0.04404008,-0.2620773,1.581505,0.3750787,-0.2495967,1.589161,NA,NA,NotTracked,NotTracked,
0.9526367,-0.2788086,-0.02929688,1.011719,0.3569336,-0.02734375,-2,1,-2,-1,0,-1,1,1,0,0,-2,-2,-1,-2,-1,0,0.3125,0.3125,0.3125,64.0625,64.0625,64.0625,2.281853,2.969965,4.455988,7.569199,3.227213,5.091549,-0.05436509,-0.5210065,1.496044,0.384503,-0.5118862,1.464214,0.1469612,0.2520977,1.591478,-0.1015877,-0.5239944,1.494387,0.4217174,-0.5108134,1.44454,0.1525859,-0.1715221,1.585944,0.1401515,-0.472151,1.55948,-0.0079041,-0.01150839,1.585868,0.0663585,-0.4623308,1.537115,-0.04419544,-0.2618175,1.580879,0.3757952,-0.2531627,1.585736,NA,NA,NotTracked,NotTracked,
0.9526367,-0.2788086,-0.02929688,1.064941,0.3959961,-0.06494141,-2,1,-2,-1,0,-1,1,1,0,0,-2,-1,-1,3,3,0,0.3125,0.3125,0.3125,103.5625,103.5625,103.5625,2.281853,2.969965,4.455988,7.769191,3.156061,4.99144,-0.0544862,-0.5202893,1.494751,0.3824903,-0.5156269,1.47485,0.1479751,0.2519399,1.592124,-0.1035346,-0.5499645,1.490167,0.4245354,-0.5175809,1.462516,0.1529811,-0.1715782,1.586036,0.1406386,-0.4723477,1.55944,-0.007640892,-0.01152786,1.585782,0.06693625,-0.4625585,1.536902,-0.04437884,-0.2615147,1.580352,0.3760335,-0.2566538,1.583277,NA,NA,NotTracked,NotTracked,
0.9526367,-0.2788086,-0.02929688,0.953125,0.5024414,-0.1484375,-2,1,-2,-1,0,-1,1,1,-3,0,1,-2,-2,1,-2,-1,0.3125,0.3125,0.3125,49.875,49.875,49.875,2.281853,2.969965,4.455988,7.98217,3.117864,4.907438,-0.05443352,-0.5195147,1.493464,0.3827347,-0.5178878,1.480579,0.1487705,0.2519532,1.592602,-0.101442,-0.5391702,1.491086,0.426217,-0.5359713,1.46105,0.153628,-0.1715788,1.58633,0.1414181,-0.4725202,1.559542,-0.007563064,-0.01142757,1.585827,0.0678442,-0.4627523,1.536822,-0.04444389,-0.261566,1.579996,0.3760525,-0.2583461,1.581807,NA,NA,NotTracked,NotTracked,
0.9526367,-0.2788086,-0.02929688,0.9189453,0.5102539,-0.1816406,-2,1,-2,-1,0,-1,1,1,0,-1,-2,1,-1,1,-2,-2,0.3125,0.3125,0.3125,12.5,12.5,12.5,2.281853,2.969965,4.455988,8.002428,3.115888,4.893476,-0.0541286,-0.5192059,1.49257,0.3842045,-0.5224545,1.484372,0.1507284,0.2517169,1.593355,-0.1017276,-0.504939,1.49352,0.4279212,-0.5207047,1.468933,0.1542965,-0.1716625,1.586545,0.1422748,-0.4727989,1.559454,-0.007082818,-0.0114053,1.58548,0.06873181,-0.46296,1.536561,-0.04469945,-0.260349,1.578967,0.3760741,-0.2606128,1.579533,NA,NA,NotTracked,NotTracked,
0.9526367,-0.2788086,-0.02929688,0.921875,0.3588867,-0.125,-2,1,-2,-1,0,-1,1,1,-3,-2,-3,-2,-2,0,5,1,0.3125,0.3125,0.3125,-28.5,-28.5,-28.5,2.281853,2.969965,4.455988,8.012092,3.110075,4.842199,-0.05452542,-0.5191424,1.493999,0.3855531,-0.5228299,1.485557,0.1514847,0.2517815,1.593712,-0.1016305,-0.5173088,1.492553,0.4296331,-0.5268971,1.47208,0.1546149,-0.1716826,1.586615,0.1425692,-0.4729208,1.559417,-0.007001079,-0.01144984,1.585446,0.06901545,-0.4630789,1.536446,-0.04476891,-0.2603503,1.5788,0.3761568,-0.2615654,1.578896,NA,NA,NotTracked,NotTracked,
0.9526367,-0.2788086,-0.02929688,0.8955078,0.3291016,-0.08154297,-2,1,-2,-1,0,-1,1,1,-2,0,-1,0,-1,-1,0,0,0.3125,0.3125,0.3125,-14.75,-14.75,-14.75,2.281853,2.969965,4.455988,8.003521,3.111223,4.827072,-0.05453426,-0.5192106,1.494416,0.3862112,-0.5231725,1.484312,0.1518393,0.2517037,1.59384,-0.1039759,-0.5104981,1.49885,0.4297327,-0.5098207,1.477,0.1547959,-0.1717258,1.586678,0.1426218,-0.4729708,1.559418,-0.006627552,-0.01145144,1.585193,0.06905079,-0.4630924,1.536435,-0.04479214,-0.2601462,1.578605,0.3762162,-0.2621166,1.578321,NA,NA,NotTracked,NotTracked,
0.9526367,-0.2788086,-0.02929688,0.8911133,0.3256836,-0.08496094,-2,1,-2,-1,0,-1,1,1,1,-1,0,-3,-2,0,0,1,0.3125,0.3125,0.3125,-6.25,-6.25,-6.25,2.281853,2.969965,4.455988,8.00838,3.111996,4.817698,-0.05433037,-0.5194203,1.496246,0.3870992,-0.5230061,1.484218,0.1524721,0.2516483,1.593936,-0.1036315,-0.5479081,1.495091,0.4302688,-0.5312968,1.467206,0.1549813,-0.1717869,1.586712,0.1427187,-0.4730217,1.559426,-0.006541192,-0.01142042,1.585172,0.06913985,-0.4631214,1.536423,-0.04481326,-0.2600613,1.578586,0.3762871,-0.2625008,1.577893,NA,NA,NotTracked,NotTracked,
0.9526367,-0.2788086,-0.02929688,0.8964844,0.3535156,-0.09277344,-2,1,-2,-1,0,-1,1,1,0,0,0,-1,-2,-1,0,1,0.3125,0.3125,0.3125,0.4375,0.4375,0.4375,2.281853,2.969965,4.455988,8.028796,3.119244,4.795276,-0.05384751,-0.5206715,1.498261,0.3886042,-0.5227998,1.481478,0.1533014,0.2514102,1.593821,-0.1011103,-0.5190493,1.497039,0.4266314,-0.5088868,1.461831,0.1552099,-0.1719034,1.586764,0.1428349,-0.4731393,1.559396,-0.006246608,-0.01131949,1.585065,0.06924898,-0.4632192,1.536393,-0.04502013,-0.2593635,1.578609,0.3763535,-0.2630411,1.576503,NA,NA,NotTracked,NotTracked,
0.9526367,-0.2788086,-0.02929688,0.9116211,0.3564453,-0.1137695,-2,1,-2,-1,0,-1,1,1,-2,-1,-3,-1,-1,-1,0,-1,0.3125,0.3125,0.3125,-9.9375,-9.9375,-9.9375,2.281853,2.969965,4.455988,8.034193,3.124047,4.780158,-0.05460316,-0.5205283,1.499465,0.3887051,-0.5230905,1.47994,0.1535578,0.2512752,1.59378,-0.1009898,-0.5064143,1.503823,0.4299083,-0.5232945,1.461099,0.1553335,-0.171975,1.586771,0.1428842,-0.473193,1.559378,-0.006132267,-0.01133509,1.585047,0.06928073,-0.4632389,1.536383,-0.04504601,-0.2595911,1.578507,0.3763312,-0.2632214,1.575955,NA,NA,NotTracked,NotTracked,
0.9526367,-0.2788086,-0.02929688,0.9091797,0.3500977,-0.1025391,-2,1,-2,-1,0,-1,1,1,-2,1,-3,-1,-1,-1,-2,0,0.3125,0.3125,0.3125,-14.625,-14.625,-14.625,2.281853,2.969965,4.455988,8.029631,3.124959,4.776213,-0.05420581,-0.5205414,1.500539,0.3890877,-0.5233349,1.47918,0.1539006,0.2511503,1.593696,-0.1001469,-0.5031041,1.501468,0.4287352,-0.5156332,1.461815,0.1554515,-0.1720354,1.586832,0.1429617,-0.4732803,1.559407,-0.005988088,-0.01134588,1.585141,0.06934861,-0.4632939,1.53641,-0.04504598,-0.2595837,1.578558,0.3762889,-0.2633924,1.575509,NA,NA,NotTracked,NotTracked,
0.9526367,-0.2788086,-0.02929688,0.909668,0.3144531,-0.1005859,-2,1,-2,-1,0,-1,1,1,0,-2,-4,2,-2,1,1,0,0.3125,0.3125,0.3125,-11.5625,-11.5625,-11.5625,2.281853,2.969965,4.455988,8.010939,3.123199,4.770285,-0.05435101,-0.5196819,1.499458,0.3891142,-0.5245329,1.47634,0.1540381,0.2510688,1.593491,-0.1005685,-0.500558,1.499135,0.4237985,-0.5177309,1.451123,0.1555031,-0.1720389,1.586792,0.1429894,-0.4732976,1.55938,-0.005837189,-0.01139967,1.584981,0.0693708,-0.4633037,1.53639,-0.04505289,-0.2594859,1.57854,0.3760662,-0.263368,1.574204,NA,NA,NotTracked,NotTracked,
0.9526367,-0.2788086,-0.02929688,0.9101563,0.3154297,-0.1000977,-2,1,-2,-1,0,-1,1,1,-2,-2,-1,-1,0,-4,0,-3,0.3125,0.3125,0.3125,-1.5625,-1.5625,-1.5625,2.281853,2.969965,4.455988,8.004274,3.120666,4.772423,-0.05353606,-0.5212859,1.500739,0.3871031,-0.524449,1.475332,0.1541444,0.2510829,1.593106,-0.1009713,-0.5251785,1.504862,0.4284065,-0.5037044,1.46675,0.1559168,-0.1720869,1.586753,0.1436357,-0.4734088,1.55948,-0.005614407,-0.01130295,1.58505,0.07004625,-0.4634112,1.536497,-0.04500915,-0.2595738,1.578662,0.3757286,-0.2639323,1.572291,NA,NA,NotTracked,NotTracked,
0.9526367,-0.2788086,-0.02929688,0.90625,0.3232422,-0.1040039,-2,1,-2,-1,0,-1,1,1,0,-2,-2,-1,0,0,-2,0,0.3125,0.3125,0.3125,2.375,2.375,2.375,2.281853,2.969965,4.455988,8.0029,3.119338,4.77513,-0.05293763,-0.5218921,1.501279,0.3853068,-0.5247104,1.47472,0.1542945,0.2509441,1.592843,-0.09968804,-0.5063913,1.505153,0.4255163,-0.5226822,1.457054,0.1559917,-0.1721334,1.58674,0.1437196,-0.473443,1.559499,-0.005509932,-0.01128978,1.585079,0.07012194,-0.4634353,1.536538,-0.04494249,-0.2595224,1.578905,0.3755693,-0.2641224,1.571583,NA,NA,NotTracked,NotTracked,
0.9526367,-0.2788086,-0.02929688,0.8974609,0.340332,-0.1098633,-2,1,-2,-1,0,-1,1,1,-2,1,-1,0,0,-2,1,-4,0.3125,0.3125,0.3125,3.3125,3.3125,3.3125,2.281853,2.969965,4.455988,7.994515,3.116165,4.79146,-0.05404586,-0.5212446,1.501141,0.3831446,-0.523827,1.474609,0.1543211,0.2508166,1.592508,-0.1047197,-0.5025198,1.514267,0.4233376,-0.5162001,1.456701,0.1561301,-0.1722333,1.586721,0.1438053,-0.4735146,1.559517,-0.005557377,-0.01133554,1.585147,0.07021418,-0.4635014,1.536608,-0.04493583,-0.2595245,1.578934,0.3752571,-0.2642365,1.570791,NA,NA,NotTracked,NotTracked,
0.9526367,-0.2788086,-0.02929688,0.9091797,0.3344727,-0.1074219,-2,1,-2,-1,0,-1,1,1,-1,-1,-3,0,0,1,-2,1,0.3125,0.3125,0.3125,2.5625,2.5625,2.5625,2.281853,2.969965,4.455988,7.982057,3.111519,4.808537,-0.05247195,-0.5215076,1.501018,0.3822046,-0.5238874,1.474449,0.1542432,0.2508607,1.592157,-0.09782972,-0.5255007,1.500333,0.4258575,-0.5416123,1.460286,0.156162,-0.1722834,1.586692,0.143846,-0.4735577,1.559569,-0.005524812,-0.01135036,1.585162,0.07026992,-0.463568,1.536737,-0.0449259,-0.2594073,1.579154,0.3749811,-0.2644045,1.569958,NA,NA,NotTracked,NotTracked,
0.9526367,-0.2788086,-0.02929688,0.9091797,0.3344727,-0.1074219,-2,1,-2,-1,0,-1,1,1,-1,-1,-3,0,0,1,-2,1,0.3125,0.3125,0.3125,2.5625,2.5625,2.5625,2.281853,2.969965,4.455988,7.982057,3.111519,4.808537,-0.0533082,-0.5217299,1.501906,0.3807653,-0.5237993,1.474675,0.154266,0.2508719,1.591871,-0.1015278,-0.538642,1.506375,0.4241181,-0.5277665,1.459345,0.1563607,-0.1723366,1.586677,0.144139,-0.4736468,1.559679,-0.005472776,-0.01136181,1.585221,0.07059567,-0.4636598,1.536931,-0.04487527,-0.2594394,1.579243,0.3745822,-0.2643868,1.569461,NA,NA,NotTracked,NotTracked,
0.9526367,-0.2788086,-0.02929688,0.8862305,0.3349609,-0.1069336,-2,1,-2,-1,0,-1,1,1,-2,-1,2,2,-1,-3,-1,-1,0.3125,0.3125,0.3125,7.1875,7.1875,7.1875,2.281853,2.969965,4.455988,7.982308,3.10865,4.815537,-0.0521583,-0.5212336,1.502331,0.3789481,-0.5243778,1.47455,0.1543047,0.25082,1.591549,-0.1003791,-0.543373,1.506143,0.4239227,-0.5303227,1.460407,0.1563982,-0.1723824,1.58664,0.1441904,-0.473704,1.559706,-0.005318415,-0.0113596,1.585305,0.07065378,-0.4637485,1.536981,-0.04479718,-0.2594916,1.579543,0.3742485,-0.2642559,1.568895,NA,NA,NotTracked,NotTracked,
0.9526367,-0.2788086,-0.02929688,0.8911133,0.3334961,-0.1123047,-2,1,-2,-1,0,-1,1,1,0,0,-3,0,-1,-2,1,-2,0.3125,0.3125,0.3125,9.8125,9.8125,9.8125,2.281853,2.969965,4.455988,7.988012,3.108276,4.815071,-0.05286495,-0.5218738,1.503237,0.37798,-0.5237004,1.474797,0.1543259,0.2507353,1.59127,-0.09849012,-0.5066993,1.5051,0.4233299,-0.5301098,1.462399,0.1564938,-0.1724027,1.58663,0.1443329,-0.473749,1.55977,-0.005222014,-0.01132702,1.585322,0.070779,-0.4637903,1.537058,-0.04475735,-0.2596385,1.579819,0.3739522,-0.2641235,1.568437,NA,NA,NotTracked,NotTracked,
0.9526367,-0.2788086,-0.02929688,0.9038086,0.3491211,-0.1171875,-2,1,-2,-1,0,-1,1,1,-1,0,0,0,1,0,-1,1,0.3125,0.3125,0.3125,9.875,9.875,9.875,2.281853,2.969965,4.455988,8.002921,3.109029,4.812025,-0.05251955,-0.5223647,1.503794,0.3770015,-0.5233269,1.475081,0.1542715,0.2506959,1.590965,-0.1004792,-0.5197208,1.508694,0.41993,-0.5369937,1.462068,0.156578,-0.1724405,1.586629,0.1444693,-0.4737934,1.559797,-0.005126225,-0.01142104,1.585466,0.07090692,-0.4638256,1.537126,-0.04474564,-0.259652,1.580026,0.3737868,-0.2641144,1.568225,NA,NA,NotTracked,NotTracked,
0.9526367,-0.2788086,-0.02929688,0.9082031,0.3569336,-0.1201172,-2,1,-2,-1,0,-1,1,1,0,-2,-2,-1,-1,1,0,1,0.3125,0.3125,0.3125,7.125,7.125,7.125,2.281853,2.969965,4.455988,8.008027,3.109883,4.810777,-0.05300482,-0.5219705,1.503547,0.3759414,-0.523857,1.474722,0.15419,0.2506617,1.5907,-0.0990694,-0.5064799,1.5072,0.4142087,-0.5291269,1.449878,0.1566021,-0.1724702,1.586618,0.1445257,-0.4738324,1.559824,-0.005132466,-0.01139182,1.585665,0.07098945,-0.4638962,1.537171,-0.04470586,-0.2597303,1.580223,0.3734504,-0.2640025,1.567857,NA,NA,NotTracked,NotTracked,
0.9526367,-0.2788086,-0.02929688,0.9057617,0.3447266,-0.1201172,-2,1,-2,-1,0,-1,1,1,0,-3,-1,2,0,1,1,-1,0.3125,0.3125,0.3125,-0.25,-0.25,-0.25,2.281853,2.969965,4.455988,8.016331,3.108816,4.805827,-0.05254975,-0.5220717,1.50413,0.3764904,-0.5243747,1.475334,0.1542128,0.2506893,1.590411,-0.09831291,-0.5071186,1.504092,0.4187641,-0.5291686,1.459051,0.1565935,-0.1724957,1.586627,0.1445263,-0.4738812,1.559933,-0.005136655,-0.01121618,1.586172,0.07100764,-0.4639455,1.537346,-0.04460982,-0.2595638,1.580709,0.3732803,-0.2639854,1.5677,NA,NA,NotTracked,NotTracked,
0.9526367,-0.2788086,-0.02929688,0.9042969,0.3442383,-0.1000977,-2,1,-2,-1,0,-1,1,1,-2,0,-2,1,-2,1,0,-1,0.3125,0.3125,0.3125,-7,-7,-7,2.281853,2.969965,4.455988,8.011559,3.110083,4.801465,-0.05311032,-0.522314,1.504425,0.3757072,-0.5241082,1.476158,0.1542001,0.250301,1.589596,-0.1019821,-0.5015986,1.516417,0.4176806,-0.5249726,1.463371,0.156682,-0.1726994,1.586563,0.144752,-0.4741237,1.559996,-0.004990346,-0.01130293,1.586158,0.0711982,-0.4641826,1.537514,-0.04453747,-0.2595654,1.581014,0.3730783,-0.2640299,1.567463,NA,NA,NotTracked,NotTracked,
0.9526367,-0.2788086,-0.02929688,0.9052734,0.3417969,-0.09716797,-2,1,-2,-1,0,-1,1,1,0,1,-1,0,-2,0,0,-1,0.3125,0.3125,0.3125,-6.9375,-6.9375,-6.9375,2.281853,2.969965,4.455988,8.006022,3.11153,4.798677,-0.05295656,-0.5227361,1.504618,0.3758201,-0.523731,1.476635,0.1542248,0.2501897,1.589427,-0.09940585,-0.5099111,1.50749,0.4184417,-0.5249898,1.462613,0.1567287,-0.1727716,1.586556,0.1448104,-0.4741811,1.560082,-0.004970048,-0.01133108,1.58621,0.07125673,-0.4642381,1.53764,-0.0444864,-0.259485,1.581212,0.3730376,-0.263993,1.567429,NA,NA,NotTracked,NotTracked,
0.9526367,-0.2788086,-0.02929688,0.9052734,0.3413086,-0.09912109,-2,1,-2,-1,0,-1,1,1,-1,-1,-1,-1,0,-3,-1,0,0.3125,0.3125,0.3125,-5.625,-5.625,-5.625,2.281853,2.969965,4.455988,8.002953,3.112765,4.798609,-0.05371118,-0.5219658,1.503767,0.3752868,-0.5238291,1.475917,0.1541245,0.2500651,1.589151,-0.1010903,-0.5044924,1.509628,0.415668,-0.522131,1.456175,0.156853,-0.172897,1.586491,0.1450945,-0.4743204,1.560149,-0.004921314,-0.01136653,1.586268,0.07156583,-0.464415,1.537752,-0.0444221,-0.2596318,1.581325,0.3729223,-0.2638842,1.567312,NA,NA,NotTracked,NotTracked,
0.9526367,-0.2788086,-0.02929688,0.894043,0.3505859,-0.08496094,-2,1,-2,-1,0,-1,1,1,-1,-3,0,-2,1,-2,-2,-2,0.3125,0.3125,0.3125,2.9375,2.9375,2.9375,2.281853,2.969965,4.455988,7.996935,3.115097,4.803544,-0.05281586,-0.522994,1.503763,0.374721,-0.5246578,1.475823,0.1540813,0.2500028,1.588934,-0.1009365,-0.5291587,1.509111,0.4177535,-0.5306765,1.458191,0.1568946,-0.1729443,1.58647,0.1451009,-0.4743325,1.560162,-0.004873819,-0.01140491,1.58639,0.0715719,-0.4644313,1.537783,-0.04436807,-0.259601,1.58148,0.3728773,-0.263895,1.567317,NA,NA,NotTracked,NotTracked,
0.9526367,-0.2788086,-0.02929688,0.894043,0.3505859,-0.08496094,-2,1,-2,-1,0,-1,1,1,-1,-3,0,-2,1,-2,-2,-2,0.3125,0.3125,0.3125,2.9375,2.9375,2.9375,2.281853,2.969965,4.455988,7.996935,3.115097,4.803544,-0.05331355,-0.5221606,1.503322,0.3745935,-0.5234752,1.476306,0.1538958,0.2499846,1.588506,-0.1002479,-0.5049738,1.507805,0.4179495,-0.5271733,1.462421,0.1568945,-0.1729582,1.586466,0.1451003,-0.4743478,1.560199,-0.004872005,-0.01140571,1.586391,0.07157216,-0.4644421,1.537842,-0.04433965,-0.259583,1.581536,0.3727988,-0.2638185,1.567326,NA,NA,NotTracked,NotTracked,
0.9526367,-0.2788086,-0.02929688,0.8945313,0.3564453,-0.09423828,-2,1,-2,-1,0,-1,1,1,-2,0,0,-1,1,0,-1,-1,0.3125,0.3125,0.3125,5.3125,5.3125,5.3125,2.281853,2.969965,4.455988,7.999638,3.117012,4.805814,-0.05313015,-0.5226261,1.503138,0.3737007,-0.5243462,1.475204,0.1537632,0.249783,1.588051,-0.09995213,-0.5026273,1.508839,0.4129455,-0.5197209,1.455519,0.1569805,-0.1730546,1.586454,0.1451807,-0.4744098,1.56026,-0.004942319,-0.01142402,1.586606,0.0716783,-0.4645053,1.538006,-0.04430773,-0.2596016,1.581589,0.3726616,-0.2637002,1.567211,NA,NA,NotTracked,NotTracked,
0.9526367,-0.2788086,-0.02929688,0.8994141,0.3574219,-0.08984375,-2,1,-2,-1,0,-1,1,1,-1,-1,1,-1,-1,-1,-1,-1,0.3125,0.3125,0.3125,6.5625,6.5625,6.5625,2.281853,2.969965,4.455988,8.002561,3.11726,4.806456,-0.05318769,-0.5221777,1.502512,0.3726589,-0.5237784,1.475034,0.1536497,0.2496458,1.587758,-0.09943464,-0.5230744,1.503133,0.415919,-0.5264344,1.457386,0.1569939,-0.1731488,1.586439,0.1452015,-0.474517,1.56026,-0.004804022,-0.01158618,1.586609,0.07168356,-0.4645841,1.538018,-0.0442573,-0.2600935,1.581634,0.3725868,-0.2636481,1.567181,NA,NA,NotTracked,NotTracked,
0.9526367,-0.2788086,-0.02929688,0.8994141,0.3486328,-0.09716797,-2,1,-2,-1,0,-1,1,1,-2,-2,-1,-2,-1,0,-1,-2,0.3125,0.3125,0.3125,15.0625,15.0625,15.0625,2.281853,2.969965,4.455988,8.016276,3.118771,4.812586,-0.05265815,-0.5220299,1.501933,0.372664,-0.5230159,1.474447,0.1536252,0.2495676,1.587465,-0.1015577,-0.5269133,1.5105,0.4160651,-0.5412838,1.461111,0.1570473,-0.1732096,1.586416,0.1452338,-0.474528,1.560248,-0.004797647,-0.01158769,1.586591,0.07170235,-0.4645913,1.538004,-0.04417688,-0.2600101,1.581654,0.372407,-0.2635432,1.566984,NA,NA,NotTracked,NotTracked,
0.9526367,-0.2788086,-0.02929688,0.9047852,0.3461914,-0.1069336,-2,1,-2,-1,0,-1,1,1,0,-1,0,-1,0,1,-4,0,0.3125,0.3125,0.3125,16.3125,16.3125,16.3125,2.281853,2.969965,4.455988,8.025053,3.119936,4.822706,-0.05259333,-0.5228111,1.502781,0.3712598,-0.5246759,1.474322,0.1535765,0.249457,1.587312,-0.09830125,-0.5062262,1.505238,0.4102548,-0.5265332,1.450071,0.157057,-0.1733658,1.586413,0.1452733,-0.4747098,1.560278,-0.004765194,-0.0117724,1.586656,0.07172364,-0.464784,1.538056,-0.04417324,-0.2600125,1.581692,0.3722099,-0.2634906,1.566889,NA,NA,NotTracked,NotTracked,
0.9526367,-0.2788086,-0.02929688,0.9008789,0.3457031,-0.109375,-2,1,-2,-1,0,-1,1,1,1,1,-2,0,-3,-5,-1,-1,0.3125,0.3125,0.3125,14.6875,14.6875,14.6875,2.281853,2.969965,4.455988,8.026642,3.120946,4.829531,-0.05318428,-0.5232435,1.502733,0.3689402,-0.5246953,1.472455,0.1534029,0.2492496,1.586895,-0.1010446,-0.5219203,1.50913,0.4124515,-0.5285504,1.459545,0.157089,-0.1735944,1.586358,0.145368,-0.4748577,1.56023,-0.004743906,-0.01182765,1.586624,0.07180577,-0.4649188,1.538009,-0.04411864,-0.2604066,1.581618,0.3717339,-0.2634563,1.566551,NA,NA,NotTracked,NotTracked,
0.9526367,-0.2788086,-0.02929688,0.902832,0.34375,-0.1118164,-2,1,-2,-1,0,-1,1,1,2,0,0,-1,1,0,-2,-2,0.3125,0.3125,0.3125,12.25,12.25,12.25,2.281853,2.969965,4.455988,8.033172,3.124825,4.844995,-0.05326566,-0.5226029,1.502089,0.3694431,-0.525019,1.470069,0.1533283,0.2491322,1.586817,-0.1002875,-0.5125723,1.50563,0.4100868,-0.5268676,1.4532,0.1571058,-0.1737357,1.586318,0.1454057,-0.4749724,1.560181,-0.004705823,-0.012005,1.586498,0.07182529,-0.4650504,1.537949,-0.04404788,-0.2605334,1.58153,0.3714378,-0.2633483,1.566285,NA,NA,NotTracked,NotTracked,
0.9526367,-0.2788086,-0.02929688,0.8935547,0.3481445,-0.1142578,-2,1,-2,-1,0,-1,1,1,-1,-1,0,0,-2,-1,1,0,0.3125,0.3125,0.3125,10.75,10.75,10.75,2.281853,2.969965,4.455988,8.039281,3.127661,4.85169,-0.05355205,-0.522835,1.502446,0.3680703,-0.5251066,1.469743,0.1531375,0.248971,1.586724,-0.1008584,-0.5206183,1.508219,0.4093084,-0.5319063,1.451239,0.1571613,-0.1738504,1.586337,0.1454643,-0.4750523,1.560192,-0.004790891,-0.0121007,1.586557,0.07189927,-0.4651672,1.537978,-0.04408716,-0.2606946,1.581504,0.3712651,-0.2632203,1.566166,NA,NA,NotTracked,NotTracked,
0.9526367,-0.2788086,-0.02929688,0.8916016,0.3491211,-0.1123047,-2,1,-2,-1,0,-1,1,1,-1,-2,0,1,0,0,-2,0,0.3125,0.3125,0.3125,9.125,9.125,9.125,2.281853,2.969965,4.455988,8.041957,3.128546,4.85433,-0.05375245,-0.5227954,1.500861,0.3676768,-0.5244856,1.46858,0.1529199,0.2489054,1.586514,-0.1054927,-0.494044,1.5136,0.4075167,-0.5294471,1.447585,0.1571649,-0.1739036,1.586249,0.1455168,-0.4750637,1.560138,-0.004781543,-0.01211451,1.586537,0.07193471,-0.465177,1.537917,-0.04408376,-0.2607249,1.581457,0.3710364,-0.2629516,1.565814,NA,NA,NotTracked,NotTracked,
0.9526367,-0.2788086,-0.02929688,0.8950195,0.3496094,-0.09912109,-2,1,-2,-1,0,-1,1,1,0,-2,-3,-2,1,0,0,0,0.3125,0.3125,0.3125,3.375,3.375,3.375,2.281853,2.969965,4.455988,8.040895,3.129097,4.863992,-0.05446136,-0.5222702,1.500379,0.3674313,-0.5250196,1.46937,0.1526346,0.2487501,1.586343,-0.1005295,-0.5232659,1.497772,0.4086829,-0.5287717,1.446019,0.1572101,-0.1740561,1.586247,0.1455474,-0.4751759,1.560095,-0.004634281,-0.01229515,1.586513,0.07194051,-0.4653164,1.537839,-0.04409752,-0.2607428,1.581373,0.3707279,-0.2627418,1.565521,NA,NA,NotTracked,NotTracked,
0.9526367,-0.2788086,-0.02929688,0.894043,0.3540039,-0.1054688,-2,1,-2,-1,0,-1,1,1,-1,2,2,0,-2,-3,2,0,0.3125,0.3125,0.3125,-1.3125,-1.3125,-1.3125,2.281853,2.969965,4.455988,8.035373,3.128772,4.869237,-0.05481788,-0.5224684,1.498217,0.3661124,-0.5248247,1.4674,0.15231,0.2487049,1.586035,-0.1029567,-0.5174712,1.504847,0.4051929,-0.5264974,1.443146,0.1571978,-0.1740793,1.586215,0.1455389,-0.4751983,1.559937,-0.00462197,-0.01230106,1.586516,0.07191754,-0.465344,1.537758,-0.04416395,-0.2607171,1.581154,0.3704813,-0.2623899,1.565098,NA,NA,NotTracked,NotTracked,
0.9526367,-0.2788086,-0.02929688,0.8920898,0.3623047,-0.09814453,-2,1,-2,-1,0,-1,1,1,-2,-3,-1,-4,-1,0,-2,-1,0.3125,0.3125,0.3125,-9.8125,-9.8125,-9.8125,2.281853,2.969965,4.455988,8.014786,3.127913,4.877091,-0.05552423,-0.5221487,1.497914,0.3666632,-0.5249411,1.468225,0.1519063,0.2485404,1.585793,-0.1082411,-0.5460094,1.518333,0.4070024,-0.5297028,1.446688,0.1571926,-0.1741493,1.58615,0.1454306,-0.4752405,1.559787,-0.004580834,-0.01236117,1.586562,0.07183176,-0.4653525,1.537673,-0.04416108,-0.2607327,1.581128,0.3702615,-0.2622919,1.564796,NA,NA,NotTracked,NotTracked,
