ALX,ALY,ALZ,ARX,ARY,ARZ,EMG0L,EMG1L,EMG2L,EMG3L,EMG4L,EMG5L,EMG6L,EMG7L,EMG0R,EMG1R,EMG2R,EMG3R,EMG4R,EMG5R,EMG6R,EMG7R,GLX,GLY,GLZ,GRX,GRY,GRZ,ORL,OPL,OYL,ORR,OPR,OYR,LHNX,LHNY,LHNZ,RHNX,RHNY,RHNZ,HX,HY,HZ,LTX,LTY,LTZ,RTX,RTY,RTZ,SpineMidX,SpineMidY,SpineMidZ,SpineBaseX,SpineBaseY,SpineBaseZ,ShoulderLeftX,ShoulderLeftY,ShoulderLeftZ,ShoulderRightX,ShoulderRightY,ShoulderRightZ,ElbowLeftX,ElbowLeftY,ElbowLeftZ,ElbowRightX,ElbowRightY,ElbowRightZ,Myo_Pose_left,Myo_Pose_Right,Kinect_pose_left,Kinect_pose_right
0.9526367,-0.2788086,-0.02929688,-0.5805664,0.3569336,0.06494141,-2,1,-2,-1,0,-1,1,1,18,0,2,3,-7,-5,1,8,0.3125,0.3125,0.3125,-30.4375,-30.4375,-30.4375,2.281853,2.969965,4.455988,7.945284,6.913093,5.340402,-0.05066723,-0.5236964,1.492209,0.251931,0.1495689,1.42743,0.1473901,0.2438192,1.574944,-0.09777233,-0.5221989,1.497848,0.2559891,0.2065532,1.354071,0.1488078,-0.1763035,1.580173,0.1358425,-0.4764679,1.558416,-0.004363121,-0.01282169,1.583908,0.06197359,-0.4659293,1.538238,-0.04714235,-0.2554886,1.57936,0.3918,-0.1936927,1.405627,NA,NA,NotTracked,NotTracked,
0.9526367,-0.2788086,-0.02929688,-0.7226563,0.3901367,-0.005371094,-2,1,-2,-1,0,-1,1,1,-7,-14,-10,-10,-6,-10,-17,-12,0.3125,0.3125,0.3125,-20.4375,-20.4375,-20.4375,2.281853,2.969965,4.455988,8.05467,6.946518,5.471002,-0.04999029,-0.5241519,1.490757,0.2446534,0.1419947,1.432082,0.14777,0.243461,1.57473,-0.09739585,-0.5472096,1.499167,0.2477263,0.2023916,1.367316,0.1488681,-0.1766506,1.579807,0.1356986,-0.4768482,1.558198,-0.004442844,-0.01280399,1.583702,0.06187661,-0.4662006,1.538217,-0.04710055,-0.2546221,1.579206,0.3822559,-0.1152575,1.322316,NA,NA,NotTracked,NotTracked,
0.9526367,-0.2788086,-0.02929688,-0.3564453,0.4082031,-0.378418,-2,1,-2,-1,0,-1,1,1,1,-2,-4,0,1,3,8,2,0.3125,0.3125,0.3125,-38.5,-38.5,-38.5,2.281853,2.969965,4.455988,8.296065,6.993134,5.789814,-0.04987812,-0.5234725,1.490751,0.2342943,0.171676,1.434085,0.1478958,0.2432432,1.574633,-0.09979928,-0.5352604,1.505693,0.2386691,0.2284258,1.361045,0.148801,-0.1770019,1.579347,0.1352674,-0.4775554,1.557707,-0.004570109,-0.01280528,1.583505,0.06153147,-0.4667859,1.53801,-0.04712213,-0.2546683,1.579114,0.3831343,-0.113242,1.320241,NA,NA,NotTracked,NotTracked,
0.9526367,-0.2788086,-0.02929688,-0.7705078,0.3632813,-0.1704102,-2,1,-2,-1,0,-1,1,1,-43,-5,-3,-2,0,-4,-10,-16,0.3125,0.3125,0.3125,-39.0625,-39.0625,-39.0625,2.281853,2.969965,4.455988,8.356135,6.984303,5.9145,-0.04976211,-0.5234929,1.491831,0.2294873,0.1706548,1.435114,0.1478461,0.243164,1.574575,-0.09778493,-0.5120959,1.498667,0.2333868,0.226932,1.365238,0.1487011,-0.1775313,1.578904,0.1348458,-0.4785351,1.557247,-0.004892449,-0.01281356,1.583446,0.06119374,-0.4676687,1.5378,-0.0470316,-0.2546722,1.579072,0.3805151,-0.1078749,1.314824,NA,NA,NotTracked,NotTracked,
0.9526367,-0.2788086,-0.02929688,-0.9262695,0.3588867,-0.2250977,-2,1,-2,-1,0,-1,1,1,19,7,-1,-16,-7,0,8,32,0.3125,0.3125,0.3125,-22.75,-22.75,-22.75,2.281853,2.969965,4.455988,8.30469,6.970757,5.893079,-0.05013156,-0.5248134,1.493777,0.2246174,0.168887,1.435174,0.1476325,0.242865,1.574495,-0.09657019,-0.5312686,1.498723,0.2284382,0.2224296,1.366579,0.1483386,-0.1783255,1.578253,0.1337943,-0.479982,1.556599,-0.005592112,-0.01285096,1.583573,0.06034704,-0.4691401,1.537738,-0.04691992,-0.2547728,1.579308,0.3782163,-0.107909,1.312282,NA,NA,Unknown,NotTracked,
0.9526367,-0.2788086,-0.02929688,-0.9262695,0.3588867,-0.2250977,-2,1,-2,-1,0,-1,1,1,-24,-5,2,5,3,2,-2,-9,0.3125,0.3125,0.3125,-22.75,-22.75,-22.75,2.281853,2.969965,4.455988,8.30469,6.970757,5.893079,-0.05020052,-0.5246878,1.49366,0.2237774,0.1682321,1.43308,0.1474568,0.242727,1.574487,-0.09749402,-0.5277447,1.500927,0.2292586,0.2195958,1.368238,0.1482203,-0.178623,1.577898,0.1335409,-0.4804461,1.556215,-0.005957118,-0.01293396,1.583764,0.06017935,-0.4695615,1.537573,-0.0468802,-0.2547109,1.579475,0.377073,-0.1089188,1.311454,NA,NA,Unknown,NotTracked,
0.9526367,-0.2788086,-0.02929688,-1.020508,0.3066406,-0.1318359,-2,1,-2,-1,0,-1,1,1,-7,2,1,4,-2,-1,-3,-12,0.3125,0.3125,0.3125,-4.6875,-4.6875,-4.6875,2.281853,2.969965,4.455988,8.197485,6.958345,5.795876,-0.05089681,-0.5244337,1.494869,0.2228594,0.1696748,1.433056,0.1473373,0.2425949,1.574388,-0.0975231,-0.526094,1.49889,0.229843,0.2157415,1.365453,0.1481263,-0.1788187,1.577594,0.1332648,-0.4809038,1.555886,-0.006301491,-0.01294399,1.583931,0.05997519,-0.4700638,1.537473,-0.0468711,-0.2551537,1.579736,0.3769422,-0.1092072,1.311045,NA,NA,Unknown,NotTracked,
0.9526367,-0.2788086,-0.02929688,-0.9790039,0.2641602,-0.09570313,-2,1,-2,-1,0,-1,1,1,21,2,-5,-5,-6,-8,5,20,0.3125,0.3125,0.3125,1.0625,1.0625,1.0625,2.281853,2.969965,4.455988,8.166298,6.961711,5.766962,-0.0506025,-0.5252222,1.495307,0.2221323,0.1704119,1.433656,0.147116,0.2424032,1.574351,-0.09656046,-0.5285384,1.495884,0.229133,0.2159106,1.365551,0.148007,-0.1790462,1.577333,0.1330114,-0.4812197,1.555608,-0.005212833,-0.01319233,1.58583,0.05979763,-0.4703587,1.537342,-0.04679835,-0.2553076,1.579997,0.374434,-0.1072929,1.308908,NA,NA,Unknown,NotTracked,
0.9526367,-0.2788086,-0.02929688,-0.9819336,0.2636719,-0.1323242,-2,1,-2,-1,0,-1,1,1,-7,0,-6,-8,-1,2,11,7,0.3125,0.3125,0.3125,6.6875,6.6875,6.6875,2.281853,2.969965,4.455988,8.187104,6.967603,5.783628,-0.05168403,-0.5251763,1.496577,0.2221841,0.170138,1.434486,0.1467944,0.242062,1.574196,-0.0994857,-0.5328132,1.499045,0.2294758,0.2184207,1.365905,0.1477404,-0.1794842,1.576821,0.1324772,-0.4818259,1.555046,-0.005846286,-0.01340415,1.585722,0.05931761,-0.4710425,1.537014,-0.04670785,-0.2553874,1.580487,0.3739739,-0.107371,1.308327,NA,NA,Unknown,NotTracked,
0.9526367,-0.2788086,-0.02929688,-0.9399414,0.2861328,-0.1333008,-2,1,-2,-1,0,-1,1,1,-5,2,1,-6,-4,-5,-17,-19,0.3125,0.3125,0.3125,2.5,2.5,2.5,2.281853,2.969965,4.455988,8.204686,6.967565,5.795588,-0.05248341,-0.5249232,1.497916,0.2233838,0.1704112,1.434608,0.1466651,0.2418039,1.574247,-0.09755757,-0.5243425,1.497452,0.2288525,0.219989,1.368841,0.1476054,-0.1796218,1.576662,0.1322183,-0.4820563,1.554878,-0.006057748,-0.01346205,1.585655,0.05909683,-0.4712332,1.536935,-0.04668824,-0.2554376,1.580552,0.3742076,-0.1075601,1.308254,NA,NA,Unknown,NotTracked,
0.9526367,-0.2788086,-0.02929688,-0.9511719,0.2905273,-0.1430664,-2,1,-2,-1,0,-1,1,1,11,-4,-4,4,21,4,-1,27,0.3125,0.3125,0.3125,-0.9375,-0.9375,-0.9375,2.281853,2.969965,4.455988,8.206265,6.967203,5.797721,-0.05244264,-0.5256218,1.497365,0.1838926,0.1705702,1.479308,0.1466599,0.2417379,1.574234,-0.09810185,-0.5233939,1.499048,0.2259118,0.1546998,1.390615,0.1475153,-0.1797204,1.576462,0.1319976,-0.4821962,1.554691,-0.006113415,-0.01351386,1.585561,0.05890514,-0.4713377,1.536867,-0.04667179,-0.2558432,1.580691,0.3745369,-0.1075524,1.308185,NA,NA,Unknown,NotTracked,
0.9526367,-0.2788086,-0.02929688,-0.9433594,0.2841797,-0.1484375,-2,1,-2,-1,0,-1,1,1,-3,-10,-8,-5,-9,-1,-1,-3,0.3125,0.3125,0.3125,10.9375,10.9375,10.9375,2.281853,2.969965,4.455988,8.210085,6.978079,5.788668,-0.05345177,-0.5252396,1.495102,0.2258658,0.1678983,1.433903,0.1465776,0.2416241,1.574191,-0.09909154,-0.5294423,1.494308,0.2299764,0.2179979,1.370481,0.1474682,-0.1799042,1.576205,0.1317907,-0.4823534,1.554364,-0.006429438,-0.01358912,1.585413,0.05870023,-0.4715086,1.53658,-0.04670956,-0.256006,1.580702,0.3746212,-0.1067384,1.307724,NA,NA,NotTracked,NotTracked,
0.9526367,-0.2788086,-0.02929688,-0.9545898,0.3237305,-0.2182617,-2,1,-2,-1,0,-1,1,1,8,5,1,12,2,-1,0,3,0.3125,0.3125,0.3125,20.875,20.875,20.875,2.281853,2.969965,4.455988,8.197627,6.985112,5.746011,-0.05313997,-0.525364,1.493563,0.189592,0.1891374,1.469947,0.1466202,0.241617,1.574165,-0.09788313,-0.5180513,1.492125,0.2169518,0.2257302,1.424462,0.147468,-0.1799076,1.576032,0.1317053,-0.4823253,1.55413,-0.006574903,-0.01352584,1.585311,0.05860138,-0.4714782,1.536361,-0.04671244,-0.2559439,1.580716,0.3748898,-0.1062171,1.30758,NA,NA,NotTracked,NotTracked,
0.9526367,-0.2788086,-0.02929688,-0.9506836,0.3505859,-0.2597656,-2,1,-2,-1,0,-1,1,1,-6,-4,-4,-4,-1,-1,-5,-1,0.3125,0.3125,0.3125,33.75,33.75,33.75,2.281853,2.969965,4.455988,8.198484,6.989553,5.725953,-0.05335398,-0.5246867,1.492962,0.1908535,0.1869358,1.473742,0.1466935,0.2415557,1.574195,-0.09867927,-0.5201951,1.494578,0.222998,0.220318,1.427489,0.1474894,-0.1798846,1.575977,0.1317215,-0.4821672,1.553996,-0.006587911,-0.01352412,1.585181,0.05860426,-0.4713036,1.536269,-0.04678126,-0.2558722,1.580562,0.3758415,-0.1060443,1.308034,NA,NA,Unknown,NotTracked,
0.9526367,-0.2788086,-0.02929688,-0.9248047,0.4291992,-0.3105469,-2,1,-2,-1,0,-1,1,1,-6,-3,4,2,6,3,0,-20,0.3125,0.3125,0.3125,81.6875,81.6875,81.6875,2.281853,2.969965,4.455988,8.21638,7.024678,5.626505,-0.05337109,-0.5240873,1.492177,0.1897981,0.1902137,1.477342,0.146924,0.241543,1.574506,-0.1003762,-0.5235183,1.50369,0.1601716,0.2537856,1.4555,0.1474815,-0.1797791,1.575908,0.1317874,-0.4816635,1.55377,-0.006668291,-0.01375614,1.584885,0.05858897,-0.4706501,1.535954,-0.04694857,-0.255358,1.580303,0.3797872,-0.1075158,1.311159,NA,NA,Unknown,NotTracked,
0.9526367,-0.2788086,-0.02929688,-0.9633789,0.3916016,-0.2226563,-2,1,-2,-1,0,-1,1,1,9,0,-4,-9,-1,-3,-4,-15,0.3125,0.3125,0.3125,117.4375,117.4375,117.4375,2.281853,2.969965,4.455988,8.190077,7.096301,5.473308,-0.05304347,-0.5267455,1.489704,0.2737555,0.1845833,1.437252,0.1465854,0.2418156,1.575781,-0.1006744,-0.5367801,1.499467,0.2861464,0.2430221,1.339,0.14723,-0.1789769,1.575633,0.1321978,-0.4784228,1.55256,-0.006761527,-0.01397859,1.583853,0.05858753,-0.4676334,1.534342,-0.04722626,-0.2529141,1.579554,0.3977621,-0.1051667,1.328442,NA,NA,NotTracked,NotTracked,
0.9526367,-0.2788086,-0.02929688,-0.9648438,0.3520508,-0.1757813,-2,1,-2,-1,0,-1,1,1,6,-10,-5,-7,7,1,-11,23,0.3125,0.3125,0.3125,131,131,131,2.281853,2.969965,4.455988,8.154082,7.144315,5.361005,-0.05344145,-0.5265453,1.489682,0.2951253,0.1949179,1.438427,0.145432,0.2424869,1.57709,-0.09839179,-0.52139,1.489776,0.2200209,0.1860599,1.49175,0.146979,-0.1784051,1.575493,0.132179,-0.4767878,1.551903,-0.005952493,-0.01372704,1.585692,0.0585638,-0.4663178,1.533502,-0.04726031,-0.2530254,1.579412,0.4153468,-0.0983941,1.340704,NA,NA,NotTracked,NotTracked,
0.9526367,-0.2788086,-0.02929688,-0.9331055,0.1801758,0.0004882813,-2,1,-2,-1,0,-1,1,1,16,4,5,2,-8,1,-2,6,0.3125,0.3125,0.3125,161.375,161.375,161.375,2.281853,2.969965,4.455988,7.834288,7.287142,4.776458,-0.05398915,-0.5253202,1.490178,0.3185872,0.201381,1.440875,0.1440899,0.2430883,1.578358,-0.09862038,-0.5258369,1.491579,0.3016868,0.1872469,1.475833,0.1469063,-0.1781081,1.57596,0.1324442,-0.4764036,1.551588,-0.007588463,-0.01350527,1.585867,0.05871973,-0.4659367,1.532945,-0.04728608,-0.2551654,1.578946,0.4300054,-0.09599616,1.353817,NA,NA,NotTracked,NotTracked,
0.9526367,-0.2788086,-0.02929688,-0.9472656,0.1152344,0.1098633,-2,1,-2,-1,0,-1,1,1,12,-3,-5,6,-6,-9,-5,-2,0.3125,0.3125,0.3125,156.3125,156.3125,156.3125,2.281853,2.969965,4.455988,7.281621,7.344563,4.040643,-0.05481611,-0.5261713,1.492134,0.3419121,0.2044642,1.443886,0.1426487,0.2435867,1.580106,-0.1002111,-0.5351233,1.495658,0.3233414,0.1879414,1.4715,0.1466372,-0.1778807,1.576479,0.1324697,-0.476327,1.551529,-0.007009408,-0.01336904,1.587011,0.05875833,-0.4658094,1.532695,-0.04737592,-0.2562851,1.578679,0.4440801,-0.08988438,1.36546,NA,NA,NotTracked,NotTracked,
0.9526367,-0.2788086,-0.02929688,-0.9375,0.07861328,0.140625,-2,1,-2,-1,0,-1,1,1,41,13,6,7,0,1,9,17,0.3125,0.3125,0.3125,150.3125,150.3125,150.3125,2.281853,2.969965,4.455988,6.917257,7.352971,3.590592,-0.0550243,-0.526885,1.496069,0.3849044,0.2087962,1.451192,0.1410465,0.2445794,1.581177,-0.1018562,-0.5364059,1.497151,0.3549443,0.1854186,1.4732,0.1462767,-0.1773539,1.576952,0.1325806,-0.476148,1.551467,-0.006385325,-0.0131842,1.588503,0.05895713,-0.4656762,1.532208,-0.04755443,-0.2572921,1.578511,0.4630124,-0.09214516,1.391405,NA,NA,NotTracked,NotTracked,
0.9526367,-0.2788086,-0.02929688,-1.025879,0.02490234,0.2055664,-2,1,-2,-1,0,-1,1,1,18,11,0,-1,5,1,-33,29,0.3125,0.3125,0.3125,136.25,136.25,136.25,2.281853,2.969965,4.455988,6.320678,7.317826,2.759508,-0.05460179,-0.5249268,1.497546,0.3998031,0.2101206,1.452429,0.1402938,0.2451543,1.581446,-0.1003763,-0.5324728,1.497083,0.3256947,0.1876119,1.423917,0.1458533,-0.1772857,1.577294,0.1325057,-0.476204,1.551464,-0.006210891,-0.01310974,1.588866,0.05887531,-0.4658002,1.532086,-0.04773057,-0.2575862,1.578561,0.4719554,-0.09593916,1.406497,NA,NA,NotTracked,Open,
0.9526367,-0.2788086,-0.02929688,-1.025879,0.02490234,0.2055664,-2,1,-2,-1,0,-1,1,1,2,2,7,7,-1,1,13,-10,0.3125,0.3125,0.3125,136.25,136.25,136.25,2.281853,2.969965,4.455988,6.320678,7.317826,2.759508,-0.05526147,-0.5243692,1.49931,0.4102921,0.2109743,1.45268,0.1399531,0.2454679,1.58161,-0.1029323,-0.5302923,1.503148,0.3328827,0.1876066,1.424722,0.1456604,-0.1771894,1.577559,0.1323971,-0.4762177,1.551537,-0.007759682,-0.01277434,1.58766,0.05877328,-0.4658458,1.532042,-0.04775244,-0.2576537,1.57863,0.4788152,-0.09962452,1.421625,NA,NA,NotTracked,Open,
0.9526367,-0.2788086,-0.02929688,-1.061035,-0.03173828,0.4223633,-2,1,-2,-1,0,-1,1,1,-3,-6,-5,-9,-20,-13,-12,6,0.3125,0.3125,0.3125,75.75,75.75,75.75,2.281853,2.969965,4.455988,6.444352,7.258546,2.714337,-0.05604405,-0.5245542,1.503203,0.4204747,0.2118574,1.454446,0.139819,0.2456704,1.581717,-0.1025299,-0.525976,1.502533,0.3500808,0.1863911,1.435517,0.1455997,-0.1770099,1.577803,0.1324127,-0.4761951,1.551554,-0.0081596,-0.01209942,1.587025,0.05877116,-0.4658716,1.531657,-0.04786315,-0.258182,1.578697,0.4863421,-0.1008271,1.440316,NA,NA,NotTracked,Open,
0.9526367,-0.2788086,-0.02929688,-0.9511719,-0.004882813,0.3325195,-2,1,-2,-1,0,-1,1,1,4,4,2,-10,-1,2,-8,-1,0.3125,0.3125,0.3125,13.5625,13.5625,13.5625,2.281853,2.969965,4.455988,6.439398,7.238071,2.667783,-0.05731792,-0.5226281,1.504001,0.4199735,0.1958276,1.455939,0.1398797,0.245709,1.581754,-0.1041814,-0.5177366,1.50728,0.3505404,0.1843422,1.44,0.1456134,-0.1769827,1.577888,0.1324121,-0.4762127,1.551576,-0.008884688,-0.01210493,1.585547,0.05875995,-0.4659143,1.531572,-0.04792016,-0.2583103,1.578719,0.4882659,-0.1009962,1.445757,NA,NA,NotTracked,Open,
0.9526367,-0.2788086,-0.02929688,-0.9711914,-0.01171875,0.1538086,-2,1,-2,-1,0,-1,1,1,-16,-9,-3,-9,6,7,-5,-27,0.3125,0.3125,0.3125,-12.9375,-12.9375,-12.9375,2.281853,2.969965,4.455988,6.485502,7.242299,2.727655,-0.05717121,-0.5230357,1.50396,0.4184383,0.1953019,1.454234,0.1399628,0.2457289,1.58175,-0.1056115,-0.5359059,1.503452,0.3453606,0.1850232,1.43386,0.1456513,-0.1769772,1.577958,0.1324401,-0.476236,1.55159,-0.009049091,-0.01206491,1.58436,0.05880668,-0.4659694,1.531458,-0.04791693,-0.2583609,1.578701,0.4893624,-0.1012732,1.449098,NA,NA,NotTracked,Open,
0.9526367,-0.2788086,-0.02929688,-0.9711914,-0.01171875,0.1538086,-2,1,-2,-1,0,-1,1,1,-34,-12,0,7,-4,-2,-9,-29,0.3125,0.3125,0.3125,-12.9375,-12.9375,-12.9375,2.281853,2.969965,4.455988,6.485502,7.242299,2.727655,-0.05719828,-0.5227184,1.501703,0.4170526,0.1939423,1.451231,0.1401281,0.2457629,1.581746,-0.1048395,-0.5122049,1.507324,0.3446211,0.1844521,1.431406,0.1456785,-0.1769483,1.578033,0.1324527,-0.4762385,1.551607,-0.009173885,-0.01203836,1.583511,0.05882346,-0.4659628,1.53139,-0.04780884,-0.2585072,1.578272,0.4899484,-0.1018445,1.45121,NA,NA,NotTracked,Open,
0.9526367,-0.2788086,-0.02929688,-1.021484,0.08300781,0.1015625,-2,1,-2,-1,0,-1,1,1,-2,4,4,-4,-1,2,7,-5,0.3125,0.3125,0.3125,-14.9375,-14.9375,-14.9375,2.281853,2.969965,4.455988,6.569635,7.232764,2.837637,-0.05748111,-0.5220736,1.500587,0.4165415,0.1934642,1.450198,0.1403971,0.2458429,1.581703,-0.1052237,-0.5209196,1.504889,0.3444868,0.183938,1.431254,0.1457936,-0.1768675,1.578135,0.1324824,-0.4762361,1.55163,-0.009229955,-0.01192603,1.582866,0.05885184,-0.4659632,1.531328,-0.04765978,-0.2588686,1.577839,0.4903685,-0.1022438,1.452937,NA,NA,NotTracked,Open,
0.9526367,-0.2788086,-0.02929688,-0.9672852,0.1591797,0.1103516,-2,1,-2,-1,0,-1,1,1,-20,-9,4,9,-1,-7,-12,-10,0.3125,0.3125,0.3125,-7.25,-7.25,-7.25,2.281853,2.969965,4.455988,6.565865,7.209954,2.850393,-0.05555996,-0.5199021,1.493545,0.4167184,0.1936948,1.44358,0.1411647,0.246025,1.581614,-0.1003155,-0.5175772,1.488512,0.3488016,0.1768544,1.430781,0.1458954,-0.1768651,1.578175,0.1325944,-0.4763064,1.55161,-0.007756944,-0.01183586,1.58307,0.05902285,-0.4660857,1.530856,-0.04729598,-0.2596341,1.576793,0.4904534,-0.1035645,1.454249,NA,NA,NotTracked,Open,
0.9526367,-0.2788086,-0.02929688,-0.925293,0.1791992,0.1000977,-2,1,-2,-1,0,-1,1,1,-5,-1,-5,-4,-3,1,-2,-7,0.3125,0.3125,0.3125,-14.6875,-14.6875,-14.6875,2.281853,2.969965,4.455988,6.621489,7.180859,2.930921,-0.05439556,-0.5192053,1.491564,0.4152589,0.1903653,1.440679,0.1418116,0.2461949,1.581449,-0.09843613,-0.5224893,1.487445,0.3440195,0.1763839,1.422148,0.1460268,-0.1767333,1.578203,0.1327834,-0.4761096,1.551575,-0.008039723,-0.01182175,1.582476,0.05917324,-0.465843,1.530701,-0.04718756,-0.2597187,1.576178,0.4905257,-0.106948,1.45118,NA,NA,NotTracked,Open,
0.9526367,-0.2788086,-0.02929688,-0.8520508,0.1860352,0.06689453,-2,1,-2,-1,0,-1,1,1,6,2,0,-2,-3,-3,-7,-1,0.3125,0.3125,0.3125,-1.8125,-1.8125,-1.8125,2.281853,2.969965,4.455988,6.71241,7.150586,3.029076,-0.05256771,-0.5190057,1.491114,0.4120785,0.1807797,1.433577,0.1430074,0.2461782,1.58139,-0.09812115,-0.5078225,1.495684,0.3518928,0.1608553,1.446462,0.1463555,-0.1766843,1.578439,0.1331217,-0.4762163,1.551691,-0.006451263,-0.01145382,1.583185,0.05947954,-0.4659822,1.53049,-0.04675398,-0.2596069,1.575731,0.4892943,-0.112403,1.454563,NA,NA,NotTracked,Open,
0.9526367,-0.2788086,-0.02929688,-0.8466797,0.1899414,0.04248047,-2,1,-2,-1,0,-1,1,1,-3,-3,-4,-2,-1,-2,2,-1,0.3125,0.3125,0.3125,5.25,5.25,5.25,2.281853,2.969965,4.455988,6.786692,7.129925,3.100963,-0.05183104,-0.5190795,1.490485,0.4085626,0.1701561,1.427866,0.1433147,0.2461957,1.581334,-0.097973,-0.5288911,1.490667,0.3387318,0.1660469,1.404815,0.1465108,-0.1766433,1.578485,0.1332415,-0.4762462,1.551722,-0.005395424,-0.01161825,1.584085,0.05960414,-0.465964,1.530417,-0.04638324,-0.2599754,1.575192,0.4784778,-0.1388773,1.467987,NA,NA,NotTracked,Open,
0.9526367,-0.2788086,-0.02929688,-0.7827148,0.3139648,0.08544922,-2,1,-2,-1,0,-1,1,1,-3,-2,-2,-3,0,-2,-3,-2,0.3125,0.3125,0.3125,9.625,9.625,9.625,2.281853,2.969965,4.455988,7.032259,7.024479,3.342496,-0.05269053,-0.5186754,1.492542,0.405794,0.1559137,1.420609,0.1438499,0.2461097,1.58111,-0.09953085,-0.5222487,1.496112,0.3376497,0.1583966,1.391913,0.1468851,-0.176577,1.578553,0.1335455,-0.476307,1.551773,-0.005435177,-0.01147087,1.58241,0.05986545,-0.4660114,1.530288,-0.04610745,-0.2602267,1.574786,0.4760261,-0.1439497,1.471329,NA,NA,NotTracked,Unknown,
0.9526367,-0.2788086,-0.02929688,-0.7128906,0.3251953,0.09277344,-2,1,-2,-1,0,-1,1,1,-15,-6,-4,-1,-1,0,-3,-5,0.3125,0.3125,0.3125,10.1875,10.1875,10.1875,2.281853,2.969965,4.455988,7.106658,6.972333,3.414131,-0.05225014,-0.5187505,1.493584,0.4024429,0.1382133,1.410184,0.1441704,0.2461819,1.580994,-0.09762435,-0.5250092,1.492428,0.3696525,0.1309938,1.4465,0.1471056,-0.1766181,1.578125,0.1336794,-0.4763138,1.551806,-0.00435098,-0.01143826,1.583605,0.06000408,-0.4659831,1.53023,-0.04590289,-0.26022,1.574602,0.4724632,-0.150947,1.477177,NA,NA,NotTracked,Unknown,
0.9526367,-0.2788086,-0.02929688,-0.6328125,0.4462891,0.1728516,-2,1,-2,-1,0,-1,1,1,-3,-4,-4,-2,-1,-3,-2,-1,0.3125,0.3125,0.3125,13.5625,13.5625,13.5625,2.281853,2.969965,4.455988,7.261805,6.739631,3.562942,-0.05222929,-0.51935,1.496193,0.3990813,0.117091,1.399381,0.1444232,0.2462966,1.581004,-0.09975517,-0.5219896,1.497656,0.3505366,0.114625,1.402125,0.1475804,-0.1763282,1.578385,0.1341643,-0.4759613,1.552166,-0.004471666,-0.01114755,1.582893,0.06038935,-0.4656177,1.530331,-0.04582242,-0.2602264,1.574588,0.4704616,-0.1524231,1.471556,NA,NA,NotTracked,Open,
0.9526367,-0.2788086,-0.02929688,-0.5717773,0.5776367,0.2485352,-2,1,-2,-1,0,-1,1,1,-3,-5,-3,-3,-2,0,-2,-4,0.3125,0.3125,0.3125,-5.25,-5.25,-5.25,2.281853,2.969965,4.455988,7.302894,6.512535,3.611413,-0.05246963,-0.51995,1.4975,0.3906687,0.05217937,1.364395,0.1449946,0.2467081,1.580617,-0.09913425,-0.5032437,1.502617,0.3265041,0.07095424,1.3855,0.1484653,-0.1756003,1.578386,0.1348534,-0.4751321,1.55243,-0.003889504,-0.01079187,1.582654,0.06105152,-0.4645523,1.530327,-0.0455612,-0.2602664,1.574605,0.4513634,-0.1804121,1.511918,NA,NA,NotTracked,Unknown,
0.9526367,-0.2788086,-0.02929688,-0.5791016,0.6625977,0.2543945,-2,1,-2,-1,0,-1,1,1,-1,-5,-4,-1,0,-1,0,1,0.3125,0.3125,0.3125,-25,-25,-25,2.281853,2.969965,4.455988,7.300407,6.37158,3.627257,-0.05351225,-0.519338,1.50097,0.388544,0.007830616,1.345645,0.1454681,0.24677,1.580427,-0.09868533,-0.506404,1.500507,0.3313022,0.02309444,1.310286,0.1487528,-0.1752802,1.578419,0.135143,-0.4746957,1.552627,-0.003008884,-0.01085505,1.583722,0.06138893,-0.4640823,1.530474,-0.0454195,-0.2600227,1.574729,0.4472164,-0.1977746,1.5234,NA,NA,NotTracked,Unknown,
0.9526367,-0.2788086,-0.02929688,-0.6245117,0.7480469,0.2807617,-2,1,-2,-1,0,-1,1,1,1,-2,-2,-1,0,-4,0,2,0.3125,0.3125,0.3125,-51.0625,-51.0625,-51.0625,2.281853,2.969965,4.455988,7.257797,6.044041,3.642538,-0.05329847,-0.5206249,1.501972,0.3823464,-0.03559858,1.31536,0.1457457,0.2468692,1.580246,-0.09855722,-0.5023767,1.499902,0.3588244,-0.04782297,1.345167,0.149105,-0.1750898,1.578383,0.1353392,-0.4745451,1.552789,-0.002983964,-0.01068065,1.583222,0.06157686,-0.4639232,1.530677,-0.04521724,-0.2601158,1.575022,0.4383642,-0.2340038,1.568068,NA,NA,NotTracked,Unknown,
0.9526367,-0.2788086,-0.02929688,-0.5727539,0.7749023,0.2753906,-2,1,-2,-1,0,-1,1,1,4,3,2,0,-2,0,-5,0,0.3125,0.3125,0.3125,-51.4375,-51.4375,-51.4375,2.281853,2.969965,4.455988,7.230213,5.867584,3.646842,-0.05313227,-0.5205076,1.504199,0.3798141,-0.164957,1.302238,0.1462496,0.2473649,1.579762,-0.1014258,-0.519311,1.505788,0.3713766,-0.1249475,1.270111,0.1498272,-0.1747151,1.578116,0.1356545,-0.4743775,1.552946,-0.003115627,-0.01069965,1.582475,0.06193056,-0.463822,1.531095,-0.04425951,-0.2601221,1.575939,0.3778433,-0.2201093,1.620489,NA,NA,NotTracked,Unknown,
0.9526367,-0.2788086,-0.02929688,-0.3823242,0.7617188,-0.03173828,-2,1,-2,-1,0,-1,1,1,-3,-1,0,0,-4,-1,-4,-2,0.3125,0.3125,0.3125,-6.5,-6.5,-6.5,2.281853,2.969965,4.455988,7.12929,4.973008,3.602284,-0.05258807,-0.5192276,1.505003,0.3797422,-0.2309007,1.310702,0.1465796,0.2476323,1.579615,-0.09978031,-0.5113238,1.506925,0.3758331,-0.1847273,1.3068,0.1503467,-0.1744992,1.578056,0.1358077,-0.4742683,1.553071,-0.003113338,-0.01057132,1.582036,0.06209619,-0.4637536,1.531271,-0.04392925,-0.2600978,1.576239,0.3774661,-0.2141653,1.61896,NA,NA,NotTracked,Unknown,
0.9526367,-0.2788086,-0.02929688,-0.215332,0.847168,-0.07958984,-2,1,-2,-1,0,-1,1,1,-7,-5,-7,-4,-2,0,5,2,0.3125,0.3125,0.3125,6.875,6.875,6.875,2.281853,2.969965,4.455988,7.137204,4.792411,3.582589,-0.05183947,-0.5180068,1.504664,0.3800104,-0.296274,1.326592,0.1472117,0.2478544,1.579198,-0.09891766,-0.5179904,1.504587,0.383845,-0.2477701,1.271643,0.1506194,-0.1743427,1.577928,0.1359686,-0.4742046,1.553103,-0.003042354,-0.01076245,1.581478,0.06223653,-0.4637315,1.531335,-0.04368855,-0.2600238,1.576384,0.3744427,-0.208471,1.595435,NA,NA,NotTracked,Unknown,
0.9526367,-0.2788086,-0.02929688,0.2436523,1.041992,0.008789063,-2,1,-2,-1,0,-1,1,1,-5,-8,-1,1,-4,-2,-6,-3,0.3125,0.3125,0.3125,72.8125,72.8125,72.8125,2.281853,2.969965,4.455988,7.251185,4.303326,3.525975,-0.05222416,-0.5179857,1.504449,0.3825849,-0.407331,1.367739,0.1483327,0.2482393,1.578653,-0.1001349,-0.5015158,1.511278,0.386852,-0.3689229,1.325154,0.1517722,-0.1741211,1.577767,0.1371074,-0.4741198,1.553276,-0.002661871,-0.01087457,1.579869,0.06324911,-0.4637236,1.531388,-0.04335438,-0.2599112,1.576288,0.3745957,-0.2191365,1.5924,NA,NA,NotTracked,Open,
0.9526367,-0.2788086,-0.02929688,0.8046875,1.109375,-0.01806641,-2,1,-2,-1,0,-1,1,1,3,3,-1,3,2,-5,-12,-2,0.3125,0.3125,0.3125,81.5,81.5,81.5,2.281853,2.969965,4.455988,7.361837,4.002,3.484985,-0.05206243,-0.5177266,1.503254,0.3835364,-0.4459935,1.38669,0.1490218,0.2482124,1.578424,-0.09863421,-0.5249622,1.5054,0.3890287,-0.4178228,1.34416,0.152181,-0.1740898,1.577787,0.1376585,-0.4741643,1.553542,-0.002752889,-0.01086778,1.579378,0.06373639,-0.4637824,1.531595,-0.04332146,-0.2599343,1.576254,0.3765488,-0.2302318,1.587912,NA,NA,NotTracked,Open,
0.9526367,-0.2788086,-0.02929688,0.9599609,1.006836,0.0234375,-2,1,-2,-1,0,-1,1,1,6,4,1,0,0,-5,-14,-2,0.3125,0.3125,0.3125,74.0625,74.0625,74.0625,2.281853,2.969965,4.455988,7.509571,3.6273,3.491563,-0.05232228,-0.5171433,1.501101,0.3825797,-0.4718892,1.404785,0.1496615,0.2483268,1.578105,-0.1014937,-0.518459,1.512024,0.417197,-0.4639761,1.377978,0.1527174,-0.1739989,1.577805,0.1382481,-0.4741711,1.553777,-0.001673031,-0.01100473,1.580727,0.06436618,-0.4638003,1.531745,-0.04324084,-0.2598037,1.576037,0.3789827,-0.2396581,1.58141,NA,NA,NotTracked,NotTracked,
0.9526367,-0.2788086,-0.02929688,1.092285,0.440918,0.03564453,-2,1,-2,-1,0,-1,1,1,-4,-7,-8,-1,-2,-1,0,-1,0.3125,0.3125,0.3125,44.125,44.125,44.125,2.281853,2.969965,4.455988,7.610449,3.365849,3.43709,-0.0526405,-0.5165254,1.495437,0.3809461,-0.5015272,1.432937,0.1515943,0.2484789,1.577547,-0.1000093,-0.5062453,1.499182,0.417649,-0.5152513,1.407654,0.1538726,-0.1740544,1.577878,0.139828,-0.4743479,1.554088,-0.001447036,-0.01071763,1.578372,0.06592701,-0.4639681,1.531646,-0.04311202,-0.2597794,1.57464,0.382089,-0.251092,1.571031,NA,NA,NotTracked,NotTracked,
0.9526367,-0.2788086,-0.02929688,1.056152,0.3706055,-0.008300781,-2,1,-2,-1,0,-1,1,1,-1,-1,-1,-1,-1,-3,-3,-1,0.3125,0.3125,0.3125,73.6875,73.6875,73.6875,2.281853,2.969965,4.455988,7.673998,3.308089,3.410917,-0.05296074,-0.5164392,1.494401,0.3831833,-0.5066615,1.444476,0.1523601,0.2484527,1.5775,-0.1012867,-0.5091599,1.498966,0.421509,-0.5189403,1.421909,0.1546623,-0.1741256,1.578151,0.1409578,-0.4745581,1.554517,-0.001411087,-0.01067011,1.578131,0.06706451,-0.4641244,1.531927,-0.04310614,-0.2597391,1.574082,0.3822465,-0.2534171,1.568243,NA,NA,NotTracked,NotTracked,
0.9526367,-0.2788086,-0.02929688,0.9257813,0.4863281,-0.1459961,-2,1,-2,-1,0,-1,1,1,1,2,1,1,0,1,0,0,0.3125,0.3125,0.3125,87.25,87.25,87.25,2.281853,2.969965,4.455988,7.91584,3.209707,3.317183,-0.05219975,-0.5164197,1.489941,0.3871851,-0.5165117,1.453004,0.1540219,0.2481024,1.577186,-0.09913406,-0.5132687,1.490533,0.4290968,-0.5187049,1.440364,0.1558917,-0.1744553,1.578234,0.1425699,-0.4751445,1.554719,-0.001099956,-0.01060627,1.576779,0.06857869,-0.464644,1.531986,-0.04295467,-0.259553,1.572043,0.3816813,-0.2583327,1.561715,NA,NA,NotTracked,NotTracked,
0.9526367,-0.2788086,-0.02929688,0.9282227,0.5019531,-0.1352539,-2,1,-2,-1,0,-1,1,1,-2,-2,-2,1,2,1,1,0,0.3125,0.3125,0.3125,19.1875,19.1875,19.1875,2.281853,2.969965,4.455988,8.019357,3.188017,3.248072,-0.05264583,-0.5158471,1.490062,0.3898763,-0.5214339,1.454886,0.154494,0.248088,1.576936,-0.1022025,-0.5233657,1.493389,0.4282244,-0.5298983,1.436741,0.1562344,-0.1746012,1.578257,0.1429633,-0.4752895,1.554816,-0.001027482,-0.01051026,1.576473,0.06891899,-0.4647607,1.531986,-0.04296982,-0.2595087,1.571412,0.3812849,-0.2597802,1.560313,NA,NA,NotTracked,NotTracked,
0.9526367,-0.2788086,-0.02929688,0.8994141,0.480957,-0.1455078,-2,1,-2,-1,0,-1,1,1,-1,-1,-2,-1,0,0,1,1,0.3125,0.3125,0.3125,-12.875,-12.875,-12.875,2.281853,2.969965,4.455988,8.038778,3.181967,3.218339,-0.05206281,-0.5174657,1.488582,0.3913626,-0.5244756,1.454775,0.1551889,0.2480416,1.576608,-0.1019668,-0.5258214,1.496556,0.4310988,-0.5283333,1.443095,0.1565604,-0.1747136,1.578192,0.1430677,-0.4753596,1.55481,-0.001024048,-0.01047971,1.57623,0.0690062,-0.4648207,1.531935,-0.04316637,-0.259825,1.57039,0.3804702,-0.2608863,1.558804,NA,NA,NotTracked,NotTracked,
0.9526367,-0.2788086,-0.02929688,0.90625,0.3671875,-0.1484375,-2,1,-2,-1,0,-1,1,1,2,2,1,-1,1,-2,-7,-3,0.3125,0.3125,0.3125,-60.3125,-60.3125,-60.3125,2.281853,2.969965,4.455988,8.050332,3.168006,3.112057,-0.05202465,-0.5173924,1.491745,0.3946057,-0.526139,1.457899,0.1561819,0.2480268,1.576082,-0.09902644,-0.5060682,1.49975,0.4351212,-0.5311201,1.448167,0.156672,-0.174751,1.578163,0.1433021,-0.4753744,1.55481,-0.000946923,-0.01051023,1.575564,0.06920038,-0.4648438,1.531922,-0.04317727,-0.2596322,1.5699,0.3794963,-0.2618138,1.557374,NA,NA,NotTracked,NotTracked,
0.9526367,-0.2788086,-0.02929688,0.9111328,0.328125,-0.112793,-2,1,-2,-1,0,-1,1,1,-1,1,1,-2,-1,-3,-1,-1,0.3125,0.3125,0.3125,-44.375,-44.375,-44.375,2.281853,2.969965,4.455988,8.05359,3.160744,3.048318,-0.05105575,-0.5177969,1.493797,0.3954376,-0.5262579,1.459447,0.1564042,0.2480263,1.576023,-0.09655709,-0.5021921,1.491762,0.4356691,-0.539125,1.448875,0.156741,-0.1747526,1.578218,0.1433536,-0.4753976,1.554901,-0.001031501,-0.01049714,1.575414,0.06924571,-0.4648546,1.531958,-0.04321923,-0.2594512,1.569868,0.3790184,-0.2621377,1.556948,NA,NA,NotTracked,NotTracked,
0.9526367,-0.2788086,-0.02929688,0.9101563,0.340332,-0.1298828,-2,1,-2,-1,0,-1,1,1,-1,-2,-2,-2,-2,2,2,0,0.3125,0.3125,0.3125,-30.125,-30.125,-30.125,2.281853,2.969965,4.455988,8.076089,3.151095,2.964131,-0.05155866,-0.5184398,1.493866,0.3960758,-0.5275342,1.458177,0.1566117,0.2479727,1.575811,-0.098605,-0.5112032,1.494631,0.4346332,-0.5354615,1.446436,0.156766,-0.1747559,1.578206,0.1434336,-0.4754085,1.554874,-0.001178746,-0.01059663,1.575,0.06932261,-0.4648756,1.531935,-0.04330416,-0.2592894,1.569774,0.3782477,-0.2625979,1.556345,NA,NA,NotTracked,NotTracked,
0.9526367,-0.2788086,-0.02929688,0.902832,0.3388672,-0.1386719,-2,1,-2,-1,0,-1,1,1,0,1,2,0,3,0,-2,-3,0.3125,0.3125,0.3125,-29.3125,-29.3125,-29.3125,2.281853,2.969965,4.455988,8.08099,3.147408,2.941217,-0.05276531,-0.5189554,1.496547,0.3947303,-0.5283588,1.461939,0.1568888,0.2477003,1.575413,-0.1003983,-0.5147326,1.501257,0.4335383,-0.5326715,1.447433,0.1568086,-0.1749026,1.57827,0.1434372,-0.4755323,1.554946,-6.133683E-05,-0.01129827,1.578413,0.06937637,-0.4649808,1.532045,-0.043582,-0.2594991,1.570007,0.3769542,-0.2635388,1.555595,NA,NA,NotTracked,NotTracked,
0.9526367,-0.2788086,-0.02929688,0.9125977,0.3222656,-0.1289063,-2,1,-2,-1,0,-1,1,1,-3,-1,0,-1,0,-2,1,0,0.3125,0.3125,0.3125,-13.9375,-13.9375,-13.9375,2.281853,2.969965,4.455988,8.081058,3.135356,2.904807,-0.05269538,-0.5188985,1.497475,0.3943056,-0.527948,1.463885,0.1570077,0.2475426,1.575304,-0.09839555,-0.5013911,1.497625,0.4319926,-0.524597,1.453482,0.1568199,-0.1749623,1.578277,0.1434745,-0.4756052,1.554979,-0.0003149757,-0.01147105,1.578089,0.06940801,-0.4650374,1.532077,-0.04364814,-0.2594743,1.57023,0.3763345,-0.2638941,1.555498,NA,NA,NotTracked,Unknown,
0.9526367,-0.2788086,-0.02929688,0.8935547,0.3388672,-0.1186523,-2,1,-2,-1,0,-1,1,1,0,-2,-2,-1,0,-1,3,-2,0.3125,0.3125,0.3125,7.125,7.125,7.125,2.281853,2.969965,4.455988,8.075411,3.126478,2.912823,-0.05273817,-0.5197262,1.497007,0.3897227,-0.527333,1.46426,0.1568608,0.247261,1.574507,-0.1007906,-0.5010839,1.504089,0.4239163,-0.5203583,1.442837,0.1567951,-0.1750851,1.578232,0.1435541,-0.4757412,1.554952,-0.0009824877,-0.01151037,1.577632,0.06951353,-0.4652436,1.532127,-0.04375856,-0.2596105,1.570385,0.3752081,-0.2644364,1.555348,NA,NA,NotTracked,NotTracked,
0.9526367,-0.2788086,-0.02929688,0.8867188,0.3598633,-0.1108398,-2,1,-2,-1,0,-1,1,1,0,1,-1,2,-4,1,-3,1,0.3125,0.3125,0.3125,11.25,11.25,11.25,2.281853,2.969965,4.455988,8.068868,3.124267,2.932042,-0.05271869,-0.5193223,1.496725,0.3881782,-0.5274667,1.465452,0.15685,0.2471547,1.574336,-0.09820286,-0.5084465,1.494738,0.4297342,-0.5337672,1.455765,0.1567833,-0.1751165,1.578219,0.143566,-0.475756,1.554958,-0.001338512,-0.01158751,1.577571,0.06953839,-0.4652746,1.532195,-0.04392788,-0.2599489,1.570661,0.3748078,-0.2643555,1.555386,NA,NA,NotTracked,NotTracked,
0.9526367,-0.2788086,-0.02929688,0.8881836,0.3706055,-0.1162109,-2,1,-2,-1,0,-1,1,1,-2,-1,0,-2,0,0,0,-1,0.3125,0.3125,0.3125,9.5,9.5,9.5,2.281853,2.969965,4.455988,8.068518,3.124614,2.944036,-0.05266186,-0.5191627,1.496114,0.3859796,-0.5254204,1.465185,0.1567151,0.2470896,1.574211,-0.09783523,-0.5053914,1.494929,0.4273071,-0.5267329,1.451337,0.1567757,-0.1751221,1.5782,0.1435881,-0.4757734,1.554941,-0.001554408,-0.01159105,1.577527,0.06955881,-0.4653031,1.532213,-0.04399371,-0.2599309,1.57081,0.3742872,-0.2643477,1.555527,NA,NA,NotTracked,NotTracked,
0.9526367,-0.2788086,-0.02929688,0.8857422,0.3662109,-0.1279297,-2,1,-2,-1,0,-1,1,1,-1,-1,-4,-2,-1,-2,-1,0,0.3125,0.3125,0.3125,5.625,5.625,5.625,2.281853,2.969965,4.455988,8.070283,3.12594,2.94546,-0.05286484,-0.5190911,1.496091,0.3852526,-0.5257829,1.466511,0.1566443,0.2471142,1.574149,-0.0994522,-0.5071971,1.497971,0.4221669,-0.515839,1.450298,0.1567815,-0.1751447,1.578201,0.1436519,-0.4757914,1.554918,-0.001696,-0.01159039,1.577494,0.06963561,-0.4653547,1.532244,-0.04416393,-0.2597966,1.570994,0.373998,-0.264381,1.555471,NA,NA,NotTracked,NotTracked,
0.9526367,-0.2788086,-0.02929688,0.909668,0.3432617,-0.1289063,-2,1,-2,-1,0,-1,1,1,2,0,-2,-3,-1,1,0,-2,0.3125,0.3125,0.3125,-0.9375,-0.9375,-0.9375,2.281853,2.969965,4.455988,8.071203,3.13124,2.94432,-0.0529838,-0.5193942,1.495911,0.3840228,-0.5268937,1.466197,0.1565477,0.2471632,1.573964,-0.1003004,-0.5083284,1.50323,0.4204151,-0.5243464,1.444449,0.1567662,-0.1751633,1.578198,0.1437248,-0.4758182,1.554956,-0.002022929,-0.01169851,1.577265,0.06973761,-0.4653987,1.532278,-0.04421413,-0.2598251,1.571005,0.3735538,-0.2643486,1.5555,NA,NA,NotTracked,NotTracked,
0.9526367,-0.2788086,-0.02929688,0.9057617,0.3442383,-0.1220703,-2,1,-2,-1,0,-1,1,1,0,0,-2,-1,-1,-4,-1,0,0.3125,0.3125,0.3125,1.25,1.25,1.25,2.281853,2.969965,4.455988,8.06777,3.133009,2.948905,-0.05298466,-0.5201678,1.49603,0.3815001,-0.5248559,1.46547,0.1564707,0.2470736,1.573931,-0.09960558,-0.5126288,1.498247,0.4215822,-0.5263502,1.448332,0.1567069,-0.1752245,1.5782,0.143689,-0.4758698,1.554966,-0.002247236,-0.01182211,1.577168,0.0697026,-0.4654464,1.532299,-0.04426541,-0.2598669,1.571122,0.3732074,-0.2644711,1.55544,NA,NA,NotTracked,NotTracked,
0.9526367,-0.2788086,-0.02929688,0.8867188,0.3500977,-0.1308594,-2,1,-2,-1,0,-1,1,1,0,-3,-2,0,0,-1,-1,-3,0.3125,0.3125,0.3125,12.1875,12.1875,12.1875,2.281853,2.969965,4.455988,8.070127,3.139244,2.963211,-0.05322178,-0.5204772,1.495916,0.3793354,-0.5251866,1.464796,0.155984,0.2469498,1.573537,-0.1005118,-0.5121907,1.498918,0.4208894,-0.5270476,1.447154,0.1566112,-0.1753893,1.578115,0.1437194,-0.4759658,1.554912,-0.002784055,-0.01207489,1.576985,0.06975199,-0.4655728,1.532334,-0.04435325,-0.2600855,1.571198,0.3724839,-0.2645468,1.55541,NA,NA,NotTracked,NotTracked,
0.9526367,-0.2788086,-0.02929688,0.8935547,0.3603516,-0.1220703,-2,1,-2,-1,0,-1,1,1,-1,-1,-1,-1,-1,1,-2,0,0.3125,0.3125,0.3125,12.625,12.625,12.625,2.281853,2.969965,4.455988,8.071711,3.143329,2.976577,-0.05303989,-0.5197598,1.494737,0.3786651,-0.5248151,1.464057,0.155846,0.2469506,1.573356,-0.1015686,-0.5369506,1.499154,0.4218186,-0.5286109,1.451482,0.1565456,-0.1754565,1.578055,0.1437305,-0.4760167,1.554892,-0.003034526,-0.01221659,1.576905,0.06976643,-0.4656334,1.532319,-0.04442906,-0.2601324,1.571247,0.3722072,-0.2645827,1.555437,NA,NA,NotTracked,NotTracked,
0.9526367,-0.2788086,-0.02929688,0.8896484,0.3574219,-0.1279297,-2,1,-2,-1,0,-1,1,1,-1,1,-3,0,-1,-1,0,0,0.3125,0.3125,0.3125,8.0625,8.0625,8.0625,2.281853,2.969965,4.455988,8.075976,3.147384,2.989663,-0.05295051,-0.5208097,1.495643,0.3776319,-0.5250282,1.463942,0.1555965,0.2467786,1.573081,-0.09841214,-0.506161,1.494796,0.4159444,-0.5264024,1.444438,0.1564114,-0.1755513,1.578101,0.143726,-0.4760665,1.554899,-0.003633935,-0.01247321,1.576905,0.06976403,-0.4657456,1.532377,-0.0445544,-0.2602594,1.571293,0.3717119,-0.2643486,1.555565,NA,NA,NotTracked,NotTracked,
0.9526367,-0.2788086,-0.02929688,0.8955078,0.3579102,-0.1210938,-2,1,-2,-1,0,-1,1,1,-1,-1,0,-1,-1,-3,0,0,0.3125,0.3125,0.3125,5.0625,5.0625,5.0625,2.281853,2.969965,4.455988,8.076148,3.14845,2.992374,-0.05320334,-0.5198238,1.495649,0.3777475,-0.5243931,1.463764,0.1554,0.2467119,1.572686,-0.1019587,-0.5205425,1.506286,0.4149492,-0.5209683,1.442579,0.156405,-0.1755529,1.578101,0.1437448,-0.4760645,1.5549,-0.003777021,-0.01244912,1.576786,0.06978026,-0.4657406,1.53238,-0.04469303,-0.2602392,1.571347,0.3714933,-0.2642593,1.55558,NA,NA,NotTracked,NotTracked,
0.9526367,-0.2788086,-0.02929688,0.8920898,0.3613281,-0.121582,-2,1,-2,-1,0,-1,1,1,-1,-2,-2,-2,0,0,0,-2,0.3125,0.3125,0.3125,-3.3125,-3.3125,-3.3125,2.281853,2.969965,4.455988,8.074413,3.153531,2.992263,-0.05270154,-0.5202111,1.495951,0.3779876,-0.5252809,1.463845,0.1553362,0.2466841,1.572514,-0.1021046,-0.5305448,1.502529,0.421427,-0.5362178,1.4545,0.156353,-0.1755892,1.578107,0.143811,-0.476128,1.554916,-0.002699107,-0.01274312,1.579347,0.06986655,-0.4658135,1.532405,-0.04479842,-0.260359,1.571345,0.3713035,-0.2641057,1.555595,NA,NA,NotTracked,NotTracked,
0.9526367,-0.2788086,-0.02929688,0.8876953,0.3588867,-0.1181641,-2,1,-2,-1,0,-1,1,1,-1,0,1,-1,-1,-2,-2,-1,0.3125,0.3125,0.3125,-7.125,-7.125,-7.125,2.281853,2.969965,4.455988,8.06883,3.15579,2.990127,-0.05263968,-0.5198691,1.494872,0.3763523,-0.5240299,1.463338,0.15531,0.2466388,1.572444,-0.09738385,-0.5227169,1.491024,0.4183611,-0.5342037,1.44844,0.1562773,-0.1756187,1.578095,0.1437979,-0.4761609,1.554926,-0.001983868,-0.01286889,1.581188,0.06986497,-0.465856,1.532407,-0.04484469,-0.2604087,1.571382,0.3711489,-0.2641155,1.555605,NA,NA,NotTracked,NotTracked,
0.9526367,-0.2788086,-0.02929688,0.8876953,0.3549805,-0.1157227,-2,1,-2,-1,0,-1,1,1,-1,1,-2,0,-2,0,-1,1,0.3125,0.3125,0.3125,-6.8125,-6.8125,-6.8125,2.281853,2.969965,4.455988,8.065787,3.155954,2.989177,-0.0524913,-0.5198889,1.495068,0.3763242,-0.5241138,1.462657,0.1552375,0.246627,1.572372,-0.09889991,-0.5211483,1.495776,0.4159061,-0.5357167,1.443736,0.1562266,-0.1756311,1.578093,0.1437787,-0.4761727,1.554923,-0.001695569,-0.01294971,1.582193,0.06985538,-0.4658639,1.5324,-0.04490694,-0.2604842,1.571378,0.3710033,-0.2641659,1.555615,NA,NA,NotTracked,NotTracked,
0.9526367,-0.2788086,-0.02929688,0.8837891,0.359375,-0.1171875,-2,1,-2,-1,0,-1,1,1,0,-1,1,1,-1,-2,-1,-2,0.3125,0.3125,0.3125,-4.375,-4.375,-4.375,2.281853,2.969965,4.455988,8.061597,3.155799,2.986976,-0.05287162,-0.5204473,1.496513,0.3747265,-0.5239338,1.464659,0.1550814,0.2463982,1.57214,-0.1007069,-0.5039085,1.501834,0.4191035,-0.5390048,1.45069,0.1561939,-0.1757025,1.578128,0.1438537,-0.4762139,1.554976,-0.002765689,-0.01294628,1.580745,0.06991402,-0.4659311,1.532438,-0.04497545,-0.260505,1.571482,0.3705614,-0.2641586,1.555842,NA,NA,NotTracked,NotTracked,
0.9526367,-0.2788086,-0.02929688,0.8955078,0.3608398,-0.1103516,-2,1,-2,-1,0,-1,1,1,0,-2,-2,0,-1,-3,-1,-1,0.3125,0.3125,0.3125,0.75,0.75,0.75,2.281853,2.969965,4.455988,8.060637,3.153792,2.985714,-0.05275099,-0.5205601,1.496116,0.3738646,-0.5238699,1.464821,0.1548931,0.2462489,1.571866,-0.1037596,-0.5316983,1.5069,0.4154225,-0.5289503,1.451327,0.1561247,-0.1757963,1.578112,0.143859,-0.4762564,1.554984,-0.003345469,-0.01302804,1.579927,0.06992072,-0.4660003,1.532437,-0.04498827,-0.2605236,1.571478,0.370387,-0.2640889,1.5559,NA,NA,NotTracked,NotTracked,
0.9526367,-0.2788086,-0.02929688,0.8959961,0.3608398,-0.1196289,-2,1,-2,-1,0,-1,1,1,-1,1,1,-1,-1,-1,0,-1,0.3125,0.3125,0.3125,6.625,6.625,6.625,2.281853,2.969965,4.455988,8.063545,3.15167,2.989897,-0.0524767,-0.5211694,1.496254,0.3735493,-0.5237381,1.463886,0.1548001,0.2459981,1.571668,-0.0990854,-0.5099956,1.502162,0.4157414,-0.5476716,1.448875,0.1560144,-0.1759691,1.577986,0.1438713,-0.4763094,1.554957,-0.003866246,-0.01315718,1.579453,0.06992589,-0.4660571,1.532433,-0.0450086,-0.2605323,1.571498,0.3701524,-0.264016,1.555892,NA,NA,NotTracked,NotTracked,
0.9526367,-0.2788086,-0.02929688,0.890625,0.3642578,-0.1245117,-2,1,-2,-1,0,-1,1,1,1,0,-2,-1,0,-3,0,0,0.3125,0.3125,0.3125,9,9,9,2.281853,2.969965,4.455988,8.068272,3.152141,2.994583,-0.05291484,-0.5202186,1.494898,0.3717349,-0.523744,1.464209,0.1543711,0.2458962,1.57098,-0.1000761,-0.5136147,1.499507,0.4120103,-0.5253104,1.447263,0.1559152,-0.1760779,1.577943,0.1438877,-0.4764492,1.554863,-0.004474177,-0.01360279,1.578371,0.06992705,-0.4662371,1.53234,-0.04511152,-0.2609883,1.571559,0.3697042,-0.2639934,1.555671,NA,NA,NotTracked,NotTracked,
