ALX,ALY,ALZ,ARX,ARY,ARZ,EMG0L,EMG1L,EMG2L,EMG3L,EMG4L,EMG5L,EMG6L,EMG7L,EMG0R,EMG1R,EMG2R,EMG3R,EMG4R,EMG5R,EMG6R,EMG7R,GLX,GLY,GLZ,GRX,GRY,GRZ,ORL,OPL,OYL,ORR,OPR,OYR,LHNX,LHNY,LHNZ,RHNX,RHNY,RHNZ,HX,HY,HZ,LTX,LTY,LTZ,RTX,RTY,RTZ,SpineMidX,SpineMidY,SpineMidZ,SpineBaseX,SpineBaseY,SpineBaseZ,ShoulderLeftX,ShoulderLeftY,ShoulderLeftZ,ShoulderRightX,ShoulderRightY,ShoulderRightZ,ElbowLeftX,ElbowLeftY,ElbowLeftZ,ElbowRightX,ElbowRightY,ElbowRightZ,Myo_Pose_left,Myo_Pose_Right,Kinect_pose_left,Kinect_pose_right
0.4916992,-0.8369141,0.2050781,-0.7255859,0.84375,0.07958984,0,-1,0,0,1,5,2,1,4,-1,1,-3,-4,-3,-6,-15,17.125,17.125,17.125,13.375,13.375,13.375,2.773346,4.037969,2.344465,7.22514,5.594309,5.117265,0.270405,-0.3390593,1.422487,0.166612,-0.08752523,1.494044,0.2304612,0.2392064,1.656133,0.2821389,-0.2968297,1.479344,0.213877,-0.03993535,1.523258,0.220846,-0.1802732,1.65262,0.2136203,-0.480384,1.62496,0.06840641,-0.005829541,1.605717,0.1391111,-0.4696966,1.597206,0.05759032,-0.212108,1.500811,0.4050669,-0.2102855,1.475476,NA,NA,Unknown,Unknown,
0.6220703,-0.8642578,0.1542969,-0.7011719,1.020996,0.1572266,-3,0,0,-3,-2,-3,-2,-3,-2,4,3,-1,-3,2,9,1,-33.3125,-33.3125,-33.3125,9.375,9.375,9.375,2.751728,4.024074,2.320463,7.29403,5.685236,5.179856,0.2719933,-0.3405434,1.423734,0.1648539,-0.08302565,1.489294,0.230275,0.2390558,1.656278,0.2382784,-0.37894,1.466808,0.2083242,-0.03616576,1.5218,0.2206964,-0.1801891,1.652551,0.2133519,-0.4804851,1.624579,0.06854872,-0.005881941,1.605673,0.1387949,-0.4696539,1.596671,0.05797731,-0.2116489,1.49959,0.4065476,-0.2093772,1.474671,NA,NA,Unknown,Unknown,
0.5751953,-0.8569336,0.1582031,-0.6601563,1.055664,0.1694336,-1,0,1,-2,1,-2,-1,-4,2,2,-1,0,-3,3,9,5,-28.25,-28.25,-28.25,-46.875,-46.875,-46.875,2.733886,4.021041,2.296959,7.292166,5.72218,5.256187,0.277206,-0.3434992,1.424132,0.1626358,-0.07915203,1.484577,0.2302396,0.2390133,1.656342,0.2421308,-0.3799116,1.467892,0.1848872,-0.0226922,1.520143,0.2206911,-0.1801714,1.652538,0.2133173,-0.4805265,1.624344,0.07005059,-0.00525554,1.604312,0.1387517,-0.4696105,1.595938,0.05812863,-0.2111701,1.498693,0.4046926,-0.2074254,1.470466,NA,NA,Unknown,Unknown,
0.5546875,-0.8525391,0.1459961,-0.5839844,1.121582,0.1625977,-1,0,1,4,12,12,5,-2,3,0,-1,-2,-7,1,19,21,-24.8125,-24.8125,-24.8125,-93.75,-93.75,-93.75,2.722717,4.019358,2.27058,7.239018,5.763229,5.35667,0.279568,-0.343335,1.42397,0.1545132,-0.06776079,1.480973,0.2302417,0.2390051,1.65635,0.2453049,-0.3800881,1.46875,0.1402259,-0.01925922,1.43119,0.2206316,-0.1801859,1.652451,0.2131244,-0.4807083,1.623833,0.07017487,-0.00542171,1.603855,0.1384749,-0.469708,1.59518,0.05956728,-0.210967,1.497261,0.3944831,-0.2027423,1.458972,NA,NA,Closed,Unknown,
0.5908203,-0.8261719,0.1289063,-0.465332,0.831543,0.1787109,0,-3,-2,1,1,1,-1,0,-7,0,1,3,4,2,-21,-21,-27.3125,-27.3125,-27.3125,-117.625,-117.625,-117.625,2.709852,4.013941,2.244688,7.154896,5.789616,5.448179,0.2882739,-0.3466456,1.42123,0.1422068,-0.05294471,1.480396,0.2302916,0.2388764,1.656469,0.2568351,-0.3815608,1.470277,0.09716147,-0.1052647,1.510825,0.220624,-0.1801905,1.652434,0.2130708,-0.4809893,1.623384,0.07074103,-0.00589631,1.60269,0.138289,-0.4700694,1.593803,0.0621966,-0.2109138,1.494739,0.3765337,-0.1926194,1.441329,NA,NA,Closed,Unknown,
0.5917969,-0.8085938,0.1088867,-0.3603516,0.6865234,0.3085938,-1,-1,-2,0,1,-2,-3,1,-16,0,0,4,-5,0,10,-25,-36.5,-36.5,-36.5,-97.4375,-97.4375,-97.4375,2.690227,4.010772,2.215893,7.114093,5.784292,5.485717,0.2915287,-0.3454287,1.426956,0.1245321,-0.03515127,1.483338,0.2304774,0.2386284,1.65666,0.2638498,-0.3835174,1.473071,0.08516132,-0.08762158,1.511016,0.2206413,-0.1803049,1.652247,0.2131651,-0.4816223,1.622693,0.07254115,-0.006895087,1.598715,0.138228,-0.4708075,1.592141,0.06426719,-0.2121342,1.491216,0.3525454,-0.1729185,1.419367,NA,NA,Unknown,Unknown,
0.6030273,-0.8266602,0.09619141,-0.05566406,0.5166016,0.4277344,1,0,0,0,0,-5,-5,-1,-1,-2,-2,-8,-16,-19,8,38,-44.875,-44.875,-44.875,-19.75,-19.75,-19.75,2.657557,4.009198,2.189205,7.085958,5.725968,5.56552,0.3015742,-0.3472442,1.422479,0.11704,-0.02840636,1.483791,0.2306457,0.2385209,1.65681,0.2747383,-0.3808168,1.475034,0.1709455,0.01133167,1.531046,0.2206264,-0.1803722,1.652169,0.2131689,-0.4818055,1.622523,0.07312343,-0.007259292,1.596899,0.1381317,-0.4709915,1.5918,0.06788585,-0.2119302,1.487964,0.3419715,-0.164614,1.412789,NA,NA,Closed,Unknown,
0.6103516,-0.8320313,0.1020508,-0.1782227,0.6123047,0.1518555,0,-2,-3,2,3,1,0,-1,-23,-7,-5,0,-5,-16,-12,-42,-38.8125,-38.8125,-38.8125,88.3125,88.3125,88.3125,2.643306,4.010529,2.178072,7.178195,5.657995,5.627273,0.3080233,-0.3479277,1.422447,0.1120403,-0.02601294,1.485895,0.2307803,0.2385513,1.656929,0.3140164,-0.3106719,1.479357,0.1615838,0.01468424,1.533719,0.2206304,-0.180437,1.652111,0.2132278,-0.4819361,1.622419,0.07362545,-0.007460283,1.595406,0.1381395,-0.4711076,1.591646,0.07005461,-0.2119524,1.486014,0.336518,-0.1571652,1.407723,NA,NA,Closed,Unknown,
0.6176758,-0.8120117,0.07421875,-0.1352539,0.9819336,0.06542969,1,-2,-4,-2,-5,-1,-3,2,-12,7,7,13,31,15,-46,-17,-18.5,-18.5,-18.5,68.4375,68.4375,68.4375,2.629838,4.013283,2.158729,7.281799,5.580225,5.647884,0.293394,-0.3390362,1.436811,0.1072107,-0.02793728,1.486167,0.2310541,0.2384651,1.657371,0.2656378,-0.3788348,1.475146,0.1601969,0.01208886,1.535261,0.2206254,-0.1804652,1.652068,0.213105,-0.4820839,1.622308,0.07386214,-0.00795975,1.59434,0.1379354,-0.4712574,1.591464,0.07160584,-0.2124076,1.484824,0.333656,-0.1517611,1.404246,NA,NA,Closed,Unknown,
0.6157227,-0.8085938,0.0625,-0.08789063,0.8569336,0.06494141,-4,0,-2,-2,0,2,-1,-1,-1,10,9,18,-2,10,-22,-32,-13.25,-13.25,-13.25,6.5625,6.5625,6.5625,2.618581,4.017291,2.140447,7.2997,5.507079,5.627137,0.3185163,-0.3474869,1.420196,0.1024267,-0.02688391,1.485511,0.2314485,0.2382932,1.658144,0.2967237,-0.3825056,1.481641,0.1489237,0.01426409,1.539727,0.2206371,-0.1804785,1.652074,0.2131229,-0.4821005,1.622304,0.07413492,-0.008390369,1.593539,0.137932,-0.4712818,1.591459,0.07252212,-0.2127531,1.483836,0.3279431,-0.1436902,1.399238,NA,NA,Closed,Unknown,
0.6044922,-0.8188477,0.08886719,-0.152832,0.8110352,0.109375,-4,-3,-2,-3,-2,-1,-4,-5,-11,-13,-8,-7,17,13,1,-22,-1.4375,-1.4375,-1.4375,30.875,30.875,30.875,2.61213,4.019722,2.137416,7.304244,5.37301,5.495581,0.3204285,-0.3435896,1.419892,0.09721776,-0.03376376,1.468943,0.2320107,0.2379811,1.658914,0.2999251,-0.3808772,1.480778,0.1393341,0.004573222,1.5375,0.2206348,-0.1804889,1.65209,0.2131186,-0.4820916,1.6223,0.07424802,-0.008908044,1.592855,0.1378928,-0.4712994,1.591483,0.07621507,-0.2121096,1.480753,0.3248289,-0.1370764,1.395334,NA,NA,Unknown,Unknown,
0.6005859,-0.7607422,0.04541016,-0.15625,0.9135742,0.137207,1,0,1,1,3,-1,-3,-4,5,11,15,-10,1,12,-11,1,6.6875,6.6875,6.6875,29.3125,29.3125,29.3125,2.617119,4.022587,2.143248,7.309831,5.330712,5.452589,0.3117949,-0.3392315,1.427927,0.09577791,-0.03697543,1.453319,0.2320634,0.2378975,1.659297,0.2904833,-0.3803857,1.479934,0.148712,-0.006176412,1.531517,0.2206789,-0.1804864,1.652064,0.2131115,-0.4820237,1.622236,0.07412744,-0.008903608,1.593117,0.137857,-0.4712433,1.591513,0.0797196,-0.2110952,1.47912,0.3250593,-0.1356249,1.394287,NA,NA,Closed,Unknown,
0.5429688,-0.7993164,0.04833984,-0.1455078,1.069336,0.2636719,-1,-1,1,-3,0,-2,-2,-1,-43,-13,-12,-13,-10,-1,-1,-30,-9.125,-9.125,-9.125,1.375,1.375,1.375,2.601863,4.035554,2.155928,7.297178,5.244347,5.375792,0.309878,-0.3377891,1.430652,0.07808432,-0.06570809,1.447215,0.2319187,0.2379417,1.659798,0.2887112,-0.3784711,1.479615,0.1168394,-0.09575794,1.498611,0.2206939,-0.1803964,1.652106,0.2130022,-0.4815693,1.622161,0.07359546,-0.008694621,1.594003,0.1377808,-0.4709961,1.591517,0.08161681,-0.209858,1.478143,0.3252634,-0.135349,1.394047,NA,NA,Closed,Unknown,
0.5097656,-0.8442383,0.06201172,-0.1816406,1.123047,0.3549805,-1,0,-1,0,-1,1,3,1,0,-2,-2,-10,-3,0,-13,-27,1.8125,1.8125,1.8125,-15.125,-15.125,-15.125,2.591754,4.051715,2.171439,7.265676,5.180844,5.323502,0.3084197,-0.335139,1.428255,0.07781772,-0.08652328,1.431798,0.2317067,0.2377902,1.660801,0.2877238,-0.3764541,1.478856,0.115382,-0.04371642,1.503778,0.220791,-0.1802472,1.652265,0.2126742,-0.4807603,1.622272,0.07129006,-0.004876535,1.601882,0.1374829,-0.4699616,1.592315,0.08179257,-0.2028128,1.48014,0.3269372,-0.135363,1.393723,NA,NA,Closed,Unknown,
0.4755859,-0.8442383,0.07861328,-0.2172852,1.166504,0.2841797,-2,-2,-1,-1,-1,-1,-2,-1,57,4,1,30,4,13,11,39,9.5,9.5,9.5,-16.25,-16.25,-16.25,2.596157,4.063785,2.184433,7.232543,5.170759,5.299785,0.3067392,-0.3339986,1.426194,0.0787671,-0.09238243,1.430683,0.2316126,0.2377327,1.661288,0.287438,-0.3768689,1.477749,0.1191461,-0.04656845,1.504449,0.2208253,-0.1802162,1.652271,0.2125624,-0.4804873,1.622203,0.07072489,-0.004197921,1.603706,0.1373783,-0.4696149,1.592522,0.08889101,-0.1987838,1.477082,0.3294491,-0.1366693,1.394229,NA,NA,Closed,Unknown,
0.4760742,-0.8344727,0.08691406,-0.309082,1.016602,0.1635742,-3,-3,-5,-1,-1,-1,-2,-4,-10,-2,-3,-2,-1,0,-11,-7,5.8125,5.8125,5.8125,-1.4375,-1.4375,-1.4375,2.596976,4.065808,2.191005,7.222205,5.207919,5.293349,0.3268987,-0.3415178,1.407384,0.08214363,-0.09511983,1.434302,0.231528,0.2376129,1.662233,0.3083396,-0.3840583,1.472625,0.1235839,-0.05142879,1.48975,0.2208712,-0.1802002,1.652357,0.212494,-0.4803047,1.622245,0.07034695,-0.003503836,1.605382,0.1373316,-0.4693626,1.592736,0.1355845,-0.2136369,1.467723,0.3327028,-0.1387963,1.395306,NA,NA,Closed,Unknown,
0.5097656,-0.8364258,0.08251953,-0.2456055,0.9711914,0.06933594,-1,-2,1,0,-1,-1,-1,0,9,-3,-5,-3,-18,-3,25,45,-0.5,-0.5,-0.5,14.75,14.75,14.75,2.593948,4.064302,2.197899,7.240484,5.256127,5.281619,0.3126394,-0.3365284,1.417856,0.08408135,-0.09269557,1.438089,0.2313886,0.2375441,1.662736,0.2939418,-0.3780776,1.477377,0.1291311,-0.04749335,1.493778,0.2209049,-0.180195,1.6524,0.2124743,-0.480252,1.622229,0.07017846,-0.003868831,1.605315,0.1373138,-0.469265,1.592963,0.08139025,-0.1981155,1.477194,0.3359901,-0.1410536,1.396528,NA,NA,Unknown,Unknown,
0.5952148,-0.8564453,0.06298828,-0.1274414,0.9453125,0.1123047,0,0,-2,-4,-4,-6,-1,0,-6,-3,1,1,-5,-8,-5,-7,-16.3125,-16.3125,-16.3125,8,8,8,2.577029,4.057335,2.20527,7.252987,5.287246,5.260073,0.3113695,-0.3365339,1.41748,0.0838792,-0.09227376,1.44127,0.2313179,0.2375729,1.662873,0.2927572,-0.3784953,1.477641,0.1289797,-0.04380887,1.499006,0.2208953,-0.1801806,1.652424,0.2124321,-0.480157,1.622182,0.07010667,-0.003983779,1.605498,0.1372879,-0.469182,1.593012,0.08604337,-0.1975009,1.476734,0.3374524,-0.1420417,1.397111,NA,NA,Unknown,Unknown,
0.6064453,-0.8183594,0.03417969,0.03369141,0.8896484,0.1875,1,1,2,2,1,2,1,0,2,2,4,1,1,-1,8,4,3.375,3.375,3.375,1,1,1,2.563854,4.034391,2.199777,7.245432,5.322809,5.217947,0.304445,-0.3364132,1.422979,0.08575056,-0.08812287,1.442698,0.2308451,0.2370251,1.664592,0.2831326,-0.3743185,1.475691,0.1091599,-0.07730862,1.4864,0.2210449,-0.1801934,1.65275,0.2124513,-0.4800331,1.622151,0.06997312,-0.004285439,1.605771,0.1373286,-0.4690382,1.593106,0.08822633,-0.1981358,1.477924,0.340331,-0.1450754,1.399068,NA,NA,Unknown,Unknown,
0.6147461,-0.7631836,0.01611328,0.02197266,0.8740234,0.2041016,-1,-2,1,-1,-1,0,-1,-3,8,4,-5,-5,-1,-2,0,2,5.375,5.375,5.375,-3.375,-3.375,-3.375,2.564558,4.032381,2.206591,7.234234,5.350196,5.195029,0.301782,-0.3362719,1.424024,0.08927771,-0.08634084,1.444453,0.23089,0.2369463,1.664928,0.2816483,-0.3739654,1.47569,0.1341069,-0.1102491,1.489167,0.2211208,-0.1802037,1.653051,0.2125085,-0.4800137,1.622212,0.06992955,-0.004370301,1.605832,0.1373933,-0.4690129,1.593167,0.08576107,-0.1987887,1.478576,0.3452027,-0.1493021,1.402221,NA,NA,Unknown,Unknown,
0.6557617,-0.7270508,0.02539063,-0.06640625,0.8549805,0.2080078,-1,-1,-1,-3,-3,-1,-2,0,0,-2,1,2,3,-4,-3,-6,21.9375,21.9375,21.9375,-9.375,-9.375,-9.375,2.570605,4.037698,2.226898,7.209705,5.39631,5.15276,0.2993396,-0.3349824,1.421963,0.09557345,-0.0862037,1.445914,0.2308104,0.2369528,1.665047,0.280582,-0.3745999,1.474762,0.1480379,-0.03389021,1.493,0.2211615,-0.1801874,1.653125,0.2125257,-0.4800038,1.622211,0.06987602,-0.004569621,1.605753,0.1374227,-0.4690102,1.593177,0.08260617,-0.1998143,1.479508,0.3531452,-0.1562496,1.407866,NA,NA,Unknown,Unknown,
0.6582031,-0.7041016,0.05175781,-0.08398438,0.7568359,0.2070313,-1,-2,-2,-1,-2,0,1,-1,-6,-3,0,-2,-6,-3,2,-4,54.4375,54.4375,54.4375,5.1875,5.1875,5.1875,2.604678,4.049727,2.257212,7.189265,5.433871,5.083227,0.2965144,-0.333537,1.419862,0.104817,-0.08453021,1.440358,0.230774,0.2369855,1.665146,0.3044096,-0.2944576,1.487451,0.1381093,-0.1183553,1.489,0.2211735,-0.1801899,1.653172,0.2125354,-0.4800031,1.622218,0.06964277,-0.004811169,1.605906,0.1374616,-0.4690134,1.593205,0.07642765,-0.2017054,1.482,0.3589545,-0.1638924,1.414483,NA,NA,Unknown,Unknown,
0.6582031,-0.7041016,0.05175781,-0.08740234,0.7563477,0.2304688,2,-1,0,-2,-2,-2,-1,-1,1,5,5,2,-3,-8,-5,-2,54.4375,54.4375,54.4375,12.75,12.75,12.75,2.604678,4.049727,2.257212,7.180178,5.44506,5.034332,0.2803754,-0.3271093,1.422501,0.1255608,-0.07905325,1.426071,0.2307751,0.2369743,1.665169,0.2868989,-0.2842252,1.483091,0.1467852,-0.1271709,1.490714,0.2212542,-0.1802052,1.653253,0.2126227,-0.4800279,1.62226,0.06935299,-0.005020748,1.606266,0.1376426,-0.4690724,1.59341,0.06761478,-0.204085,1.486064,0.3685895,-0.1743819,1.425459,NA,NA,Closed,Unknown,
0.6264648,-0.6435547,0.1411133,-0.203125,0.7890625,0.2861328,2,-1,0,0,2,1,-1,0,-2,-3,-3,-2,3,3,-1,2,102.4375,102.4375,102.4375,37.9375,37.9375,37.9375,2.706531,4.085635,2.339153,7.173904,5.455451,4.916736,0.2715175,-0.327443,1.422981,0.140108,-0.0836554,1.422911,0.230647,0.2370328,1.66512,0.2816047,-0.2847222,1.482448,0.1523802,-0.04611029,1.497364,0.2212276,-0.1801608,1.653322,0.2126615,-0.4800286,1.622291,0.06897195,-0.005164583,1.607225,0.1377788,-0.4690941,1.593696,0.05081804,-0.2088902,1.497803,0.3825638,-0.187151,1.441711,NA,NA,Closed,Unknown,
0.6420898,-0.6904297,0.1489258,-0.2924805,0.8686523,0.3212891,-1,-3,-1,0,-2,0,1,-1,-1,-1,-2,-2,1,4,-3,0,103.0625,103.0625,103.0625,41.0625,41.0625,41.0625,2.780411,4.112596,2.422644,7.181818,5.419408,4.780225,0.2542409,-0.3265308,1.426109,0.1578637,-0.09470432,1.428524,0.2304662,0.237021,1.665037,0.2708357,-0.2852693,1.479886,0.1572979,-0.05770122,1.498059,0.2212684,-0.1801655,1.653352,0.2127384,-0.4800247,1.622365,0.0687125,-0.005413411,1.608593,0.138069,-0.4690814,1.594323,0.03795108,-0.2124531,1.510091,0.3965407,-0.1950974,1.455182,NA,NA,Unknown,Unknown,
0.5649414,-0.7114258,0.2255859,-0.324707,0.8979492,0.3530273,-3,-2,-5,-2,-2,-3,-2,-1,-1,-1,0,-1,0,2,0,0,103.875,103.875,103.875,21.4375,21.4375,21.4375,2.813681,4.122747,2.470151,7.174104,5.313629,4.629026,0.2415574,-0.3279187,1.425723,0.1626199,-0.108738,1.440255,0.2302563,0.2371788,1.664622,0.2615134,-0.2867579,1.477327,0.153932,-0.07356065,1.494234,0.2213168,-0.180192,1.653356,0.2128557,-0.4801,1.622415,0.06845669,-0.005504373,1.610139,0.1383203,-0.4692162,1.594668,0.02472198,-0.2148381,1.523893,0.4390416,-0.2053412,1.499833,NA,NA,Unknown,NotTracked,
0.5620117,-0.7880859,0.2749023,-0.324707,0.8979492,0.3530273,-2,-1,-2,1,4,5,0,1,-1,-1,0,-1,0,2,0,0,127.5625,127.5625,127.5625,21.4375,21.4375,21.4375,2.888153,4.130287,2.590029,7.174104,5.313629,4.629026,0.2103463,-0.3444211,1.41994,0.2053808,-0.1781543,1.421926,0.2291958,0.23801,1.662558,0.1868775,-0.3940791,1.46412,0.1855754,-0.2198537,1.474692,0.2214624,-0.1802387,1.653167,0.2129948,-0.4801759,1.622657,0.06616428,-0.002940048,1.623841,0.1388501,-0.4692165,1.595853,0.008835639,-0.2143183,1.555564,0.4473847,-0.2158298,1.510012,NA,NA,NotTracked,NotTracked,
0.4902344,-0.7626953,0.3530273,-0.1630859,0.8413086,0.2617188,1,-2,0,-1,2,1,0,-1,4,0,-1,-4,-6,-2,0,-2,130.6875,130.6875,130.6875,-1.0625,-1.0625,-1.0625,3.020277,4.055402,2.884447,7.146549,4.775255,4.250081,0.1601583,-0.3661579,1.435402,0.2777827,-0.2427775,1.446621,0.2283722,0.2388345,1.659623,0.1223207,-0.4164705,1.489375,0.2853876,-0.3151543,1.475548,0.2212625,-0.180307,1.65275,0.2128864,-0.4805892,1.622953,0.06573029,-0.004172879,1.623142,0.1387319,-0.4697149,1.596676,0.009493105,-0.2195915,1.573665,0.4565299,-0.219923,1.537998,NA,NA,NotTracked,NotTracked,
0.5063477,-0.7797852,0.3920898,-0.09765625,0.9111328,0.140625,1,0,0,1,-3,-2,-1,1,4,2,2,2,-2,-4,-3,4,121,121,121,25.4375,25.4375,25.4375,3.052935,3.979341,3.063355,7.201429,4.512947,4.088978,0.1432323,-0.3749631,1.44686,0.2852305,-0.30369,1.410359,0.2280026,0.239243,1.658368,0.102481,-0.4294512,1.483267,0.2445883,-0.3427842,1.460613,0.2210515,-0.1804146,1.65235,0.2126404,-0.4808813,1.622975,0.06316113,-0.004510659,1.629303,0.1383846,-0.4701892,1.596881,0.007412877,-0.2207438,1.584965,0.456264,-0.2211202,1.560313,NA,NA,NotTracked,NotTracked,
0.5444336,-0.7817383,0.3930664,0.2094727,1.048828,0.1069336,1,-1,-1,-3,-2,-3,-1,-2,0,1,-1,0,4,-2,1,-1,130.125,130.125,130.125,27.125,27.125,27.125,3.068034,3.936788,3.158428,7.305587,4.252625,3.91054,0.1243861,-0.3997936,1.447113,0.3059572,-0.3426076,1.436018,0.2274063,0.2397709,1.656141,0.1770748,-0.3835152,1.472853,0.2504453,-0.3345266,1.467169,0.2209058,-0.1806046,1.650756,0.2124322,-0.4814026,1.622117,0.06233963,-0.004838379,1.631025,0.1381208,-0.4707986,1.596186,0.003714192,-0.2218071,1.604474,0.4606102,-0.2185638,1.592909,NA,NA,NotTracked,NotTracked,
0.6191406,-0.7490234,0.3911133,0.3911133,1.068848,0.112793,-2,-3,-3,0,-2,-1,-2,-5,-5,-6,-7,-5,-5,-2,-4,-2,130,130,130,-21.1875,-21.1875,-21.1875,3.096166,3.844736,3.34537,7.381367,4.008123,3.745226,0.1059918,-0.4140565,1.460361,0.3293006,-0.3795315,1.448643,0.2272828,0.2399094,1.654673,0.1614406,-0.3971799,1.479671,0.3027756,-0.4112518,1.488649,0.2208735,-0.1805939,1.64931,0.2127462,-0.4818427,1.620861,0.06203264,-0.004890791,1.631817,0.138239,-0.4712707,1.59527,0.004314051,-0.2222695,1.615082,0.4620968,-0.2189507,1.607883,NA,NA,Unknown,NotTracked,
0.628418,-0.71875,0.3818359,0.4853516,1.008789,0.1318359,-2,0,-1,-1,-4,-3,-2,0,-16,-10,3,-3,4,6,25,4,118.6875,118.6875,118.6875,-41.3125,-41.3125,-41.3125,3.117496,3.681736,3.610581,7.407368,3.893211,3.664473,0.08359455,-0.4200184,1.478533,0.3551826,-0.4234086,1.459299,0.2270453,0.240131,1.653015,0.1270694,-0.4671496,1.496265,0.3157815,-0.4297889,1.497916,0.2215276,-0.1808853,1.647362,0.2140607,-0.4824183,1.619043,0.06188224,-0.005073645,1.632416,0.1390798,-0.471792,1.593803,0.005595543,-0.2226934,1.621803,0.4600555,-0.2212547,1.615918,NA,NA,Unknown,Closed,
0.6694336,-0.6489258,0.3764648,0.6289063,0.8676758,0.1079102,-1,0,3,1,3,0,-1,1,-4,-7,-10,-2,15,12,-2,-2,108.1875,108.1875,108.1875,-60,-60,-60,3.115454,3.623152,3.694669,7.45525,3.6861,3.500542,0.06894804,-0.4393867,1.489122,0.3872775,-0.4366108,1.445324,0.2266605,0.2402735,1.651235,0.1173036,-0.4660783,1.498421,0.4142106,-0.4480527,1.451875,0.2221668,-0.1809798,1.645854,0.2153049,-0.4828642,1.617654,0.06180993,-0.00515484,1.632509,0.1397648,-0.4722716,1.592666,0.007462925,-0.2230008,1.627291,0.4610836,-0.2254545,1.621168,NA,NA,Unknown,Closed,
0.7792969,-0.5546875,0.3383789,0.9086914,0.7983398,0.1049805,1,-1,-1,-1,-1,-5,-5,-3,-2,-2,-2,1,0,-3,0,1,78.875,78.875,78.875,-25.5625,-25.5625,-25.5625,3.079345,3.507933,3.865419,7.557913,3.506901,3.31598,0.02955923,-0.4502376,1.478081,0.4081608,-0.4473588,1.469058,0.2262942,0.2405732,1.649377,-0.003243439,-0.4653358,1.486222,0.4403025,-0.4691066,1.455762,0.2225525,-0.1810146,1.645136,0.2161561,-0.4830732,1.617324,0.06167816,-0.005291565,1.632618,0.1402984,-0.4724705,1.59241,0.008571479,-0.2258743,1.632015,0.4617305,-0.2304439,1.625967,NA,NA,Unknown,NotTracked,
0.809082,-0.5483398,0.293457,0.9707031,0.706543,0.0390625,-1,-2,-2,-5,-2,-1,-1,0,-6,-5,-7,1,-5,1,3,-2,58.25,58.25,58.25,-32.5625,-32.5625,-32.5625,3.044037,3.453295,3.949234,7.664489,3.381974,3.145324,0.01870201,-0.4601888,1.490817,0.41985,-0.468418,1.479805,0.225972,0.2407126,1.647855,-0.01782166,-0.4641744,1.507059,0.4571604,-0.4812246,1.462177,0.2228098,-0.1811822,1.644472,0.2167467,-0.483412,1.617167,0.06158255,-0.005592395,1.632588,0.140659,-0.4727865,1.592239,0.009354595,-0.2376221,1.634567,0.4610561,-0.2388091,1.628099,NA,NA,Closed,NotTracked,
0.9072266,-0.5639648,0.2700195,0.96875,0.5053711,-0.01416016,-2,0,-1,-3,-5,-1,1,0,2,3,2,0,2,0,-9,-2,18.375,18.375,18.375,-10.625,-10.625,-10.625,2.903894,3.310809,4.169512,7.822282,3.233721,2.932218,0.009666586,-0.4844511,1.529715,0.4375274,-0.5018635,1.511543,0.225676,0.2404515,1.644053,0.02724448,-0.4925365,1.487318,0.4757208,-0.5153375,1.487042,0.2231044,-0.1816203,1.643597,0.2172644,-0.4840805,1.617374,0.0615005,-0.006362818,1.632224,0.1409574,-0.4736921,1.592652,0.009892822,-0.2526732,1.637565,0.4575709,-0.2527848,1.62992,NA,NA,Unknown,Unknown,
0.9853516,-0.3833008,0.08105469,0.9277344,0.3911133,-0.07421875,-2,-2,-3,-3,-2,0,-5,-2,-2,-3,-3,-2,-1,0,0,-1,13.875,13.875,13.875,11.5625,11.5625,11.5625,2.742301,3.127467,4.432271,7.963988,3.136051,2.779905,0.01075179,-0.4897446,1.537768,0.4397689,-0.5068529,1.519951,0.2257851,0.2403409,1.642703,0.06486052,-0.438004,1.5314,0.4821396,-0.5145208,1.504583,0.2231009,-0.1817334,1.643466,0.2172272,-0.4844218,1.61779,0.06163555,-0.006689539,1.632053,0.140837,-0.4740551,1.593257,0.01045085,-0.2542065,1.637679,0.4562599,-0.2560986,1.630241,NA,NA,Unknown,Unknown,
1.001953,-0.3544922,0.06054688,0.9472656,0.3740234,-0.07910156,2,1,1,-1,-4,-7,-9,-2,-2,-1,-1,0,-7,-6,-2,-3,-5.375,-5.375,-5.375,29.5,29.5,29.5,2.708098,3.098823,4.466195,8.097565,3.079713,2.679249,0.01235673,-0.4977054,1.54801,0.4425277,-0.5155002,1.531813,0.2261211,0.2400822,1.641295,0.05610053,-0.4936967,1.531392,0.486565,-0.5154255,1.518923,0.2232162,-0.1819981,1.643292,0.2172117,-0.4851152,1.618797,0.06174324,-0.007053999,1.631743,0.1406985,-0.4747814,1.594407,0.01187045,-0.257073,1.637977,0.4542653,-0.2609427,1.630204,NA,NA,NotTracked,Unknown,
0.9975586,-0.3115234,0.0234375,0.9433594,0.3989258,-0.1113281,-3,-1,1,0,0,-1,-1,-1,-1,-1,-3,0,1,1,2,0,-70,-70,-70,14.5625,14.5625,14.5625,2.580245,3.040501,4.508389,8.154582,3.065507,2.639997,0.01388791,-0.4988007,1.55034,0.4399267,-0.5179216,1.535275,0.2264121,0.2398575,1.640525,0.05875342,-0.4880738,1.529487,0.4868182,-0.5154799,1.526692,0.2232903,-0.1820858,1.643292,0.2172272,-0.4853636,1.619465,0.06171359,-0.007118348,1.631806,0.1406917,-0.4750341,1.595124,0.01234793,-0.2578741,1.637874,0.453631,-0.261915,1.630497,NA,NA,NotTracked,Unknown,
0.9775391,-0.409668,0.006347656,0.9165039,0.3901367,-0.1289063,-2,1,1,-1,-1,-1,-2,-1,-2,-4,-1,0,0,0,-2,-3,-69.3125,-69.3125,-69.3125,-20.625,-20.625,-20.625,2.49715,3.032821,4.512062,8.155506,3.060734,2.624061,0.01398367,-0.4991052,1.550731,0.4385205,-0.5197225,1.538121,0.2265668,0.2396156,1.64011,0.06034954,-0.4893817,1.528823,0.4868723,-0.5197004,1.526786,0.2234617,-0.1823805,1.64333,0.2172473,-0.4856947,1.620018,0.06176375,-0.007200875,1.631781,0.1406641,-0.4753591,1.595804,0.01278817,-0.2583718,1.637911,0.4525587,-0.2631453,1.630613,NA,NA,NotTracked,Unknown,
0.9775391,-0.409668,0.006347656,0.9042969,0.3378906,-0.09228516,0,0,-1,0,-2,-1,-1,-3,0,-4,-2,-1,-1,-1,2,-1,-69.3125,-69.3125,-69.3125,-39.75,-39.75,-39.75,2.49715,3.032821,4.512062,8.117684,3.056254,2.619622,0.01469786,-0.5131965,1.546611,0.4373756,-0.5216641,1.54115,0.2266226,0.2394804,1.639864,0.05835434,-0.4917133,1.530402,0.4818304,-0.524519,1.515307,0.2236071,-0.1826102,1.643401,0.2172579,-0.4859957,1.620667,0.06179775,-0.007319776,1.631929,0.1406542,-0.4755855,1.596425,0.01324344,-0.2586129,1.638041,0.4516453,-0.2640127,1.631015,NA,NA,NotTracked,NotTracked,
0.9267578,-0.3427734,0.01025391,0.9125977,0.3149414,-0.1064453,-1,-4,-2,0,0,-1,0,-1,-3,-2,0,1,0,2,1,0,-46.625,-46.625,-46.625,-29.5,-29.5,-29.5,2.436651,3.046902,4.468154,8.094521,3.052819,2.603706,0.01506084,-0.5131414,1.543363,0.4368068,-0.5231061,1.542495,0.2267905,0.2392708,1.639706,0.06245503,-0.4724807,1.528941,0.4810104,-0.5069458,1.531926,0.2236819,-0.1827232,1.643433,0.2172751,-0.4861771,1.620921,0.06174506,-0.007566752,1.632103,0.1406574,-0.4757655,1.596686,0.01352451,-0.2586632,1.637899,0.4505092,-0.2653861,1.63141,NA,NA,NotTracked,NotTracked,
0.9267578,-0.3427734,0.01025391,0.9140625,0.3076172,-0.1323242,1,-1,0,0,0,-2,-2,0,-3,-1,0,-1,-2,-2,-2,1,-46.625,-46.625,-46.625,-18.6875,-18.6875,-18.6875,2.436651,3.046902,4.468154,8.096657,3.052692,2.590582,0.01622112,-0.5004774,1.542796,0.4322269,-0.5261276,1.544818,0.227177,0.2390033,1.639213,0.06035562,-0.4781412,1.530464,0.4803327,-0.5209383,1.531076,0.2241369,-0.1832039,1.643517,0.2175072,-0.4864975,1.621246,0.06173656,-0.007983745,1.632841,0.1409335,-0.4761144,1.597137,0.01472552,-0.2593127,1.63716,0.447879,-0.2672995,1.632475,NA,NA,NotTracked,NotTracked,
0.9316406,-0.3364258,-0.002929688,0.9238281,0.3217773,-0.1376953,-3,-4,-1,-2,-3,-3,-1,-1,-1,-2,1,-1,0,0,0,-1,-46.9375,-46.9375,-46.9375,-18.25,-18.25,-18.25,2.384862,3.052873,4.432446,8.110579,3.052197,2.551365,0.01653158,-0.5122977,1.539408,0.4308221,-0.5264871,1.546475,0.2272293,0.2389815,1.639181,0.05885032,-0.4932119,1.530971,0.472713,-0.5242497,1.52329,0.2242334,-0.1833724,1.643652,0.2175227,-0.4866526,1.621431,0.06187728,-0.008215639,1.633654,0.1409378,-0.4762757,1.597418,0.01529162,-0.2594489,1.636832,0.4466346,-0.2681696,1.633318,NA,NA,NotTracked,NotTracked,
0.9521484,-0.3149414,-0.046875,0.9082031,0.3276367,-0.1171875,-2,1,-2,-2,-1,-1,-1,-2,0,0,-3,-3,-2,3,3,-1,-30.5,-30.5,-30.5,-20.3125,-20.3125,-20.3125,2.331587,3.057483,4.395228,8.077675,3.058213,2.54776,0.01860737,-0.5117967,1.535859,0.4295809,-0.5276155,1.547936,0.227721,0.2384584,1.639274,0.05943986,-0.4960106,1.528761,0.4759104,-0.5226092,1.537613,0.2247076,-0.1837475,1.643962,0.2179945,-0.4869549,1.621696,0.06226318,-0.008584748,1.634361,0.1414347,-0.4766879,1.597799,0.01713842,-0.2600329,1.63602,0.4443884,-0.269154,1.634755,NA,NA,NotTracked,NotTracked,
0.9443359,-0.3339844,-0.05371094,0.9072266,0.3286133,-0.08691406,0,1,0,2,-1,-1,-1,-3,1,0,3,1,-2,-1,-1,-1,-26.3125,-26.3125,-26.3125,-17.75,-17.75,-17.75,2.320563,3.057959,4.391248,8.059815,3.06196,2.545427,0.01994871,-0.4997106,1.54066,0.4284305,-0.529762,1.548818,0.2279939,0.2382679,1.639352,0.06296091,-0.4752,1.531436,0.4746508,-0.5273828,1.532688,0.2249973,-0.1839792,1.644417,0.2183857,-0.4871645,1.622094,0.06256289,-0.008873558,1.634756,0.1417785,-0.4768891,1.598136,0.01803796,-0.2603849,1.635633,0.4433993,-0.2695149,1.635823,NA,NA,NotTracked,NotTracked,
0.9321289,-0.3457031,-0.06103516,0.9057617,0.3276367,-0.06591797,-1,-1,0,-1,-1,-2,-2,0,-1,-3,1,-1,-1,-1,0,-3,-7.6875,-7.6875,-7.6875,-16.0625,-16.0625,-16.0625,2.311168,3.057274,4.385817,8.046794,3.064674,2.537937,0.02018885,-0.5119916,1.537723,0.4297211,-0.5297726,1.550009,0.2282622,0.2381604,1.639457,0.0611302,-0.4993728,1.52765,0.4766541,-0.5214514,1.54176,0.2252467,-0.1841018,1.644683,0.2186332,-0.4872334,1.622329,0.06274441,-0.008810016,1.63556,0.141984,-0.4769805,1.598286,0.01858765,-0.2604765,1.635491,0.4426904,-0.2697195,1.637001,NA,NA,NotTracked,NotTracked,
0.9345703,-0.3432617,-0.04931641,0.9018555,0.3344727,-0.06689453,-3,-1,-1,-1,-1,1,-2,-1,-1,0,-2,-1,0,0,3,-4,0.375,0.375,0.375,-12.375,-12.375,-12.375,2.311127,3.055751,4.385509,8.038345,3.066231,2.53012,0.02041917,-0.5021907,1.539851,0.4296529,-0.5306179,1.549028,0.2285276,0.2380664,1.639478,0.06468841,-0.4758197,1.526949,0.4785116,-0.5170399,1.54725,0.2253968,-0.1842432,1.644766,0.218638,-0.4872931,1.622393,0.06300917,-0.008883478,1.635878,0.1419827,-0.477013,1.598312,0.01909311,-0.2605689,1.635002,0.4422484,-0.2699093,1.637614,NA,NA,NotTracked,NotTracked,
0.9345703,-0.3300781,-0.02246094,0.9038086,0.3305664,-0.07568359,-3,-1,-2,1,0,-1,-1,1,0,0,-2,1,0,-3,2,-1,9.5,9.5,9.5,-13.125,-13.125,-13.125,2.314435,3.047861,4.397062,8.039063,3.068063,2.513421,0.02034983,-0.503085,1.541209,0.4314751,-0.5308133,1.550252,0.2288683,0.2378217,1.639592,0.0629881,-0.4834651,1.528662,0.4784352,-0.520914,1.54243,0.2257828,-0.184372,1.645151,0.2189663,-0.4873835,1.622735,0.06320691,-0.008957066,1.63665,0.1422706,-0.4771167,1.598563,0.01937722,-0.2606229,1.634868,0.4417975,-0.2705075,1.638596,NA,NA,NotTracked,NotTracked,
0.9511719,-0.3095703,-0.01513672,0.9272461,0.3330078,-0.07958984,-2,-2,-1,-1,-2,-2,-2,-3,-2,0,-1,0,1,-1,-1,-2,3.8125,3.8125,3.8125,-15.0625,-15.0625,-15.0625,2.314591,3.041018,4.404734,8.034737,3.071306,2.499571,0.01978749,-0.5035948,1.542043,0.4319152,-0.5312468,1.55073,0.2299869,0.2371302,1.639842,0.06762425,-0.4631844,1.52872,0.477533,-0.51566,1.542891,0.2261688,-0.184752,1.645755,0.2192298,-0.4875587,1.623075,0.06355815,-0.009135867,1.637303,0.1424613,-0.4772647,1.598758,0.02018516,-0.2606513,1.634297,0.4409571,-0.2705551,1.64037,NA,NA,NotTracked,NotTracked,
0.9541016,-0.3061523,-0.01904297,0.9106445,0.3388672,-0.08251953,-3,-3,-3,-1,-1,-1,-2,0,-1,0,1,-1,3,5,0,-2,0.0625,0.0625,0.0625,-16.8125,-16.8125,-16.8125,2.31188,3.037927,4.407804,8.023533,3.074571,2.491642,0.01978496,-0.5034541,1.543026,0.4322035,-0.5312969,1.551942,0.2304645,0.236781,1.640103,0.06416654,-0.4830098,1.52931,0.4795919,-0.5229439,1.544073,0.2263594,-0.1848822,1.646146,0.2192887,-0.4876007,1.623243,0.06380183,-0.00910784,1.637791,0.1424996,-0.4772892,1.598838,0.02049025,-0.2607187,1.634219,0.4402626,-0.2709032,1.641405,NA,NA,NotTracked,NotTracked,
0.9541016,-0.3061523,-0.01904297,0.9106445,0.3388672,-0.08251953,0,-2,0,-1,-2,0,-3,0,1,-2,1,0,-1,0,0,0,0.0625,0.0625,0.0625,-16.8125,-16.8125,-16.8125,2.31188,3.037927,4.407804,8.023533,3.074571,2.491642,0.01834553,-0.5152222,1.540522,0.4327555,-0.5300636,1.553651,0.2308601,0.2365222,1.640365,0.06551135,-0.475026,1.528824,0.4796402,-0.5115602,1.554059,0.22656,-0.1850234,1.646518,0.2192635,-0.4875969,1.623437,0.06393241,-0.009153776,1.638165,0.1424785,-0.4772571,1.598995,0.02075682,-0.2608338,1.634224,0.4396914,-0.2713442,1.642408,NA,NA,NotTracked,NotTracked,
0.9453125,-0.315918,-0.04785156,0.9023438,0.3476563,-0.07861328,2,-2,0,0,-3,-1,-2,0,-2,-1,-1,0,-2,-4,-2,0,-9.5625,-9.5625,-9.5625,-18.25,-18.25,-18.25,2.285036,3.034509,4.410304,7.99071,3.088241,2.460242,0.0203635,-0.5040675,1.544161,0.4342109,-0.5307408,1.555741,0.2318289,0.2360308,1.641244,0.06460784,-0.4804592,1.530373,0.4787392,-0.5178326,1.545192,0.2269628,-0.1852571,1.647678,0.2193827,-0.487749,1.624289,0.06443885,-0.009236583,1.639497,0.1425483,-0.4773216,1.599586,0.02131626,-0.260735,1.634314,0.439018,-0.271572,1.643997,NA,NA,NotTracked,NotTracked,
0.9379883,-0.3188477,-0.04541016,0.9082031,0.3505859,-0.08398438,-1,-1,-1,-2,-2,-1,-1,-2,0,-2,-1,0,-4,-3,-1,1,-6.4375,-6.4375,-6.4375,-13.8125,-13.8125,-13.8125,2.277773,3.035802,4.409468,7.986213,3.092635,2.446385,0.02084519,-0.5040824,1.544283,0.4342172,-0.5305204,1.556478,0.2321907,0.2359658,1.641365,0.06429738,-0.4816566,1.53117,0.4805452,-0.5137898,1.556941,0.2272017,-0.1853467,1.648007,0.2194782,-0.4877511,1.624437,0.0645774,-0.009189788,1.639768,0.1426374,-0.4773249,1.599773,0.02142085,-0.260747,1.634313,0.4385838,-0.2718665,1.64479,NA,NA,NotTracked,NotTracked,
0.9379883,-0.3188477,-0.04541016,0.9082031,0.3505859,-0.08398438,-1,-1,-1,-2,-2,-1,-1,-2,0,-2,-1,0,-4,-3,-1,1,-6.4375,-6.4375,-6.4375,-13.8125,-13.8125,-13.8125,2.277773,3.035802,4.409468,7.986213,3.092635,2.446385,0.0207722,-0.5033167,1.544438,0.4349694,-0.5310685,1.557089,0.2327229,0.2355947,1.641831,0.06454194,-0.4854269,1.530798,0.4787008,-0.5231994,1.543043,0.227269,-0.1855,1.648445,0.2195239,-0.4878159,1.624739,0.06472421,-0.009244338,1.640144,0.1426855,-0.4774098,1.600146,0.0215614,-0.2607166,1.63443,0.4383318,-0.2720061,1.645546,NA,NA,NotTracked,NotTracked,
0.9384766,-0.3212891,-0.03662109,0.9077148,0.3505859,-0.08544922,0,-1,-1,-2,-3,0,-1,-4,2,-1,-2,1,-3,1,-1,-1,-3.9375,-3.9375,-3.9375,-11.6875,-11.6875,-11.6875,2.276774,3.03572,4.408081,7.987327,3.094871,2.437724,0.0205274,-0.5041652,1.545778,0.4359352,-0.5285168,1.559298,0.2329654,0.235448,1.642124,0.06822959,-0.4664846,1.532292,0.4829767,-0.5223761,1.551597,0.2273893,-0.1855995,1.648976,0.2195131,-0.4878898,1.625144,0.06480858,-0.009188507,1.640811,0.1426643,-0.4774645,1.600521,0.02173829,-0.2607344,1.634548,0.4381139,-0.2720364,1.646591,NA,NA,NotTracked,NotTracked,
0.9458008,-0.3164063,-0.02880859,0.9038086,0.3452148,-0.07373047,-2,-1,1,-2,-1,0,-2,-2,1,-1,-2,3,-2,3,-1,1,-2.8125,-2.8125,-2.8125,-7.5625,-7.5625,-7.5625,2.274907,3.03388,4.405936,7.989148,3.098359,2.424698,0.02030145,-0.5038128,1.545253,0.4369393,-0.5290329,1.559034,0.2331294,0.2353149,1.64236,0.06797405,-0.4669396,1.531915,0.4800613,-0.5183812,1.548017,0.2274519,-0.1856257,1.649236,0.2195092,-0.487879,1.625335,0.06485339,-0.009071825,1.641167,0.1426513,-0.4774579,1.600696,0.02180445,-0.2607442,1.634575,0.4379898,-0.2722151,1.646852,NA,NA,NotTracked,NotTracked,
0.9458008,-0.3164063,-0.02880859,0.90625,0.3500977,-0.07763672,-3,-1,-2,0,-1,-1,0,-1,1,-1,-2,-2,1,2,-2,-1,-2.8125,-2.8125,-2.8125,-1.5,-1.5,-1.5,2.274907,3.03388,4.405936,7.993681,3.100665,2.41485,0.02059636,-0.5040892,1.54582,0.4382954,-0.52916,1.560232,0.2335535,0.2351575,1.643009,0.06734979,-0.4706986,1.531693,0.4829638,-0.5265551,1.546208,0.2276477,-0.1856528,1.650031,0.2199296,-0.4879069,1.625905,0.06496638,-0.009134781,1.641829,0.1430248,-0.4775296,1.601228,0.02193324,-0.2605462,1.634697,0.4380005,-0.2723029,1.647541,NA,NA,NotTracked,NotTracked,
0.9487305,-0.3208008,-0.03027344,0.9033203,0.3417969,-0.08007813,0,-2,-2,0,0,-1,-1,-4,1,0,0,0,-1,0,2,0,-3.3125,-3.3125,-3.3125,4,4,4,2.273762,3.033977,4.402006,8.006064,3.102122,2.403898,0.02159789,-0.5043399,1.545065,0.4379029,-0.5297345,1.559351,0.2337516,0.2349397,1.643412,0.06518575,-0.481772,1.532275,0.481751,-0.5170881,1.549928,0.2277947,-0.1857252,1.650414,0.2201552,-0.4879129,1.626247,0.06504692,-0.008904133,1.642381,0.1432455,-0.4775619,1.601625,0.02212901,-0.2603969,1.63481,0.4380089,-0.2723977,1.648081,NA,NA,NotTracked,NotTracked,
0.9418945,-0.3242188,-0.02685547,0.9008789,0.3427734,-0.08251953,-1,-1,-1,0,-1,0,-1,-2,0,-1,1,-4,2,1,0,-2,-2.5625,-2.5625,-2.5625,7.625,7.625,7.625,2.275255,3.036304,4.395608,8.018076,3.104721,2.398194,0.02111152,-0.504369,1.546048,0.4388639,-0.5300936,1.560575,0.2339245,0.2350262,1.643967,0.06763661,-0.4690303,1.533583,0.4840807,-0.5293603,1.545042,0.2278972,-0.1856994,1.651091,0.2202329,-0.4878469,1.626654,0.06506335,-0.008814704,1.642985,0.1433073,-0.4775133,1.601998,0.02254612,-0.2599602,1.635218,0.4379436,-0.2725244,1.648528,NA,NA,NotTracked,NotTracked,
0.9399414,-0.3251953,-0.04003906,0.8999023,0.3417969,-0.09423828,-2,-2,0,0,-2,0,0,-1,-3,0,-3,-1,-3,-5,-2,-1,-0.75,-0.75,-0.75,10.5625,10.5625,10.5625,2.276435,3.039335,4.392885,8.048025,3.10671,2.388616,0.02171366,-0.5136911,1.543728,0.4394521,-0.5282263,1.560853,0.2342416,0.2348503,1.644874,0.06345908,-0.4942694,1.534617,0.4879349,-0.5214183,1.554667,0.2281868,-0.1857904,1.652179,0.2207537,-0.4879381,1.627533,0.06517971,-0.008845996,1.643712,0.143785,-0.4776863,1.602776,0.02305983,-0.2598985,1.635515,0.4381379,-0.2725584,1.649524,NA,NA,NotTracked,Unknown,
0.9443359,-0.324707,-0.03076172,0.8999023,0.3461914,-0.09716797,-2,-2,-1,-1,0,-2,0,-1,0,0,-1,-2,-6,-2,-1,-2,-0.625,-0.625,-0.625,10.25,10.25,10.25,2.277555,3.039358,4.391733,8.055368,3.108056,2.386402,0.02220064,-0.5135834,1.544142,0.4414898,-0.530589,1.559515,0.2347403,0.2346964,1.646348,0.0635287,-0.4962963,1.536144,0.4875787,-0.5243195,1.549541,0.228325,-0.1858122,1.6529,0.2210179,-0.4879393,1.628155,0.06529096,-0.008890443,1.644521,0.1440522,-0.4777277,1.603624,0.02357107,-0.2595377,1.636021,0.4383229,-0.2723649,1.650089,NA,NA,NotTracked,Unknown,
0.9472656,-0.3193359,-0.02490234,0.8984375,0.3461914,-0.1069336,-4,-1,-1,1,-2,0,1,-4,0,-1,-1,-1,1,1,-2,0,-2.5,-2.5,-2.5,8.125,8.125,8.125,2.281663,3.038038,4.385959,8.077513,3.112433,2.378096,0.02270352,-0.5140825,1.545772,0.4423448,-0.5296956,1.56125,0.2348796,0.2348054,1.646898,0.06433036,-0.4941757,1.536618,0.4861193,-0.5193216,1.552146,0.228464,-0.1858278,1.653423,0.2211588,-0.4879952,1.628683,0.06542351,-0.008895427,1.645092,0.1441862,-0.4777485,1.604087,0.02387404,-0.2594876,1.63631,0.4384992,-0.2722227,1.650551,NA,NA,NotTracked,Unknown,
0.9462891,-0.3173828,-0.02392578,0.8969727,0.3447266,-0.1074219,3,0,0,-2,-2,-1,-2,-1,-1,1,-2,-1,-1,1,-1,0,-3.5625,-3.5625,-3.5625,3.1875,3.1875,3.1875,2.283204,3.037318,4.382361,8.087997,3.115108,2.371461,0.0241897,-0.5046341,1.546948,0.4431983,-0.5294204,1.559486,0.2351055,0.2347327,1.647452,0.07162719,-0.4584164,1.536684,0.4877663,-0.5202042,1.550743,0.228606,-0.1858085,1.653807,0.2213114,-0.4880044,1.628902,0.06546804,-0.008904486,1.645373,0.1443328,-0.4777713,1.604286,0.02423133,-0.2592901,1.636595,0.4386482,-0.2720582,1.650808,NA,NA,NotTracked,Unknown,
0.9428711,-0.3217773,-0.03662109,0.8974609,0.34375,-0.09863281,-3,-1,-3,-1,-2,-2,0,0,-2,0,0,-2,-1,2,-2,0,-6.3125,-6.3125,-6.3125,0.875,0.875,0.875,2.279947,3.035769,4.376093,8.093145,3.117639,2.366545,0.02493849,-0.5045076,1.546854,0.4440649,-0.526117,1.560499,0.2351531,0.2347441,1.647591,0.06860017,-0.4728131,1.537246,0.4869831,-0.52313,1.540545,0.2288767,-0.1857944,1.654249,0.2215292,-0.487941,1.629124,0.06564268,-0.008826378,1.645657,0.1445729,-0.4777111,1.60455,0.02444625,-0.2593051,1.636791,0.4388134,-0.2719496,1.650937,NA,NA,NotTracked,Unknown,
0.9428711,-0.3217773,-0.03662109,0.8969727,0.3447266,-0.1005859,-1,-1,-3,-3,-2,-1,-1,0,-3,-1,1,0,-2,-2,-2,2,-6.3125,-6.3125,-6.3125,0.1875,0.1875,0.1875,2.279947,3.035769,4.376093,8.096096,3.118899,2.362919,0.02381852,-0.5134262,1.545891,0.4458871,-0.5281396,1.56023,0.2353004,0.2346545,1.648185,0.06588858,-0.4992555,1.536666,0.489219,-0.5243893,1.541815,0.2290047,-0.1857975,1.65448,0.2219009,-0.487956,1.629418,0.06571124,-0.008858349,1.646007,0.1449434,-0.4777413,1.604819,0.02487909,-0.2594034,1.637148,0.4391278,-0.2718608,1.651182,NA,NA,NotTracked,Unknown,
0.9492188,-0.3237305,-0.04199219,0.8974609,0.3442383,-0.1083984,-1,-2,-2,-1,-1,-1,-1,-1,1,-2,0,-1,-3,3,0,0,-5.875,-5.875,-5.875,-0.6875,-0.6875,-0.6875,2.27318,3.034844,4.375911,8.101471,3.12083,2.355505,0.02595263,-0.5063705,1.546338,0.4452696,-0.5263477,1.559487,0.2355502,0.2344517,1.648555,0.06835952,-0.4822478,1.536713,0.4924338,-0.5183398,1.552024,0.2291159,-0.185769,1.654643,0.2220834,-0.4879171,1.629558,0.06580146,-0.008864258,1.646184,0.1450969,-0.4777081,1.604938,0.02523961,-0.2595412,1.637154,0.4393983,-0.2717509,1.651301,NA,NA,NotTracked,Unknown,
0.9433594,-0.3271484,-0.04443359,0.8994141,0.3413086,-0.1054688,-3,-1,-2,-3,-2,-3,0,-2,-2,0,-1,-1,-1,1,-1,-2,-2.8125,-2.8125,-2.8125,-1.0625,-1.0625,-1.0625,2.2666,3.034182,4.376474,8.1051,3.120918,2.349429,0.02613875,-0.506588,1.54714,0.4455868,-0.5270267,1.559986,0.2357082,0.2344581,1.648888,0.06746697,-0.4866214,1.536766,0.4921162,-0.5147737,1.554462,0.2293282,-0.1857812,1.654911,0.2224978,-0.487894,1.62981,0.0659571,-0.008840647,1.646478,0.1455395,-0.477711,1.605237,0.02579598,-0.259563,1.637495,0.4396554,-0.2716728,1.651405,NA,NA,NotTracked,Unknown,
0.9433594,-0.3271484,-0.04443359,0.8994141,0.3413086,-0.1054688,-3,-1,-2,-3,-2,-3,0,-2,-2,0,-1,-1,-1,1,-1,-2,-2.8125,-2.8125,-2.8125,-1.0625,-1.0625,-1.0625,2.2666,3.034182,4.376474,8.1051,3.120918,2.349429,0.02668579,-0.5074469,1.54804,0.4460724,-0.5292607,1.560479,0.2357724,0.2344903,1.6494,0.06823047,-0.4839101,1.538549,0.4893354,-0.519124,1.549243,0.2296753,-0.1857264,1.655182,0.2229631,-0.4878389,1.630149,0.06605905,-0.008912419,1.646724,0.1459555,-0.4777069,1.60554,0.02624218,-0.2598117,1.637668,0.4399859,-0.2715305,1.651721,NA,NA,NotTracked,Unknown,
0.9404297,-0.3295898,-0.04736328,0.8994141,0.3408203,-0.09716797,1,-2,-1,-2,-1,-1,0,-1,-1,0,-2,0,-1,-2,-2,0,-1.9375,-1.9375,-1.9375,0,0,0,2.264382,3.034236,4.378081,8.1073,3.121184,2.345561,0.0270815,-0.5066582,1.546715,0.4476719,-0.5278852,1.560718,0.2358869,0.2344528,1.649672,0.06823301,-0.4832223,1.537991,0.4917953,-0.5077697,1.553857,0.2298138,-0.185661,1.655372,0.2232781,-0.4877802,1.630423,0.0664077,-0.008908612,1.646735,0.1462753,-0.4776821,1.605802,0.02656927,-0.2599798,1.6378,0.4403618,-0.2714087,1.6519,NA,NA,NotTracked,Unknown,
0.9453125,-0.3193359,-0.04101563,0.8979492,0.3442383,-0.1083984,-3,-3,-5,-3,-2,-2,0,2,0,-1,1,-1,0,3,0,-1,0.25,0.25,0.25,2.0625,2.0625,2.0625,2.258962,3.033216,4.383848,8.109151,3.121399,2.344158,0.02708054,-0.5070484,1.548308,0.4495737,-0.528692,1.560592,0.2361332,0.234495,1.650421,0.06850722,-0.4849001,1.539668,0.4928617,-0.5205827,1.549299,0.2302885,-0.1854916,1.655972,0.2240391,-0.4876444,1.631019,0.06675687,-0.008899162,1.647176,0.1470595,-0.4776867,1.606452,0.02729434,-0.2600805,1.638061,0.4410044,-0.2710662,1.65239,NA,NA,NotTracked,Unknown,
