ALX,ALY,ALZ,ARX,ARY,ARZ,EMG0L,EMG1L,EMG2L,EMG3L,EMG4L,EMG5L,EMG6L,EMG7L,EMG0R,EMG1R,EMG2R,EMG3R,EMG4R,EMG5R,EMG6R,EMG7R,GLX,GLY,GLZ,GRX,GRY,GRZ,ORL,OPL,OYL,ORR,OPR,OYR,LHNX,LHNY,LHNZ,RHNX,RHNY,RHNZ,HX,HY,HZ,LTX,LTY,LTZ,RTX,RTY,RTZ,SpineMidX,SpineMidY,SpineMidZ,SpineBaseX,SpineBaseY,SpineBaseZ,ShoulderLeftX,ShoulderLeftY,ShoulderLeftZ,ShoulderRightX,ShoulderRightY,ShoulderRightZ,ElbowLeftX,ElbowLeftY,ElbowLeftZ,ElbowRightX,ElbowRightY,ElbowRightZ,Myo_Pose_left,Myo_Pose_Right,Kinect_pose_left,Kinect_pose_right
0.9082031,-0.4125977,-0.09130859,-0.5390625,1.072266,0.1674805,-2,-2,0,-1,-1,0,-1,1,11,-1,-4,-2,-4,5,40,41,-23.3125,-23.3125,-23.3125,-56.0625,-56.0625,-56.0625,2.034872,3.164987,3.427464,7.256004,5.458525,3.86337,-0.03410063,-0.4958396,1.472336,0.02692694,-0.07500539,1.495332,0.1515376,0.2420991,1.649019,-0.001504159,-0.4706141,1.5,0.06077526,-0.03530875,1.52126,0.1569791,-0.1803344,1.643169,0.1548903,-0.4814898,1.615014,-0.01542338,-0.003068871,1.626916,0.08014223,-0.4742356,1.594216,-0.02945968,-0.2436549,1.578345,0.2793579,-0.1793136,1.431235,NA,NA,Unknown,Unknown,
0.9208984,-0.3999023,-0.0859375,-0.3535156,1.229492,0.175293,-2,-1,-2,-1,-1,-2,1,-1,15,-2,-9,-10,-3,6,14,18,-42.4375,-42.4375,-42.4375,-128.5625,-128.5625,-128.5625,2.006957,3.169295,3.398023,7.159024,5.496519,3.957057,-0.03370703,-0.4943262,1.471489,0.002824319,-0.04909734,1.501957,0.1515201,0.2420741,1.649067,-0.005954389,-0.5012083,1.439418,0.046584,-0.01743597,1.543106,0.1569419,-0.1802848,1.643134,0.1548812,-0.4813913,1.614956,-0.01484868,-0.002950015,1.625894,0.08013538,-0.4741463,1.594282,-0.02951035,-0.2445628,1.577678,0.2622353,-0.1687556,1.421595,NA,NA,Unknown,Unknown,
0.9233398,-0.3867188,-0.1040039,-0.04101563,0.7133789,0.2001953,2,-1,-1,-2,-1,-1,-2,-1,22,3,-1,0,6,17,25,15,-51.75,-51.75,-51.75,-119.1875,-119.1875,-119.1875,1.989702,3.170357,3.385879,7.038625,5.540092,4.007185,-0.0321384,-0.4952823,1.469132,-0.01659115,-0.0395775,1.502765,0.1515438,0.2420471,1.649114,-0.005931409,-0.5010577,1.438512,0.02963736,-0.01332857,1.5485,0.1568546,-0.1802703,1.643137,0.1548677,-0.4813667,1.61492,-0.01396724,-0.002865348,1.624658,0.08010885,-0.4741209,1.594393,-0.02946559,-0.2445499,1.5776,0.2528024,-0.1651346,1.419796,NA,NA,Closed,Unknown,
0.9257813,-0.371582,-0.1328125,0.046875,0.5478516,0.375,2,2,-1,-3,-1,1,0,0,-7,-2,-3,-6,-14,-8,16,1,-62.4375,-62.4375,-62.4375,-89.375,-89.375,-89.375,1.950236,3.174094,3.354812,6.989421,5.537149,4.02867,-0.02955111,-0.4940177,1.466875,-0.03428338,-0.02988233,1.507635,0.1515932,0.2420104,1.649232,0.005927906,-0.4825528,1.488182,0.003853373,-0.0006348424,1.553833,0.1568129,-0.1801966,1.643105,0.1548607,-0.4812947,1.614833,-0.01350373,-0.002784405,1.624138,0.08008562,-0.4740658,1.594489,-0.0293728,-0.2436542,1.576703,0.2413217,-0.1586338,1.41612,NA,NA,Closed,Closed,
0.9316406,-0.355957,-0.1533203,-0.09179688,0.7207031,0.4487305,-2,-1,-3,-1,-1,-2,-2,0,-10,-7,2,-3,0,7,5,-3,-60.4375,-60.4375,-60.4375,26.75,26.75,26.75,1.909675,3.177908,3.324206,6.985271,5.515078,4.070779,-0.02694647,-0.4920148,1.463366,-0.03502215,-0.02685479,1.510649,0.1516,0.2420058,1.649245,0.006327519,-0.4651099,1.490067,0.002022528,0.003494358,1.556211,0.1587595,-0.1801627,1.641912,0.1550411,-0.4810503,1.614536,-0.01297974,-0.002860825,1.623427,0.08014347,-0.4739856,1.594509,-0.02915956,-0.2450114,1.574514,0.2257332,-0.149181,1.412879,NA,NA,Unknown,Closed,
0.9257813,-0.3520508,-0.1694336,-0.1313477,0.7856445,0.2421875,0,-2,3,0,0,-4,0,-1,-1,11,9,15,6,5,6,-30,-52.5625,-52.5625,-52.5625,62.875,62.875,62.875,1.872975,3.181229,3.296174,7.05478,5.494002,4.090859,-0.02485824,-0.4915413,1.46272,-0.02814309,-0.02874822,1.504762,0.1515805,0.2419666,1.649312,0.009037424,-0.4733854,1.485655,0.008841561,-0.001918705,1.55223,0.15868,-0.1800534,1.641871,0.1553346,-0.4809014,1.614367,-0.01275586,-0.002837832,1.623264,0.0803284,-0.4739559,1.594568,-0.02882547,-0.2426685,1.573733,0.2164101,-0.1420319,1.410727,NA,NA,Unknown,Unknown,
0.9169922,-0.3549805,-0.1655273,-0.1210938,0.949707,0.2104492,0,-3,-2,-1,0,0,0,-3,-1,-2,-8,-33,-50,-47,-18,-11,-44.8125,-44.8125,-44.8125,3.75,3.75,3.75,1.859795,3.181509,3.282744,7.085753,5.439788,4.105386,-0.02238728,-0.4900629,1.459956,-0.03999563,-0.02567676,1.509698,0.1515796,0.2419852,1.649326,0.0124172,-0.4734026,1.47995,-0.0037608,0.004117733,1.558857,0.158447,-0.1797653,1.641812,0.1554918,-0.4805977,1.614124,-0.01261052,-0.002691248,1.623159,0.08040223,-0.4738325,1.594591,-0.029446,-0.2372337,1.573802,0.2093025,-0.1356434,1.408848,NA,NA,Unknown,Unknown,
0.8935547,-0.3510742,-0.1796875,-0.215332,0.6621094,0.168457,1,-4,-3,-3,-2,-1,0,-1,26,12,15,30,4,-10,20,53,-44.5,-44.5,-44.5,39.5625,39.5625,39.5625,1.766279,3.157633,3.253191,7.097029,5.313606,4.103247,-0.01831737,-0.4911419,1.45988,-0.03981846,-0.04502418,1.505805,0.1514254,0.2419356,1.64923,0.01435417,-0.4755383,1.479777,-0.004360966,-0.009898384,1.556714,0.157885,-0.1791867,1.641208,0.1561256,-0.4799251,1.613028,-0.0127158,-0.001879885,1.620023,0.08073626,-0.4737028,1.594294,-0.02868397,-0.2382596,1.571082,0.1967189,-0.1307738,1.405529,NA,NA,Unknown,Closed,
0.9145508,-0.3618164,-0.1782227,-0.01025391,0.8452148,0.08398438,-1,-1,-1,0,-3,-3,-4,-2,56,14,-4,-14,1,-8,-20,18,-31.6875,-31.6875,-31.6875,46.75,46.75,46.75,1.74273,3.146312,3.235627,7.1517,5.233606,4.073246,-0.01832054,-0.4913952,1.462887,-0.03379771,-0.05667618,1.498601,0.1513802,0.2419116,1.649223,0.01744272,-0.4806842,1.475857,0.007843636,-0.02424255,1.547739,0.1575823,-0.1788777,1.641021,0.1562565,-0.4793999,1.612787,-0.0130056,-0.001337284,1.619324,0.08083369,-0.473507,1.594232,-0.02785515,-0.2371663,1.570571,0.1942734,-0.1296166,1.405332,NA,NA,Unknown,Closed,
0.9179688,-0.3623047,-0.1918945,0.03515625,1.051758,0.2314453,-1,0,-1,-1,-1,-1,0,-3,-37,-12,-12,-49,-19,-12,-43,-54,-0.6875,-0.6875,-0.6875,9,9,9,1.745026,3.142019,3.221779,7.170266,5.142655,4.033005,-0.01745218,-0.4908703,1.462398,-0.03365178,-0.06597646,1.494476,0.1511414,0.2419192,1.64914,0.01774273,-0.4804071,1.472625,0.004828965,-0.03050553,1.547784,0.1591303,-0.1788096,1.639938,0.1563832,-0.4791242,1.612474,-0.0128894,-0.0009168263,1.619743,0.08091334,-0.4734026,1.594152,-0.02758209,-0.2370637,1.570102,0.1929072,-0.126981,1.40466,NA,NA,Unknown,Unknown,
0.9165039,-0.3427734,-0.1879883,-0.1088867,0.9594727,0.2358398,-2,-2,-6,-3,-3,-1,2,0,15,3,-2,-9,-9,9,-2,-4,26.4375,26.4375,26.4375,2.9375,2.9375,2.9375,1.767961,3.145952,3.221242,7.164447,5.07035,3.985569,-0.01624417,-0.4908402,1.463466,-0.0640094,-0.09118113,1.496977,0.1509301,0.2419422,1.6491,0.01489809,-0.4770257,1.477505,-0.03353883,-0.09821142,1.54875,0.1587821,-0.1785463,1.639709,0.1563532,-0.4787933,1.612191,-0.01279303,-0.0003163411,1.620389,0.08091727,-0.4731958,1.594023,-0.02740903,-0.23605,1.569808,0.1920659,-0.1263017,1.404886,NA,NA,Unknown,Unknown,
0.9155273,-0.3720703,-0.1606445,-0.002441406,1.169922,0.3212891,0,1,0,-1,0,-1,-1,1,-25,-5,-2,2,4,7,-1,-12,66,66,66,-18.6875,-18.6875,-18.6875,1.861561,3.152257,3.217553,7.142305,4.976894,3.924948,-0.01734953,-0.4920161,1.462593,-0.02809352,-0.10843,1.473469,0.1500321,0.2424152,1.64854,0.01560433,-0.474459,1.48225,0.0335172,-0.07130533,1.512514,0.1585941,-0.1776677,1.638984,0.1564218,-0.4775027,1.611776,-0.01377414,0.003256957,1.62347,0.08142014,-0.4723079,1.594014,-0.03157412,-0.2291346,1.559174,0.1925032,-0.1362834,1.404385,NA,NA,Unknown,Unknown,
0.9140625,-0.3828125,-0.1010742,-0.03955078,1.04834,0.2670898,-2,-1,-1,-1,3,2,-1,-1,3,5,-3,-6,-7,-3,1,0,57.0625,57.0625,57.0625,-16.0625,-16.0625,-16.0625,1.97658,3.155141,3.204628,7.120081,4.990299,3.916167,-0.01777074,-0.492928,1.463891,-0.02446215,-0.1088905,1.474531,0.1494363,0.2425633,1.648057,0.01178362,-0.4963566,1.43582,0.03453778,-0.07290066,1.512338,0.1583116,-0.177416,1.638922,0.1564626,-0.477178,1.611773,-0.01369567,0.003250412,1.623813,0.08158897,-0.4720511,1.594098,-0.03226871,-0.2284831,1.558239,0.193709,-0.1382748,1.404909,NA,NA,Unknown,Unknown,
0.918457,-0.3833008,-0.08691406,-0.009277344,0.9453125,0.1757813,0,-1,1,-2,-2,-2,0,0,-9,3,1,4,2,4,-12,-18,50,50,50,2.625,2.625,2.625,2.012259,3.155747,3.196546,7.125134,5.042079,3.884692,-0.01722532,-0.4922553,1.46288,-0.0255091,-0.1075124,1.474214,0.1491411,0.242771,1.647574,0.01135032,-0.4968081,1.434171,0.03444735,-0.06237744,1.511845,0.158012,-0.1770991,1.638603,0.1565709,-0.4768087,1.611594,-0.0136729,0.003271881,1.624027,0.08184181,-0.4717315,1.593968,-0.032749,-0.2298707,1.556892,0.1985353,-0.1417497,1.404564,NA,NA,Unknown,Unknown,
0.9345703,-0.3803711,-0.1005859,0.09472656,0.9614258,0.2480469,-1,-3,-3,-4,-3,-2,-1,2,-3,-10,-5,0,1,2,3,1,26.8125,26.8125,26.8125,-8.6875,-8.6875,-8.6875,2.083754,3.158681,3.179161,7.11755,5.075068,3.836488,-0.0167628,-0.4919283,1.464521,-0.0660421,-0.112157,1.484172,0.1486239,0.24286,1.647035,0.01525514,-0.46865,1.482999,-0.05801707,-0.09234376,1.522176,0.1588641,-0.1770666,1.63817,0.1566646,-0.4765315,1.611495,-0.01360386,0.003260447,1.624332,0.08210716,-0.4715269,1.593915,-0.03339545,-0.2304825,1.556682,0.2064492,-0.1494297,1.408451,NA,NA,Unknown,Unknown,
0.9262695,-0.3779297,-0.09716797,0.2631836,0.7651367,0.2353516,0,1,-1,0,-2,-3,-1,-1,-5,-5,-9,-2,-4,1,4,0,23.5,23.5,23.5,-10.375,-10.375,-10.375,2.155136,3.162035,3.144175,7.090702,5.136927,3.749535,-0.01529701,-0.4907607,1.46289,-0.06674115,-0.1077387,1.479812,0.1483611,0.2429311,1.646505,0.01899077,-0.478289,1.478636,-0.05851534,-0.08069899,1.501313,0.1585339,-0.1769339,1.638004,0.156623,-0.4763614,1.611447,-0.01462864,0.004474401,1.624384,0.08214112,-0.471339,1.593911,-0.03347792,-0.2305444,1.556667,0.2094098,-0.1518362,1.409407,NA,NA,Unknown,Unknown,
0.9321289,-0.371582,-0.08105469,0.2915039,0.7924805,0.2661133,0,-2,-1,-1,-3,-2,-3,-2,1,-1,-2,0,1,4,3,0,18.4375,18.4375,18.4375,-15.0625,-15.0625,-15.0625,2.179933,3.162444,3.127424,7.076921,5.157049,3.713869,-0.014779,-0.4914526,1.464033,-0.06576297,-0.103366,1.475189,0.1481396,0.2429452,1.646279,0.01932143,-0.4769192,1.473893,-0.0928717,-0.08459508,1.4872,0.1580666,-0.1767007,1.63788,0.1566491,-0.4759057,1.611383,-0.01543923,0.005548104,1.624423,0.08229637,-0.4708782,1.593822,-0.03370836,-0.2307394,1.556797,0.2137298,-0.1562761,1.412958,NA,NA,Unknown,Unknown,
0.9145508,-0.394043,-0.0703125,-0.01660156,0.7963867,0.371582,0,0,1,0,-1,-2,0,0,1,4,-2,-6,-2,-1,-1,-3,18.5,18.5,18.5,-22.625,-22.625,-22.625,2.268486,3.183039,3.066277,6.998747,5.249175,3.505164,-0.01199886,-0.4877898,1.462344,0.02796058,-0.0929043,1.451946,0.1473826,0.2436027,1.645575,0.01578599,-0.4941345,1.430848,-0.01254711,-0.1097377,1.407699,0.1576531,-0.1764833,1.637817,0.1569099,-0.4755641,1.611366,-0.01593479,0.005554568,1.624693,0.08281827,-0.4704494,1.593722,-0.03533367,-0.2375571,1.565902,0.2609988,-0.1896368,1.445026,NA,NA,Closed,Unknown,
0.9052734,-0.4160156,-0.04882813,-0.005859375,0.737793,0.4458008,1,0,-1,-2,-2,0,-1,2,-2,-3,-6,-16,-5,1,-1,1,41.3125,41.3125,41.3125,1.4375,1.4375,1.4375,2.333393,3.196028,3.036731,6.959756,5.28787,3.329189,-0.01232453,-0.4878101,1.461331,0.03186649,-0.0979863,1.444318,0.146962,0.2438311,1.645381,0.02183328,-0.4746272,1.476905,0.004020978,-0.1177041,1.396389,0.1574859,-0.1763743,1.637861,0.1568948,-0.4755604,1.611364,-0.01789597,0.004952624,1.625487,0.08282106,-0.4704446,1.593724,-0.03631963,-0.2390988,1.568729,0.302634,-0.1948889,1.461022,NA,NA,Closed,Unknown,
0.9047852,-0.4238281,-0.03466797,-0.2148438,0.7392578,0.5043945,-3,-1,0,-1,1,1,-1,-1,2,3,6,11,8,0,-2,-1,68.125,68.125,68.125,41.9375,41.9375,41.9375,2.415859,3.207417,3.022079,6.955523,5.285799,3.134951,-0.01372921,-0.4874903,1.462004,0.04864476,-0.111644,1.427861,0.1466759,0.2438665,1.645245,0.02146808,-0.4741218,1.478547,0.02764359,-0.1272784,1.380806,0.1572585,-0.1763836,1.637846,0.1568609,-0.4756008,1.611367,-0.01916864,0.003388883,1.626315,0.0828207,-0.4704978,1.593696,-0.03763374,-0.2394654,1.571863,0.3121386,-0.1963875,1.469026,NA,NA,Unknown,Unknown,
0.8959961,-0.4101563,-0.01367188,-0.2451172,0.8710938,0.5454102,0,-1,-2,-3,-1,-1,-2,-1,0,3,0,2,-1,1,-1,0,86,86,86,71.3125,71.3125,71.3125,2.506507,3.210755,3.022404,6.991299,5.209995,2.921128,-0.01504658,-0.4875965,1.46235,0.05906064,-0.1278692,1.417997,0.1461215,0.2439349,1.644962,0.01798611,-0.4682521,1.481811,0.06401012,-0.1448189,1.36954,0.15699,-0.1764057,1.637759,0.1567654,-0.4757849,1.611307,-0.01915325,0.002949888,1.626249,0.082757,-0.4706762,1.593579,-0.03924536,-0.2389374,1.574604,0.3206243,-0.1972077,1.47634,NA,NA,Unknown,Unknown,
0.8662109,-0.3808594,0.01416016,-0.237793,0.9682617,0.5053711,-1,0,-3,-1,0,-1,-1,-1,1,1,0,-2,-2,1,-2,-5,90.125,90.125,90.125,54.75,54.75,54.75,2.623331,3.204007,3.058471,7.037097,5.054709,2.713934,-0.02249031,-0.4884832,1.468316,0.1238996,-0.1920777,1.397913,0.1448621,0.2446008,1.643837,0.005382692,-0.4923914,1.432298,0.1261017,-0.1656669,1.354028,0.1562815,-0.1765858,1.63749,0.1557534,-0.4771681,1.610966,-0.0191916,0.001712054,1.626317,0.08143456,-0.4717282,1.592252,-0.04279827,-0.2328796,1.585894,0.3499962,-0.2079645,1.511164,NA,NA,Closed,Unknown,
0.8554688,-0.3520508,0.05615234,-0.03662109,0.8925781,0.4125977,-3,-2,-1,-1,-1,1,-1,-3,4,2,-4,-2,-1,-5,-3,0,69.3125,69.3125,69.3125,11.5625,11.5625,11.5625,2.670617,3.190433,3.149195,7.133543,4.623397,2.320132,-0.03281801,-0.4915014,1.473255,0.1891593,-0.2677314,1.398207,0.1439399,0.244745,1.641709,0.003110323,-0.485246,1.48852,0.1999751,-0.2638081,1.345812,0.1550953,-0.1770404,1.636748,0.154374,-0.4789051,1.610574,-0.01911354,0.0004103044,1.626165,0.07980154,-0.473211,1.590305,-0.04540633,-0.2370968,1.589832,0.4037539,-0.1977035,1.548169,NA,NA,Closed,Unknown,
0.9204102,-0.3984375,0.06494141,-0.01123047,0.8979492,0.2807617,-2,-1,0,1,-1,-2,-2,-1,4,-1,-4,0,-1,1,0,1,63.0625,63.0625,63.0625,0.125,0.125,0.125,2.661294,3.184978,3.238278,7.192602,4.370547,2.120861,-0.03828858,-0.4937835,1.47596,0.2174031,-0.3130325,1.397728,0.1435873,0.2450506,1.640088,5.552892E-05,-0.4918635,1.488289,0.2322076,-0.289573,1.349454,0.1542876,-0.177616,1.63614,0.1528116,-0.4808094,1.610274,-0.01893517,-0.001333933,1.625879,0.0780028,-0.4745408,1.589317,-0.04682268,-0.2398607,1.592181,0.3821363,-0.2027843,1.56779,NA,NA,Unknown,Unknown,
0.925293,-0.4301758,0.07080078,0.2807617,0.8686523,0.2729492,-1,-2,0,-3,-1,0,-1,1,-7,1,1,0,-2,1,2,-1,68.3125,68.3125,68.3125,-18.25,-18.25,-18.25,2.657674,3.18056,3.284492,7.275117,4.114141,1.913379,-0.04487018,-0.4948526,1.479026,0.2485806,-0.3366176,1.424462,0.1437604,0.2455602,1.637558,-0.001199631,-0.5251096,1.482333,0.2691756,-0.3099467,1.373791,0.1532455,-0.1781142,1.635014,0.1502681,-0.4823054,1.609571,-0.01873928,-0.001915386,1.625499,0.07506636,-0.4752105,1.587787,-0.04834117,-0.2420152,1.593674,0.380544,-0.2050054,1.575221,NA,NA,Unknown,Unknown,
0.953125,-0.4448242,0.1083984,0.4697266,0.9536133,0.2675781,0,-2,-2,-1,-1,-1,0,-1,1,0,2,1,-1,-1,-1,-3,105.0625,105.0625,105.0625,-44.5625,-44.5625,-44.5625,2.68207,3.163632,3.42536,7.350557,3.883061,1.702784,-0.05004604,-0.4989893,1.484744,0.2854805,-0.3902319,1.40875,0.1438528,0.2461893,1.63627,-0.01322189,-0.4959773,1.4974,0.2967816,-0.3655493,1.370628,0.152469,-0.1785178,1.634053,0.1483821,-0.4835618,1.608747,-0.01849701,-0.002872325,1.625239,0.07278776,-0.4759104,1.586126,-0.0497007,-0.2457311,1.596641,0.3814015,-0.2127632,1.595015,NA,NA,Unknown,Unknown,
0.953125,-0.4291992,0.06005859,0.640625,0.8510742,0.2539063,-2,0,-1,-2,-2,0,-3,-1,6,6,5,3,2,-8,-18,-5,114,114,114,-56.125,-56.125,-56.125,2.698956,3.155404,3.475568,7.436216,3.690724,1.491511,-0.05518098,-0.5003955,1.489139,0.314781,-0.4172428,1.42458,0.1441431,0.2464811,1.633925,-0.01937248,-0.4951607,1.503722,0.3303644,-0.4040858,1.388463,0.1519819,-0.1789903,1.633385,0.1477606,-0.4844093,1.608494,-0.01803982,-0.004194449,1.624628,0.07209999,-0.4763677,1.585632,-0.05093405,-0.2489563,1.599088,0.383688,-0.2192307,1.60341,NA,NA,Unknown,Unknown,
0.9819336,-0.262207,0.01123047,0.6293945,0.8515625,0.2001953,-2,-1,-1,-2,-1,-1,0,1,1,-1,-2,0,-1,-3,1,0,104.6875,104.6875,104.6875,-55.5625,-55.5625,-55.5625,2.734768,3.138175,3.571146,7.484152,3.603967,1.385306,-0.05970817,-0.5028874,1.494447,0.3381338,-0.4433603,1.438374,0.1446527,0.2463066,1.632094,-0.02585232,-0.4895559,1.511895,0.3695252,-0.456403,1.432,0.1518773,-0.1794374,1.632817,0.1475462,-0.4851624,1.608421,-0.01759703,-0.005415296,1.62397,0.0718495,-0.476819,1.585408,-0.05212715,-0.2517988,1.601261,0.3846431,-0.2259087,1.611376,NA,NA,Unknown,Unknown,
0.9560547,-0.3466797,0.08935547,0.7558594,0.7768555,0.1455078,-1,-1,0,0,-2,-1,-2,-3,-3,-2,-1,-4,0,2,-3,-1,43.9375,43.9375,43.9375,-43.1875,-43.1875,-43.1875,2.715808,3.119143,3.659428,7.615514,3.442985,1.157037,-0.06147454,-0.503129,1.500295,0.355643,-0.456892,1.461489,0.1453547,0.2457568,1.630125,-0.03317758,-0.5052282,1.47941,0.394336,-0.4679823,1.45005,0.1518309,-0.1802576,1.631903,0.1475346,-0.4861111,1.608279,-0.01716968,-0.006772398,1.623222,0.0717719,-0.4775084,1.585043,-0.05275324,-0.2531246,1.60317,0.3852227,-0.2322784,1.617928,NA,NA,Unknown,NotTracked,
0.9272461,-0.3720703,0.1035156,0.9204102,0.6152344,0.04736328,0,0,-3,-2,-2,0,-1,0,0,0,-1,0,-1,-3,2,0,40.1875,40.1875,40.1875,-60.5,-60.5,-60.5,2.677434,3.095282,3.77433,7.845933,3.259907,0.7772645,-0.06560613,-0.5032703,1.513037,0.3774986,-0.4924125,1.49656,0.1468133,0.2451601,1.627108,-0.01174222,-0.4641873,1.522757,0.4173138,-0.4892,1.487048,0.1520754,-0.1813653,1.631179,0.1476122,-0.4876721,1.608618,-0.01594563,-0.00764579,1.62239,0.07180638,-0.4783668,1.584776,-0.05386065,-0.2563951,1.607657,0.38607,-0.2450784,1.62834,NA,NA,Unknown,NotTracked,
0.8945313,-0.4287109,0.09472656,1.066895,0.4179688,-0.05664063,-1,0,-1,-1,-1,-2,0,-3,0,0,2,-1,0,1,1,0,57.875,57.875,57.875,-54.375,-54.375,-54.375,2.649152,3.081284,3.900282,8.113409,3.147666,0.3693602,-0.07038804,-0.5070011,1.52302,0.3927362,-0.5144652,1.5271,0.1483022,0.2446059,1.624703,-0.04629476,-0.5178086,1.493467,0.4292448,-0.5055434,1.517375,0.1523421,-0.1819999,1.630934,0.1478484,-0.4888842,1.608994,-0.01457112,-0.008702731,1.620768,0.07198294,-0.4791368,1.58459,-0.05417487,-0.2574606,1.612078,0.3831225,-0.2555599,1.632363,NA,NA,NotTracked,Unknown,
0.9711914,-0.4956055,0.1513672,1.008301,0.3720703,-0.1508789,1,-1,-3,-2,-1,-1,-2,1,1,5,1,2,-3,-1,-4,-1,70.25,70.25,70.25,-38,-38,-38,2.656863,3.062305,3.971093,8.277345,3.106721,0.1404144,-0.07074694,-0.5085594,1.527792,0.3989729,-0.523765,1.537533,0.1492753,0.2443622,1.623191,-0.01587628,-0.4816259,1.524692,0.4340267,-0.5181223,1.526333,0.1524029,-0.1822972,1.630697,0.1478581,-0.4893369,1.608989,-0.0137144,-0.008919757,1.619595,0.07198696,-0.47948,1.584301,-0.05400061,-0.2587201,1.613598,0.3803574,-0.2592871,1.633023,NA,NA,NotTracked,Unknown,
0.9453125,-0.3491211,0.04638672,0.949707,0.3808594,-0.2480469,-2,-1,1,-1,-3,0,-1,-1,-2,-1,-2,-3,-1,-5,-3,-2,65,65,65,-39.875,-39.875,-39.875,2.653152,3.05252,4.013651,8.427145,3.087384,9.932914,-0.07097942,-0.509969,1.533015,0.40152,-0.5284842,1.549798,0.1499885,0.2440481,1.62272,-0.0161251,-0.4819567,1.525541,0.4348729,-0.5204284,1.535739,0.1526504,-0.1826151,1.630583,0.1479256,-0.4897176,1.609122,-0.01342013,-0.008988461,1.619353,0.07204214,-0.4797031,1.584279,-0.05376656,-0.2597561,1.615171,0.3777843,-0.2613458,1.633415,NA,NA,NotTracked,Unknown,
0.9711914,-0.2788086,0.01660156,0.9750977,0.3369141,-0.2119141,-1,-3,1,-2,0,-1,1,1,-5,-2,-1,0,-2,-1,-1,-1,-2.6875,-2.6875,-2.6875,-44.9375,-44.9375,-44.9375,2.617848,3.021514,4.090506,8.557077,3.076196,9.713634,-0.06870648,-0.5122173,1.539824,0.4054024,-0.5340068,1.562097,0.1515607,0.243673,1.621534,-0.02519758,-0.4842057,1.541807,0.4310087,-0.5348301,1.530676,0.1530075,-0.1830461,1.630135,0.1480166,-0.4902353,1.609059,-0.01246173,-0.009191364,1.618357,0.07210819,-0.4801398,1.584069,-0.05346428,-0.2602567,1.616377,0.3732187,-0.2644394,1.633085,NA,NA,NotTracked,Unknown,
0.9936523,-0.2583008,-0.003417969,0.9223633,0.3256836,-0.1772461,-2,0,-2,-1,0,-1,0,-3,-1,1,0,0,-2,-2,-4,-1,-47,-47,-47,-39.375,-39.375,-39.375,2.576173,3.003714,4.091598,8.565778,3.072603,9.679952,-0.06611052,-0.5103989,1.541922,0.4073192,-0.5383353,1.565377,0.1525424,0.2432022,1.621022,-0.01994499,-0.4840723,1.532834,0.4340971,-0.5152532,1.552808,0.1533145,-0.1833592,1.629971,0.148173,-0.4905667,1.609005,-0.0119644,-0.009369522,1.617959,0.07225692,-0.4804691,1.583932,-0.05326646,-0.2604674,1.616685,0.3717489,-0.2664006,1.632763,NA,NA,NotTracked,Unknown,
0.9506836,-0.3134766,0.02099609,0.956543,0.2841797,-0.1811523,-3,0,0,0,-2,1,0,-2,-1,-4,-1,-2,-2,-1,0,-3,-74.5625,-74.5625,-74.5625,-18.8125,-18.8125,-18.8125,2.535751,3.003036,4.053424,8.582201,3.070779,9.633866,-0.06447689,-0.510443,1.541302,0.4078146,-0.5408841,1.566476,0.1533828,0.242886,1.620628,-0.01974938,-0.4840726,1.532891,0.4348935,-0.5414191,1.535269,0.1536346,-0.18368,1.629838,0.1483568,-0.4909396,1.608983,-0.01145545,-0.00958218,1.617839,0.07242242,-0.4808127,1.583745,-0.05287968,-0.2603892,1.617283,0.3708755,-0.2674839,1.632407,NA,NA,NotTracked,Unknown,
0.9379883,-0.3344727,0.01806641,0.9462891,0.277832,-0.1435547,-1,-1,0,-1,0,0,0,-1,-3,-2,-5,1,0,1,1,0,-78,-78,-78,-1.375,-1.375,-1.375,2.514241,3.007627,4.030424,8.577109,3.069086,9.630957,-0.06260468,-0.5101666,1.539754,0.4087667,-0.5406376,1.568309,0.154232,0.2425467,1.620359,-0.01506353,-0.4730505,1.528143,0.4361539,-0.5324953,1.553364,0.1539237,-0.1839396,1.629633,0.1483868,-0.4911074,1.608916,-0.0110112,-0.0095837,1.617645,0.07243849,-0.4809446,1.58364,-0.05246283,-0.2602055,1.617799,0.3701628,-0.2683987,1.63198,NA,NA,NotTracked,Unknown,
0.9316406,-0.3251953,-0.01171875,0.921875,0.2822266,-0.1293945,-1,-1,-1,-2,-2,-1,-2,-2,2,-3,1,-1,0,-1,-7,-1,-70.75,-70.75,-70.75,7.375,7.375,7.375,2.451495,3.020766,3.966978,8.556962,3.066634,9.656875,-0.06108178,-0.5101682,1.537912,0.4089835,-0.5424855,1.566693,0.1548377,0.2424005,1.620046,-0.01569325,-0.4766025,1.528444,0.4290347,-0.5199715,1.558,0.1542332,-0.1841473,1.629522,0.1485278,-0.4912969,1.608877,-0.0104022,-0.009694875,1.617321,0.07256559,-0.4811295,1.583523,-0.0519874,-0.2600149,1.618254,0.3697979,-0.2688013,1.631729,NA,NA,NotTracked,Unknown,
0.9492188,-0.3266602,-0.04589844,0.9223633,0.2260742,-0.1611328,0,-1,-3,-1,0,-2,-1,-2,0,-2,-2,0,-2,0,-1,-1,-52.5,-52.5,-52.5,38.625,38.625,38.625,2.340933,3.019716,3.850075,8.500654,3.050356,9.792445,-0.0559416,-0.5086826,1.533069,0.4051713,-0.5423754,1.558925,0.1567416,0.2420272,1.619348,-0.01275553,-0.4800228,1.526382,0.4328017,-0.5425718,1.523833,0.1552157,-0.1846345,1.629341,0.1489285,-0.4916681,1.608912,-0.00859301,-0.009363479,1.617406,0.07289188,-0.4813778,1.583498,-0.05025002,-0.2598735,1.618336,0.3681733,-0.2697076,1.62975,NA,NA,NotTracked,Unknown,
0.9501953,-0.3222656,-0.05126953,0.9213867,0.2451172,-0.1738281,-1,0,-1,0,-1,0,-1,-2,-2,-1,-1,1,-1,-1,-1,-1,-42.1875,-42.1875,-42.1875,42.4375,42.4375,42.4375,2.3244,3.019936,3.84292,8.501153,3.046464,9.842453,-0.05609597,-0.5087714,1.533538,0.403446,-0.5423666,1.557711,0.1571865,0.2418216,1.619277,-0.03341979,-0.5227969,1.503777,0.4298564,-0.5450844,1.528105,0.1554465,-0.1847367,1.629435,0.149052,-0.4917589,1.609047,-0.008175408,-0.00883961,1.618352,0.07302219,-0.4814442,1.58359,-0.0499309,-0.259588,1.61847,0.3678952,-0.269996,1.628961,NA,NA,NotTracked,Unknown,
0.9428711,-0.3183594,-0.05712891,0.9204102,0.262207,-0.1733398,-1,-1,-1,-2,-1,-3,-2,-2,0,0,-1,1,-1,-1,-3,-1,-10.125,-10.125,-10.125,29.3125,29.3125,29.3125,2.289984,3.022833,3.842915,8.483067,3.0467,9.901117,-0.05485471,-0.5083218,1.533116,0.4005736,-0.5415656,1.55488,0.1574026,0.2418401,1.619233,-0.01147511,-0.501887,1.524524,0.4292408,-0.5383368,1.528109,0.1556249,-0.184804,1.629492,0.1490882,-0.4918156,1.609105,-0.007933613,-0.008813199,1.618452,0.07306285,-0.4814804,1.583673,-0.04965783,-0.2594475,1.618572,0.3674759,-0.2700841,1.62812,NA,NA,NotTracked,Unknown,
0.9462891,-0.3125,-0.05078125,0.9204102,0.2695313,-0.159668,-1,-2,0,-3,-2,0,-2,0,0,0,0,-2,-1,0,-1,0,-2.125,-2.125,-2.125,22.25,22.25,22.25,2.287364,3.022986,3.844058,8.465748,3.047881,9.93232,-0.0554731,-0.5085895,1.534373,0.3986248,-0.5395669,1.552496,0.1576366,0.2417818,1.61929,-0.0122302,-0.5047112,1.524359,0.42642,-0.5246859,1.526469,0.1557316,-0.1849035,1.629564,0.1491539,-0.4919162,1.609166,-0.007730669,-0.008892008,1.618618,0.07310581,-0.4815486,1.583702,-0.04947163,-0.2594551,1.618646,0.3670316,-0.2703531,1.627426,NA,NA,NotTracked,Unknown,
0.9433594,-0.315918,-0.04003906,0.9287109,0.2729492,-0.137207,0,0,-1,0,0,-2,-1,-1,-1,-1,-1,-1,0,-3,2,2,14.25,14.25,14.25,21.8125,21.8125,21.8125,2.291536,3.023938,3.85178,8.432973,3.049457,9.990849,-0.05610636,-0.5085632,1.533907,0.3969711,-0.5405922,1.54971,0.1579135,0.2415709,1.619275,-0.01323522,-0.5057374,1.521284,0.4241155,-0.5357982,1.519622,0.1558604,-0.1850236,1.629579,0.1493048,-0.4920541,1.60924,-0.00745982,-0.008929884,1.618702,0.07324389,-0.4816715,1.583716,-0.04938627,-0.2594492,1.618695,0.3665935,-0.2704759,1.626881,NA,NA,NotTracked,Unknown,
0.9414063,-0.3110352,-0.03564453,0.9277344,0.28125,-0.1416016,-2,-1,0,-2,-3,-1,-3,-1,-2,-1,-4,-1,-2,0,-2,-1,23.125,23.125,23.125,20,20,20,2.307225,3.019442,3.860651,8.403871,3.054429,0.04601499,-0.0556586,-0.509189,1.536077,0.3932987,-0.5410246,1.548356,0.1579893,0.241536,1.619361,-0.008395471,-0.4800139,1.524654,0.422573,-0.5329745,1.523099,0.1559725,-0.1850909,1.629698,0.1494088,-0.492144,1.609424,-0.007306579,-0.008688438,1.619566,0.07335784,-0.4817462,1.583822,-0.04922363,-0.2592422,1.61924,0.3662737,-0.2706112,1.626296,NA,NA,NotTracked,Unknown,
0.9453125,-0.3095703,-0.03222656,0.9116211,0.2792969,-0.1352539,1,0,-2,1,-1,-2,-1,-2,-2,0,0,-3,0,-4,-1,2,24.125,24.125,24.125,19.5,19.5,19.5,2.316427,3.015217,3.865155,8.375375,3.057985,0.09803127,-0.05642551,-0.5096024,1.537024,0.3898355,-0.5388533,1.545417,0.1580779,0.2414206,1.61946,-0.008340057,-0.4776444,1.52268,0.4202011,-0.5380931,1.506357,0.1561373,-0.1852071,1.629783,0.1495379,-0.4922464,1.609503,-0.007144924,-0.008692255,1.619634,0.07349505,-0.4818845,1.583959,-0.04918158,-0.2592062,1.619371,0.3660285,-0.2706396,1.625848,NA,NA,NotTracked,Unknown,
0.9501953,-0.3007813,-0.02148438,0.9208984,0.2910156,-0.1494141,0,-1,-1,-3,-2,-2,-1,-2,1,0,-1,2,-3,-3,0,0,17.25,17.25,17.25,18.25,18.25,18.25,2.337015,2.997764,3.889823,8.35007,3.062128,0.1601972,-0.05794497,-0.5097963,1.539422,0.3848478,-0.5375015,1.541772,0.1581831,0.241283,1.619735,-0.0102659,-0.4866599,1.52281,0.4157267,-0.5337864,1.506864,0.1565264,-0.1853783,1.630028,0.1497852,-0.4924178,1.609741,-0.007024034,-0.008824247,1.619877,0.07373008,-0.4820826,1.584149,-0.04910588,-0.2591164,1.619637,0.3654554,-0.2703727,1.624948,NA,NA,NotTracked,Unknown,
0.9614258,-0.2983398,-0.02246094,0.9077148,0.2998047,-0.1274414,1,1,1,0,-1,0,-1,0,-1,-1,-1,1,-2,1,-3,-1,12.875,12.875,12.875,12,12,12,2.345959,2.990094,3.905203,8.313512,3.066984,0.2218414,-0.05682637,-0.5080984,1.542326,0.3815013,-0.5362729,1.541029,0.1583372,0.2411574,1.620171,-0.01192253,-0.5100732,1.523448,0.4136242,-0.5373906,1.498231,0.1567197,-0.1854507,1.630308,0.1499232,-0.4925394,1.610019,-0.006939771,-0.008839894,1.620103,0.07388233,-0.4822461,1.584448,-0.04893064,-0.2587468,1.620321,0.3649586,-0.2699007,1.624505,NA,NA,NotTracked,Unknown,
0.9599609,-0.2998047,-0.02001953,0.9150391,0.3071289,-0.1337891,0,-2,-1,-1,0,-1,-1,-1,0,-2,-2,-1,-3,2,-1,1,9.25,9.25,9.25,9.25,9.25,9.25,2.354061,2.990992,3.909537,8.298069,3.070365,0.2492262,-0.05753873,-0.5093461,1.544298,0.3786909,-0.5357868,1.539757,0.15828,0.2410163,1.620371,-0.0121547,-0.5217768,1.523429,0.4100219,-0.5273796,1.513428,0.1567508,-0.1854684,1.630654,0.1500719,-0.4925359,1.610325,-0.006931764,-0.008868944,1.620239,0.07400538,-0.4822515,1.584642,-0.04886758,-0.2587527,1.620884,0.3645994,-0.2695524,1.624438,NA,NA,NotTracked,Unknown,
0.9536133,-0.2954102,-0.01904297,0.9057617,0.3056641,-0.128418,-2,-2,0,0,-1,-1,-1,0,0,0,2,-2,-1,-2,-1,1,5.375,5.375,5.375,4.3125,4.3125,4.3125,2.356602,2.992208,3.910266,8.282536,3.07361,0.2713955,-0.05771966,-0.5088765,1.544127,0.3779351,-0.5365902,1.539067,0.1582687,0.2407823,1.620761,-0.01027319,-0.4903711,1.524023,0.4078293,-0.5249146,1.509725,0.1567676,-0.1855518,1.630924,0.1500877,-0.492611,1.61052,-0.006946845,-0.008929015,1.620479,0.07403264,-0.4823219,1.584809,-0.04898225,-0.2588064,1.62107,0.3642868,-0.2693936,1.624388,NA,NA,NotTracked,Unknown,
0.9506836,-0.2998047,-0.02050781,0.9008789,0.3105469,-0.1254883,-2,2,0,-2,0,0,-1,-1,-1,-1,0,-2,-1,-1,-2,-1,-1.8125,-1.8125,-1.8125,3.3125,3.3125,3.3125,2.358974,2.996048,3.908056,8.275916,3.075051,0.2797691,-0.05838247,-0.5091688,1.544587,0.3766026,-0.5364537,1.538487,0.1581864,0.2406169,1.621151,-0.0111636,-0.50211,1.523719,0.4069443,-0.531073,1.498857,0.1566817,-0.1856062,1.631198,0.1500886,-0.4926239,1.610745,-0.007034752,-0.008961353,1.620697,0.0740575,-0.4823522,1.585005,-0.04915845,-0.2585682,1.621552,0.3639529,-0.2692454,1.624425,NA,NA,NotTracked,Unknown,
0.9487305,-0.2983398,-0.01513672,0.9111328,0.3129883,-0.1337891,-2,0,-2,0,-1,-2,-1,-2,0,-3,0,-3,-2,2,-1,0,-5.5625,-5.5625,-5.5625,2.4375,2.4375,2.4375,2.358536,2.997014,3.904457,8.272554,3.076699,0.2864496,-0.05811188,-0.5090761,1.543524,0.3750052,-0.5354836,1.538018,0.1580677,0.2405771,1.621225,-0.01039013,-0.490839,1.523953,0.409022,-0.5321483,1.506326,0.1566364,-0.1856602,1.631427,0.1500976,-0.4926506,1.610943,-0.007297192,-0.009087345,1.62124,0.07409405,-0.4824095,1.585313,-0.04938901,-0.2586295,1.621809,0.3636939,-0.2692201,1.624383,NA,NA,NotTracked,NotTracked,
0.9541016,-0.2919922,-0.008300781,0.9150391,0.3149414,-0.1352539,0,-1,0,-1,0,-2,0,-2,-1,1,0,-1,-1,-2,0,-1,-15.8125,-15.8125,-15.8125,-1.875,-1.875,-1.875,2.352681,2.998287,3.89601,8.268153,3.079026,0.2894505,-0.05793471,-0.5092956,1.542196,0.3732497,-0.5345308,1.537982,0.1579927,0.2405602,1.621393,-0.01181649,-0.5115644,1.521087,0.4064075,-0.5240124,1.50792,0.1566107,-0.1856823,1.631564,0.1500657,-0.4926791,1.611113,-0.007408067,-0.009101381,1.621385,0.07408237,-0.4824446,1.585499,-0.0494904,-0.2586086,1.621992,0.3634154,-0.2691758,1.624264,NA,NA,NotTracked,NotTracked,
0.9536133,-0.3066406,-0.01660156,0.9125977,0.3173828,-0.137207,-3,-1,-2,-2,-2,-1,0,-2,-2,-1,-2,-3,-1,0,2,-2,-24,-24,-24,-4.5,-4.5,-4.5,2.329946,2.997859,3.880439,8.259604,3.080925,0.2932875,-0.05854109,-0.508723,1.542317,0.3731164,-0.5347053,1.53898,0.1578047,0.2404377,1.621774,-0.01123093,-0.5027295,1.523014,0.4040184,-0.5229002,1.515925,0.1564479,-0.1856671,1.631804,0.1500126,-0.4926425,1.611226,-0.007551699,-0.009071671,1.621629,0.07404086,-0.4824167,1.585621,-0.04973216,-0.2584884,1.622326,0.3631968,-0.2691899,1.624301,NA,NA,NotTracked,NotTracked,
0.9516602,-0.3046875,-0.02685547,0.9130859,0.3164063,-0.1367188,-2,-3,1,-3,-1,-2,-2,-1,-1,-1,-2,-2,0,1,-1,2,-23.125,-23.125,-23.125,-5.0625,-5.0625,-5.0625,2.321081,2.99858,3.876927,8.253827,3.08199,0.2959406,-0.05828352,-0.5092683,1.54139,0.3723192,-0.5347293,1.53849,0.1575658,0.2404566,1.621942,-0.01142297,-0.50113,1.523247,0.4077531,-0.5264344,1.507463,0.1563818,-0.1856261,1.631984,0.1499706,-0.4926215,1.611317,-0.00775794,-0.009090632,1.621865,0.07399513,-0.4824156,1.585727,-0.05002069,-0.2584939,1.62243,0.3630519,-0.2691316,1.62433,NA,NA,NotTracked,NotTracked,
0.9467773,-0.3051758,-0.03662109,0.8984375,0.3154297,-0.1230469,0,-2,-4,-1,-2,-2,-1,0,-3,1,-1,-1,0,1,-4,1,-16.5625,-16.5625,-16.5625,-0.4375,-0.4375,-0.4375,2.294326,3.002474,3.87183,8.240618,3.082853,0.3048319,-0.05880577,-0.5083588,1.541039,0.3713376,-0.5345281,1.538953,0.1570823,0.240411,1.622479,-0.01131281,-0.5019894,1.522942,0.4056532,-0.5283906,1.511708,0.1561645,-0.1856033,1.632554,0.1499404,-0.4925729,1.611672,-0.007953716,-0.009110899,1.622002,0.07399248,-0.4824312,1.586142,-0.05050895,-0.2580607,1.622717,0.3624562,-0.2688799,1.624488,NA,NA,NotTracked,NotTracked,
0.9477539,-0.3085938,-0.03027344,0.9047852,0.3149414,-0.1293945,-1,-1,0,-2,0,0,0,-1,0,-3,0,1,-2,-5,-1,0,-9.1875,-9.1875,-9.1875,4.4375,4.4375,4.4375,2.277984,3.007111,3.870036,8.232189,3.082171,0.3180253,-0.0596741,-0.5091454,1.541541,0.3705146,-0.5341643,1.539268,0.1566264,0.2403874,1.623049,-0.01658854,-0.5222797,1.527351,0.4043319,-0.5317386,1.505909,0.1558986,-0.1855972,1.633083,0.1497863,-0.4925553,1.612185,-0.008232484,-0.009147472,1.622267,0.07388416,-0.4824492,1.586612,-0.05088774,-0.2577216,1.622914,0.3618768,-0.2683899,1.624802,NA,NA,NotTracked,NotTracked,
0.9482422,-0.3071289,-0.03613281,0.9086914,0.3110352,-0.1274414,-1,0,-2,-1,0,-3,-3,-2,-1,0,0,-1,0,1,-3,-2,-4.75,-4.75,-4.75,5.5,5.5,5.5,2.2688,3.008684,3.872868,8.230533,3.081826,0.3226664,-0.05942199,-0.5085524,1.54179,0.3690955,-0.5334389,1.538599,0.1565307,0.2403677,1.623239,-0.0130995,-0.5106012,1.523753,0.4048301,-0.5256438,1.504924,0.1556833,-0.1855989,1.633507,0.1496117,-0.4925136,1.612377,-0.008283834,-0.008826662,1.62272,0.07370231,-0.482429,1.586875,-0.05121768,-0.2573276,1.623207,0.3616829,-0.2683421,1.624866,NA,NA,NotTracked,NotTracked,
0.9458008,-0.3032227,-0.03466797,0.9179688,0.3017578,-0.1328125,0,-1,-1,-1,-1,-1,-2,-2,1,-1,-1,0,-2,-1,0,1,0.75,0.75,0.75,7.4375,7.4375,7.4375,2.263156,3.010464,3.878342,8.226411,3.079616,0.3348632,-0.05968134,-0.5085589,1.540285,0.3697561,-0.53431,1.537608,0.1563771,0.2402748,1.623391,-0.01269895,-0.5051828,1.522649,0.4047933,-0.5283553,1.504397,0.1556506,-0.185598,1.633572,0.1495442,-0.4924923,1.612468,-0.008519207,-0.008830501,1.622859,0.07364184,-0.4824148,1.586966,-0.05136778,-0.2573683,1.623232,0.3613696,-0.2682036,1.624864,NA,NA,NotTracked,NotTracked,
0.949707,-0.3125,-0.02539063,0.9101563,0.3095703,-0.1352539,-1,-1,-2,1,0,-1,1,0,0,0,1,-2,-2,0,0,-1,8.3125,8.3125,8.3125,9.75,9.75,9.75,2.264271,3.01333,3.885571,8.223796,3.07797,0.3480254,-0.05977291,-0.5083967,1.541036,0.3690569,-0.5336817,1.537805,0.1561982,0.2402472,1.623493,-0.01259183,-0.5055386,1.523722,0.4038533,-0.5274898,1.501951,0.1555913,-0.1855844,1.633809,0.1494747,-0.4924828,1.612705,-0.008598675,-0.008815409,1.622945,0.07359631,-0.4824451,1.587151,-0.05150027,-0.257471,1.623317,0.3611678,-0.2681161,1.624927,NA,NA,NotTracked,NotTracked,
0.9467773,-0.3095703,-0.02148438,0.9077148,0.3129883,-0.1391602,-1,-2,0,-1,0,1,0,-3,-1,-1,1,-1,1,-2,-1,0,14.4375,14.4375,14.4375,9.625,9.625,9.625,2.273932,3.015702,3.89151,8.224605,3.077463,0.3587139,-0.06039111,-0.5087973,1.540244,0.3689924,-0.5333874,1.537728,0.1561701,0.2402154,1.623526,-0.01191992,-0.4950719,1.521912,0.4043937,-0.5287275,1.50718,0.155558,-0.1855939,1.633845,0.1494514,-0.4924926,1.612735,-0.00859763,-0.00881884,1.622942,0.07356161,-0.482467,1.587217,-0.05175485,-0.2576324,1.623268,0.3609991,-0.2680431,1.624921,NA,NA,NotTracked,NotTracked,
0.9472656,-0.3056641,-0.02001953,0.9082031,0.3149414,-0.1367188,-2,-1,-1,-1,-2,-1,-1,0,0,-2,1,1,1,-3,-1,-2,16.625,16.625,16.625,5,5,5,2.280946,3.016103,3.893856,8.224527,3.076918,0.3657885,-0.06049231,-0.5096961,1.541387,0.3690044,-0.5337088,1.537945,0.1560778,0.2401032,1.623653,-0.01219044,-0.4959458,1.523596,0.3987427,-0.537739,1.502692,0.1555033,-0.1855755,1.633957,0.1494193,-0.4924667,1.612831,-0.008760218,-0.008833009,1.622999,0.07352403,-0.4824615,1.587353,-0.05209718,-0.2577579,1.623314,0.3606822,-0.267958,1.624897,NA,NA,NotTracked,NotTracked,
0.9511719,-0.3095703,-0.009765625,0.9052734,0.315918,-0.1386719,-1,0,-1,-1,1,-2,-3,-1,-1,1,-1,-2,0,-3,1,-1,14.6875,14.6875,14.6875,1.5,1.5,1.5,2.309722,3.015744,3.892638,8.226019,3.076847,0.3666027,-0.06015029,-0.5085883,1.540843,0.3688946,-0.5336493,1.537969,0.1561179,0.2400425,1.623667,-0.01168439,-0.486772,1.523583,0.404772,-0.5101793,1.530867,0.1555086,-0.1855716,1.633987,0.1494248,-0.4924646,1.612836,-0.008773733,-0.008851905,1.62296,0.07353089,-0.4824605,1.587391,-0.05217853,-0.2577914,1.623328,0.3606502,-0.2679266,1.624895,NA,NA,NotTracked,NotTracked,
0.9492188,-0.3007813,-0.0078125,0.9052734,0.3178711,-0.1318359,-3,-1,0,-1,-2,0,-2,0,0,0,0,-1,1,1,0,-2,9.5625,9.5625,9.5625,-5.3125,-5.3125,-5.3125,2.327445,3.012866,3.887615,8.226933,3.078795,0.3595777,-0.05927778,-0.5087669,1.54012,0.370079,-0.5335742,1.537501,0.1562385,0.2399915,1.623894,-0.01233769,-0.4946977,1.52469,0.4055731,-0.5236174,1.512258,0.1555602,-0.1855798,1.634011,0.149457,-0.4924593,1.612837,-0.008642164,-0.008446688,1.62351,0.07356537,-0.4824427,1.587396,-0.05209135,-0.2581519,1.623259,0.3606716,-0.2678448,1.625001,NA,NA,NotTracked,NotTracked,
0.9536133,-0.2949219,-0.01269531,0.9135742,0.3149414,-0.1264648,-4,1,-1,-2,0,0,0,-3,0,-2,1,0,0,-3,-2,0,-7.25,-7.25,-7.25,-8.3125,-8.3125,-8.3125,2.349155,3.004994,3.864406,8.22039,3.081856,0.3513506,-0.05765589,-0.5088171,1.538969,0.3717677,-0.534401,1.538569,0.1564172,0.2399397,1.623957,-0.01222092,-0.4935739,1.5261,0.4089359,-0.52059,1.5173,0.15593,-0.1856619,1.634105,0.1498449,-0.4924741,1.612865,-0.008449388,-0.008551096,1.623551,0.07393042,-0.4824574,1.587394,-0.05175222,-0.2582334,1.623122,0.3608737,-0.2678307,1.62507,NA,NA,NotTracked,NotTracked,
0.9487305,-0.2998047,-0.02099609,0.9057617,0.3139648,-0.1259766,1,-1,-1,-2,-1,-3,-1,0,-1,-2,-3,0,-2,-1,-1,-1,-11.8125,-11.8125,-11.8125,-7.625,-7.625,-7.625,2.348689,3.005541,3.852888,8.212885,3.082828,0.349682,-0.05700308,-0.5082499,1.538436,0.3727733,-0.5353121,1.537937,0.1567866,0.2398483,1.623878,-0.01136691,-0.4928026,1.525163,0.4092785,-0.5262421,1.515232,0.1563549,-0.1857291,1.634003,0.1502793,-0.4925059,1.612767,-0.008157763,-0.008617749,1.623483,0.07433674,-0.4824996,1.587344,-0.05124193,-0.2581363,1.622867,0.3612689,-0.267858,1.625133,NA,NA,NotTracked,NotTracked,
0.9482422,-0.3051758,-0.02685547,0.9033203,0.3188477,-0.1230469,1,-3,-3,0,0,-2,-2,-1,-2,0,1,1,-2,-2,0,0,-10.1875,-10.1875,-10.1875,-7.5,-7.5,-7.5,2.34759,3.006238,3.847584,8.20826,3.083975,0.349587,-0.05441565,-0.5076552,1.537945,0.3751447,-0.5356988,1.539169,0.157175,0.2398199,1.623846,-0.01135746,-0.4955197,1.526762,0.419959,-0.5279303,1.535,0.1570123,-0.185774,1.63404,0.150982,-0.4925408,1.612743,-0.007608106,-0.008780677,1.623501,0.07494146,-0.4825445,1.587216,-0.05061803,-0.2582675,1.622847,0.3619165,-0.268094,1.625206,NA,NA,NotTracked,NotTracked,
0.9418945,-0.3061523,-0.015625,0.9189453,0.3168945,-0.1240234,-1,1,0,-1,0,0,-2,-1,-1,-3,-1,0,-1,-4,-1,-1,-4.375,-4.375,-4.375,-5.1875,-5.1875,-5.1875,2.351319,3.008193,3.83663,8.202424,3.085947,0.3481897,-0.05324281,-0.5083042,1.538321,0.3765546,-0.5340893,1.539173,0.1579079,0.2395623,1.623865,-0.01064752,-0.4966312,1.527463,0.414306,-0.5233231,1.51381,0.1576749,-0.1857981,1.634061,0.1519563,-0.4925299,1.612689,-0.006872729,-0.008926175,1.623401,0.07589474,-0.4825858,1.587176,-0.04980662,-0.2583692,1.622702,0.362879,-0.2682038,1.62542,NA,NA,NotTracked,NotTracked,
0.940918,-0.3144531,-0.01708984,0.9067383,0.3134766,-0.1186523,-1,-2,-1,-1,-2,-1,0,-2,2,0,-5,0,-1,-1,1,2,-1.0625,-1.0625,-1.0625,-3.125,-3.125,-3.125,2.358792,3.010649,3.827807,8.197664,3.08516,0.348641,-0.05212926,-0.5081097,1.538182,0.3773074,-0.5344732,1.53912,0.1584393,0.2395048,1.623877,-0.01122325,-0.4940255,1.528714,0.414305,-0.5314784,1.503615,0.1585971,-0.1858533,1.634047,0.1530138,-0.4926195,1.612701,-0.006385669,-0.009016351,1.623523,0.07694788,-0.482691,1.587195,-0.04869026,-0.2586276,1.622401,0.3639203,-0.2683741,1.62561,NA,NA,NotTracked,NotTracked,
0.9433594,-0.3183594,-0.009765625,0.9106445,0.3149414,-0.1337891,0,-1,0,-1,-1,0,-1,-2,-1,-1,0,2,1,-1,-1,2,4.875,4.875,4.875,-0.6875,-0.6875,-0.6875,2.367784,3.012906,3.822621,8.198795,3.085629,0.3453871,-0.05035241,-0.5085405,1.537746,0.3784772,-0.5348553,1.538782,0.1593088,0.2394557,1.623827,-0.004734475,-0.4737043,1.529632,0.4147542,-0.5253421,1.515514,0.1595038,-0.1859484,1.634059,0.1541386,-0.4927542,1.612478,-0.005307564,-0.008919781,1.6234,0.07793096,-0.4828139,1.587059,-0.04733564,-0.2589886,1.622447,0.3650752,-0.2683372,1.625779,NA,NA,NotTracked,NotTracked,
