ALX,ALY,ALZ,ARX,ARY,ARZ,EMG0L,EMG1L,EMG2L,EMG3L,EMG4L,EMG5L,EMG6L,EMG7L,EMG0R,EMG1R,EMG2R,EMG3R,EMG4R,EMG5R,EMG6R,EMG7R,GLX,GLY,GLZ,GRX,GRY,GRZ,ORL,OPL,OYL,ORR,OPR,OYR,LHNX,LHNY,LHNZ,RHNX,RHNY,RHNZ,HX,HY,HZ,LTX,LTY,LTZ,RTX,RTY,RTZ,SpineMidX,SpineMidY,SpineMidZ,SpineBaseX,SpineBaseY,SpineBaseZ,ShoulderLeftX,ShoulderLeftY,ShoulderLeftZ,ShoulderRightX,ShoulderRightY,ShoulderRightZ,ElbowLeftX,ElbowLeftY,ElbowLeftZ,ElbowRightX,ElbowRightY,ElbowRightZ,Myo_Pose_left,Myo_Pose_Right,Kinect_pose_left,Kinect_pose_right
0.9208984,0.3100586,0.1665039,0.9511719,-0.2470703,0.1201172,0,0,-2,-1,-2,0,-1,0,-1,0,-2,1,8,2,0,0,-0.6875,-0.6875,-0.6875,0,0,0,6.8463,3.047441,2.0753,3.160594,2.966034,6.652815,-0.1428257,-0.4728089,1.6674,0.2943635,-0.4569033,1.613967,0.06028677,0.3412222,1.69912,-0.09833457,-0.4885319,1.668083,0.2615281,-0.4676735,1.591837,0.06317565,-0.07636491,1.74535,0.0607701,-0.360546,1.732484,-0.1057679,0.09894371,1.748075,-0.01800521,-0.3557564,1.710283,-0.1430199,-0.1571628,1.766038,0.2885532,-0.1672229,1.729276,NA,NA,NotTracked,NotTracked,
0.9140625,0.3100586,0.1606445,0.9526367,-0.269043,0.1352539,-3,-1,1,-2,-2,-2,-2,-2,-2,-1,-1,0,-3,-1,1,1,-1.1875,-1.1875,-1.1875,-3.3125,-3.3125,-3.3125,6.843094,3.048827,2.073988,3.16757,2.968288,6.639555,-0.1425887,-0.4722792,1.666468,0.2941827,-0.4571924,1.613626,0.0603564,0.341193,1.699034,-0.09690219,-0.4807528,1.67277,0.2606488,-0.4684181,1.592948,0.06318816,-0.07639211,1.745341,0.06080894,-0.3605897,1.732441,-0.1057358,0.09888116,1.747968,-0.01795299,-0.3557988,1.71013,-0.1430813,-0.1570839,1.765952,0.288527,-0.1672964,1.729404,NA,NA,NotTracked,NotTracked,
0.9179688,0.2993164,0.1567383,0.9663086,-0.2504883,0.1259766,-1,-2,0,0,-1,-1,-2,-1,-1,-3,-2,-2,-3,0,-1,-3,-0.5,-0.5,-0.5,-0.0625,-0.0625,-0.0625,6.84064,3.049116,2.073316,3.183037,2.970889,6.625306,-0.141478,-0.4714524,1.664966,0.2945136,-0.4564922,1.61382,0.06038931,0.3411931,1.699059,-0.09191493,-0.458509,1.667616,0.2599518,-0.470381,1.59245,0.06318644,-0.07638462,1.745328,0.06087728,-0.3606034,1.732338,-0.1057125,0.09890228,1.747916,-0.01789315,-0.3557993,1.709961,-0.1430149,-0.1569356,1.765582,0.288687,-0.1673287,1.729789,NA,NA,NotTracked,NotTracked,
0.9213867,0.3164063,0.1694336,0.9506836,-0.2641602,0.1357422,-1,-2,-7,0,-3,-1,0,1,-1,-3,-3,-1,-10,-4,-1,-2,0.125,0.125,0.125,-0.1875,-0.1875,-0.1875,6.837795,3.050615,2.077398,3.194875,2.974731,6.611627,-0.1412507,-0.4718274,1.664166,0.293759,-0.4580622,1.614113,0.0604412,0.3412316,1.699138,-0.09604777,-0.4725602,1.671537,0.3222737,-0.4607686,1.610353,0.06323472,-0.0763523,1.745266,0.06094085,-0.3605654,1.732301,-0.1056601,0.09892575,1.74783,-0.01782687,-0.3557446,1.709868,-0.14322,-0.1565809,1.765211,0.2887452,-0.1673977,1.73009,NA,NA,NotTracked,NotTracked,
0.9018555,0.2929688,0.1567383,0.956543,-0.2675781,0.144043,-2,1,7,-1,0,-1,-1,0,-1,0,-1,-3,-7,-1,-2,-1,-3.0625,-3.0625,-3.0625,-3.9375,-3.9375,-3.9375,6.830758,3.051177,2.078334,3.2165,2.979639,6.583971,-0.1394365,-0.4701299,1.661648,0.2943862,-0.4564401,1.613077,0.06046344,0.3412394,1.699132,-0.09546921,-0.4764646,1.666673,0.3225087,-0.4649926,1.609214,0.06338892,-0.07639485,1.74504,0.06113412,-0.360644,1.732015,-0.1056213,0.09888475,1.74769,-0.01762829,-0.3558446,1.709524,-0.1432266,-0.1566764,1.764828,0.2887881,-0.1673714,1.730165,NA,NA,NotTracked,NotTracked,
0.9243164,0.3183594,0.1689453,0.9516602,-0.2641602,0.1367188,1,-2,-1,-1,1,0,-2,0,-3,-1,10,-3,-13,2,0,1,3,3,3,1.8125,1.8125,1.8125,6.831536,3.052497,2.080875,3.246989,2.98739,6.554945,-0.139833,-0.4708337,1.660935,0.2940915,-0.4573512,1.61347,0.06051062,0.341242,1.699138,-0.09414305,-0.4710066,1.663624,0.3230878,-0.4544385,1.607474,0.06338418,-0.07639287,1.745039,0.06114708,-0.3606479,1.73201,-0.1055569,0.09893933,1.747556,-0.01761793,-0.3558443,1.709507,-0.1432452,-0.1566069,1.764706,0.2888596,-0.1673196,1.730338,NA,NA,NotTracked,NotTracked,
0.9145508,0.3056641,0.1459961,1.01416,-0.2949219,0.1464844,-1,0,9,-3,3,3,5,2,0,-2,2,-12,-19,-23,-4,-2,3.25,3.25,3.25,-9.9375,-9.9375,-9.9375,6.826002,3.054462,2.084065,3.302081,3.005678,6.485866,-0.1388112,-0.4676127,1.657166,0.2932826,-0.4559954,1.613871,0.06059792,0.3412282,1.699069,-0.09546658,-0.4668197,1.668609,0.3232468,-0.4535887,1.608047,0.06344308,-0.07634642,1.744954,0.06128259,-0.3605683,1.731923,-0.1054744,0.09898338,1.747298,-0.01744645,-0.3557769,1.709292,-0.1435534,-0.155145,1.764251,0.2889169,-0.1672119,1.73052,NA,NA,NotTracked,NotTracked,
0.9667969,0.34375,0.09814453,1.044434,-0.3173828,0.2167969,2,2,-4,-24,-22,-14,2,0,0,-6,18,3,15,9,7,1,0.375,0.375,0.375,-9.4375,-9.4375,-9.4375,6.828565,3.061383,2.084917,3.445329,3.058791,6.319366,-0.1362242,-0.4582072,1.648598,0.2918469,-0.45219,1.610899,0.06079024,0.3412615,1.698915,-0.09339151,-0.466029,1.660973,0.3213668,-0.4677895,1.608667,0.06351448,-0.07637208,1.744791,0.06149342,-0.3605767,1.731619,-0.1054481,0.09897462,1.747091,-0.01721039,-0.3557604,1.708788,-0.1437138,-0.155147,1.764223,0.2894432,-0.1668482,1.731477,NA,NA,NotTracked,NotTracked,
1.130371,0.4897461,0.2304688,1.047363,-0.4213867,0.4887695,-1,-4,-14,-36,-34,-6,-10,-4,1,-1,-28,5,10,-7,5,1,4.75,4.75,4.75,-47.1875,-47.1875,-47.1875,6.702014,3.187971,2.226359,3.701262,3.264153,5.955092,-0.1255574,-0.4302339,1.633085,0.2862236,-0.4272691,1.597064,0.06092792,0.3412454,1.698741,-0.08434455,-0.442317,1.640813,0.2921899,-0.4276196,1.557649,0.06354849,-0.07637829,1.744445,0.0616574,-0.3604679,1.730906,-0.1054375,0.09918456,1.746694,-0.0170811,-0.3555712,1.707844,-0.1448793,-0.1509942,1.766111,0.2913828,-0.1638123,1.735383,NA,NA,NotTracked,NotTracked,
1.012207,0.5317383,0.4677734,0.8383789,-0.4716797,0.6030273,-4,1,3,-25,-29,11,13,-5,-4,-2,20,-1,-16,-15,-2,-2,41.9375,41.9375,41.9375,-36.0625,-36.0625,-36.0625,6.54281,3.398457,2.457451,3.850092,3.518989,5.706332,-0.1100561,-0.3920282,1.587018,0.272841,-0.3821958,1.568011,0.06120542,0.3410858,1.69861,-0.07125484,-0.4126346,1.5983,0.2891963,-0.3858953,1.536489,0.06409937,-0.07627353,1.743905,0.06327426,-0.3598309,1.72968,-0.1054361,0.09932078,1.74659,-0.01568349,-0.3551143,1.706264,-0.146616,-0.1461969,1.770505,0.2958051,-0.1459024,1.74768,NA,NA,NotTracked,NotTracked,
0.6015625,0.6367188,0.5981445,0.7060547,-0.5253906,0.7026367,0,-1,28,-13,4,30,-3,4,2,-3,11,7,35,12,2,0,15.8125,15.8125,15.8125,-35.625,-35.625,-35.625,6.401363,3.828274,2.723289,3.921374,3.832105,5.521299,-0.07400925,-0.3348744,1.567279,0.248027,-0.3150018,1.532501,0.06169825,0.3404199,1.698083,-0.04990995,-0.3907269,1.600857,0.2826023,-0.2994814,1.514333,0.06482188,-0.07608459,1.74289,0.06445229,-0.3587294,1.727525,-0.1053811,0.09976678,1.746562,-0.01504503,-0.3541971,1.703524,-0.1508663,-0.1218137,1.77603,0.2980537,-0.1325923,1.751765,NA,NA,Lasso,Unknown,
0.3271484,0.6342773,0.5805664,0.3833008,-0.5283203,0.6762695,-1,6,15,9,11,0,-8,0,-2,-2,-2,-4,-9,-6,-10,-2,24.875,24.875,24.875,-24.875,-24.875,-24.875,6.345068,4.189101,2.87364,3.958021,4.272366,5.32887,-0.0754196,-0.2567194,1.52342,0.2176783,-0.2386223,1.504534,0.06275719,0.3390913,1.69749,-0.02261392,-0.2787145,1.5568,0.2685452,-0.2202232,1.490546,0.06495609,-0.07603031,1.742647,0.06491955,-0.3580588,1.726235,-0.1052018,0.1007853,1.746947,-0.0145563,-0.3535727,1.70147,-0.1530151,-0.1121696,1.772642,0.3023483,-0.1077557,1.749648,NA,NA,Unknown,Unknown,
0.1254883,0.6103516,0.5966797,0.2280273,-0.4921875,0.6533203,4,-5,-16,21,10,-3,1,2,-2,6,39,6,-3,2,8,2,37.8125,37.8125,37.8125,-29.25,-29.25,-29.25,6.352382,4.630141,3.054265,3.957929,4.564953,5.212295,-0.03463085,-0.1830966,1.483933,0.2149537,-0.1680029,1.485438,0.06367002,0.3381766,1.697266,0.0167342,-0.1736204,1.506375,0.2622656,-0.1683716,1.4707,0.06502665,-0.07597119,1.742727,0.06478361,-0.3576129,1.726306,-0.1048081,0.101755,1.74698,-0.0146111,-0.3531069,1.701407,-0.158123,-0.111358,1.764713,0.3139055,-0.09489771,1.740468,NA,NA,Closed,Unknown,
0.1171875,0.6318359,0.6362305,0.1152344,-0.5136719,0.6728516,-3,-1,2,-5,-70,0,4,15,-1,-2,-5,-4,0,-12,-8,-4,44.875,44.875,44.875,-19.375,-19.375,-19.375,6.382355,4.81121,3.139478,3.933773,4.803331,5.117375,-0.01619406,-0.1239952,1.474444,0.2026837,-0.1196627,1.476847,0.06476705,0.3374386,1.698172,0.04603666,-0.1268594,1.485,0.220428,-0.1323611,1.450258,0.06546788,-0.07524939,1.744076,0.06518726,-0.355615,1.727686,-0.1044966,0.1024056,1.747062,-0.01420978,-0.3509985,1.702408,-0.1925139,-0.1342138,1.743351,0.3228306,-0.09432979,1.710876,NA,NA,Closed,Unknown,
-0.01611328,0.6611328,0.4521484,0.06982422,-0.5507813,0.7294922,3,8,0,0,12,-65,-22,-17,-2,-2,-37,19,36,32,-2,-3,55.4375,55.4375,55.4375,-21.5625,-21.5625,-21.5625,6.462723,4.998302,3.272892,3.899241,4.975238,5.048779,-0.00692851,-0.08283472,1.470402,0.1924811,-0.09365679,1.468343,0.06598761,0.3369241,1.700376,-0.02632169,-0.107986,1.452148,0.1793739,-0.0992128,1.429212,0.06564853,-0.07428939,1.745059,0.06525469,-0.3535429,1.728657,-0.1041559,0.1029531,1.747205,-0.01397977,-0.348784,1.70318,-0.1947827,-0.1399819,1.750382,0.330125,-0.08942329,1.689272,NA,NA,NotTracked,Lasso,
0.7456055,0.8417969,0.6362305,-0.06298828,-0.6000977,0.6811523,-2,-4,-2,-1,4,-24,22,-1,2,2,4,7,1,-3,16,-6,35.5625,35.5625,35.5625,-16.75,-16.75,-16.75,6.537404,5.017824,3.341629,3.858868,5.122247,5.00836,-2.881214E-06,-0.05781302,1.465504,0.1850518,-0.08773587,1.462334,0.06692307,0.3365199,1.703269,-0.01095646,-0.08247639,1.447647,0.1746342,-0.07251657,1.430029,0.06577527,-0.07368664,1.745842,0.06522764,-0.352332,1.728752,-0.1037941,0.1032474,1.747408,-0.01388549,-0.3475917,1.70312,-0.1953396,-0.1413789,1.74916,0.3331589,-0.08658946,1.679507,NA,NA,NotTracked,NotTracked,
0.1254883,0.9482422,0.6464844,-0.04931641,-0.6210938,0.7353516,-7,-4,6,20,-128,-34,7,26,-11,-4,-16,-5,3,-2,-8,-9,43.5,43.5,43.5,-18.75,-18.75,-18.75,6.633046,4.994699,3.440083,3.836485,5.154085,4.998048,0.00375057,-0.04654501,1.460741,0.1814057,-0.09298709,1.471501,0.06717364,0.3362012,1.706306,-0.006795252,-0.07354417,1.445029,0.1901883,-0.06009578,1.461316,0.06575506,-0.07316904,1.746427,0.06470206,-0.3513459,1.728772,-0.103494,0.1038946,1.748083,-0.01425532,-0.3465828,1.703144,-0.1954753,-0.1436398,1.738694,0.3373438,-0.08314548,1.674193,NA,NA,NotTracked,NotTracked,
0.1435547,0.9638672,0.6069336,-0.07714844,-0.628418,0.7304688,2,2,-16,-10,18,30,-18,-7,-4,-13,-14,-5,-1,-4,-29,-5,27.875,27.875,27.875,-2.8125,-2.8125,-2.8125,6.672276,4.964092,3.568495,3.811814,5.165836,4.997043,0.003794946,-0.04484732,1.451656,0.1777702,-0.08911689,1.495693,0.06704844,0.3358471,1.70781,0.01608998,-0.06608468,1.437433,0.1250296,-0.1168573,1.531333,0.06564521,-0.07279104,1.746591,0.06394973,-0.3503432,1.728053,-0.1031798,0.1043089,1.748365,-0.01491028,-0.3454726,1.702395,-0.1955724,-0.1428159,1.730414,0.343342,-0.07847553,1.668561,NA,NA,NotTracked,NotTracked,
0.1337891,0.9267578,0.6328125,-0.07421875,-0.7182617,0.7646484,-11,18,37,-23,32,-19,11,5,-6,-8,-27,-1,-3,5,28,-4,-16.25,-16.25,-16.25,5.1875,5.1875,5.1875,6.667369,5.037105,3.732951,3.787913,5.13389,5.011301,0.002905668,-0.04908247,1.444759,0.1674307,-0.06200511,1.528382,0.06673667,0.3358814,1.709092,0.004522934,-0.07123121,1.427222,0.1207849,-0.09538172,1.560308,0.06562974,-0.0724113,1.746767,0.06363249,-0.349602,1.727506,-0.1028303,0.1046632,1.748595,-0.01507677,-0.3448099,1.701812,-0.1929753,-0.1434664,1.719635,0.3506483,-0.07350523,1.667824,NA,NA,NotTracked,NotTracked,
-0.3398438,0.8515625,0.434082,0.01269531,-0.6987305,0.762207,9,-23,4,4,-7,4,-29,-9,-1,-1,12,4,-8,6,-7,2,-13.3125,-13.3125,-13.3125,-23.625,-23.625,-23.625,6.652138,5.20108,3.839212,3.781076,5.1159,5.025603,0.001920947,-0.05399761,1.439947,0.1470083,-0.01602658,1.547942,0.06658895,0.3356699,1.710003,0.04142568,-0.06807375,1.418062,0.1200916,-0.05222524,1.560429,0.06577148,-0.0722394,1.747038,0.06371908,-0.3493859,1.727292,-0.10207,0.1052851,1.748948,-0.01496497,-0.3446448,1.701714,-0.1922646,-0.142456,1.714107,0.3528967,-0.07164676,1.660882,NA,NA,NotTracked,NotTracked,
-0.3803711,0.730957,0.324707,-0.05566406,-0.6313477,0.7885742,4,-3,-4,-3,-18,4,-1,8,0,-3,-3,-2,28,-9,-16,4,20.375,20.375,20.375,23,23,23,6.653297,5.5064,3.806493,3.810053,5.121135,5.023047,4.082981E-05,-0.05224464,1.441841,0.1796582,0.03177515,1.540336,0.06656134,0.3355574,1.710362,0.01285732,-0.07387891,1.427935,0.1207306,0.006688439,1.565,0.0659197,-0.0719528,1.747283,0.06389178,-0.3491526,1.727138,-0.1018117,0.1054521,1.748899,-0.01483781,-0.3445054,1.70165,-0.1927929,-0.1413928,1.713511,0.3498453,-0.0708405,1.647274,NA,NA,Closed,NotTracked,
-0.3808594,0.6738281,0.4003906,-0.1098633,-0.6606445,0.7792969,-3,-6,-4,3,3,1,29,15,-1,14,102,-7,4,2,-17,-1,32.875,32.875,32.875,30.1875,30.1875,30.1875,6.668106,5.681671,3.688102,3.831818,5.178295,5.004974,-0.0008091665,-0.04337064,1.449555,0.1802188,0.06151909,1.521435,0.06630343,0.3354932,1.710624,0.02600411,-0.06024015,1.430286,0.1396707,0.04576902,1.499353,0.06603438,-0.07191938,1.747365,0.06408508,-0.3490799,1.727015,-0.1020325,0.1056266,1.748918,-0.01467933,-0.3445327,1.701709,-0.192933,-0.1412514,1.713512,0.3428435,-0.06927583,1.632389,NA,NA,Closed,Unknown,
-0.340332,0.625,0.3217773,-0.2172852,-0.7109375,0.7333984,-1,-5,-7,-5,-26,5,-9,4,-2,-5,8,4,12,-11,0,6,43.5,43.5,43.5,11.625,11.625,11.625,6.661845,5.7204,3.539278,3.848251,5.253066,4.980699,-0.0007788609,-0.03015311,1.460431,0.1794387,0.0608038,1.490775,0.06553495,0.3355873,1.710818,0.03715962,-0.04196977,1.442312,0.1521372,0.04172198,1.462687,0.06600828,-0.07180124,1.747502,0.06419931,-0.3490811,1.727105,-0.102805,0.1060714,1.749195,-0.01451466,-0.3446616,1.702049,-0.195463,-0.1420397,1.71545,0.3350449,-0.06225093,1.617799,NA,NA,Closed,Unknown,
-0.2128906,0.6948242,0.5029297,-0.2763672,-0.5620117,0.690918,-2,-9,-6,1,11,36,-19,3,-4,-4,18,-5,-20,-9,-25,-4,4.6875,4.6875,4.6875,3.875,3.875,3.875,6.65757,5.542714,3.377914,3.875365,5.31813,4.961999,-0.001651708,-0.0180185,1.468584,0.1861417,0.02385672,1.46554,0.06498674,0.3351137,1.711108,0.003593327,-0.0362348,1.442595,0.1945627,0.04617795,1.445481,0.06581768,-0.07177693,1.747852,0.06424966,-0.3489185,1.727218,-0.1037611,0.1060048,1.749622,-0.0144848,-0.3446652,1.702258,-0.1978936,-0.1424565,1.722815,0.3357452,-0.06544593,1.613969,NA,NA,NotTracked,NotTracked,
-0.1313477,0.8798828,0.6225586,-0.2919922,-0.605957,0.7094727,-2,-18,-4,6,-12,31,28,2,3,3,41,1,-1,-10,-11,0,2.9375,2.9375,2.9375,11.0625,11.0625,11.0625,6.649851,5.324664,3.337313,3.877723,5.344573,4.95934,-0.001275397,-0.01480258,1.472948,0.186397,-0.02145121,1.463862,0.06415346,0.3348651,1.71132,0.01806405,-0.03292804,1.462783,0.1849472,-0.008530907,1.430149,0.0654958,-0.07168471,1.748001,0.06417597,-0.3488272,1.727207,-0.1045434,0.1060559,1.75025,-0.01450796,-0.3446334,1.702319,-0.1653091,-0.1067063,1.711692,0.3404192,-0.07872915,1.613394,NA,NA,NotTracked,NotTracked,
-0.3388672,1.043457,0.6557617,-0.1821289,-0.7021484,0.7768555,-14,-5,-6,1,-1,-21,-6,-4,-1,-1,-15,-12,-24,-13,28,-2,-31.6875,-31.6875,-31.6875,8.125,8.125,8.125,6.598228,5.198972,3.363976,3.880058,5.321172,4.970091,0.002631395,-0.01880493,1.472483,0.1759446,-0.03835126,1.47504,0.06312452,0.3349643,1.711453,0.04269503,-0.03058623,1.461556,0.1189493,-0.04251504,1.511643,0.06527855,-0.07169142,1.748025,0.06397839,-0.3487963,1.727078,-0.104781,0.1059576,1.750368,-0.01466153,-0.3446526,1.702232,-0.1928532,-0.1478668,1.726147,0.3412357,-0.08025368,1.624852,NA,NA,NotTracked,NotTracked,
-0.2792969,0.9272461,0.5722656,-0.2470703,-0.6777344,0.784668,4,-10,1,-6,53,18,6,-3,-10,-4,-12,-6,-5,8,-14,-15,-43.4375,-43.4375,-43.4375,13.3125,13.3125,13.3125,6.534367,5.250117,3.349049,3.908994,5.301744,4.964317,0.002515267,-0.02324554,1.472898,0.1579377,-0.02642261,1.477744,0.06251398,0.3350128,1.711403,0.01357309,-0.04307529,1.45575,0.119238,-0.02791063,1.511556,0.06504381,-0.07168452,1.748063,0.06371468,-0.3487036,1.726915,-0.1050931,0.10586,1.750375,-0.01482433,-0.3446312,1.702175,-0.1680635,-0.1065467,1.714902,0.3398689,-0.0817037,1.632355,NA,NA,NotTracked,NotTracked,
-0.2294922,0.7607422,0.4194336,-0.1723633,-0.5761719,0.7451172,-1,-11,0,-1,5,0,1,1,2,-3,-25,-2,25,-18,-3,3,10.0625,10.0625,10.0625,-1.375,-1.375,-1.375,6.51423,5.284219,3.33253,3.922484,5.299522,4.978857,0.001213101,-0.02562528,1.472812,0.1574384,-0.02555485,1.478594,0.06203701,0.3350826,1.711268,0.008260749,-0.04585948,1.453745,0.1180245,-0.02673995,1.5184,0.06490289,-0.07172512,1.748067,0.06367505,-0.3487214,1.726892,-0.1055668,0.1055647,1.749998,-0.01485341,-0.3446899,1.70216,-0.1669334,-0.107579,1.717586,0.3379728,-0.0828496,1.637048,NA,NA,NotTracked,NotTracked,
-0.1665039,0.8017578,0.6240234,-0.1489258,-0.5683594,0.8032227,2,-3,-12,-4,-18,9,15,9,3,7,82,15,-16,-1,4,5,-12.3125,-12.3125,-12.3125,19.3125,19.3125,19.3125,6.510347,5.244846,3.307559,3.950013,5.264254,5.002652,0.001203049,-0.02961712,1.471553,0.1587951,-0.03633555,1.477244,0.06174584,0.3352848,1.711024,0.029597,-0.04314091,1.4565,0.1171462,-0.03352331,1.514137,0.06478597,-0.07169862,1.748085,0.06359102,-0.3486644,1.726937,-0.1057571,0.1056521,1.749702,-0.01492485,-0.3446638,1.702171,-0.1668759,-0.1075765,1.717437,0.3372321,-0.08352003,1.641213,NA,NA,NotTracked,NotTracked,
-0.1445313,0.8168945,0.6142578,-0.09570313,-0.5698242,0.7670898,2,-6,-8,-4,-14,-14,0,-5,-1,-3,-8,-9,-21,0,-19,-1,-5.5,-5.5,-5.5,8.4375,8.4375,8.4375,6.494474,5.199292,3.277295,3.971193,5.205315,5.049814,-0.0001372156,-0.03709915,1.471645,0.1614579,-0.04417685,1.474492,0.06135444,0.3359649,1.710439,0.04937833,-0.04383808,1.4679,0.1480594,-0.07725807,1.469,0.06461141,-0.07160722,1.747895,0.06346511,-0.3485878,1.726807,-0.1059379,0.1054106,1.748822,-0.01505899,-0.3446048,1.702,-0.1673297,-0.1078398,1.717946,0.3355938,-0.08329659,1.643817,NA,NA,NotTracked,NotTracked,
-0.1430664,0.6962891,0.6259766,-0.06494141,-0.4916992,0.7490234,1,7,5,0,-1,3,-9,-3,-4,-3,-44,-11,-26,-25,-32,-13,-22.6875,-22.6875,-22.6875,21.125,21.125,21.125,6.427854,5.144536,3.192905,3.999811,5.143101,5.075561,-0.002197115,-0.05392259,1.47111,0.1676523,-0.05397241,1.469421,0.06120876,0.3367748,1.709797,-0.02794896,-0.07540205,1.45662,0.1592771,-0.08684189,1.45772,0.0643259,-0.07148832,1.747725,0.0633791,-0.348576,1.726741,-0.1059615,0.1053678,1.748508,-0.01513304,-0.3445669,1.701869,-0.1675958,-0.107954,1.719833,0.3323107,-0.08022927,1.649962,NA,NA,NotTracked,NotTracked,
-0.02636719,0.6616211,0.597168,-0.04003906,-0.480957,0.7070313,-2,-2,-2,-3,-3,-1,-1,0,-1,-4,-40,-4,-39,1,13,-5,-29.625,-29.625,-29.625,13.8125,13.8125,13.8125,6.370229,5.051919,3.094316,4.026196,4.943624,5.164368,-0.008808065,-0.08783642,1.470187,0.199685,-0.08118621,1.466175,0.06120742,0.337503,1.708977,-0.03147535,-0.09271193,1.44616,0.172671,-0.1126398,1.4528,0.0642557,-0.07120112,1.746928,0.06331635,-0.3484347,1.726416,-0.1059344,0.1053756,1.748038,-0.01518342,-0.3444516,1.701683,-0.1659697,-0.1086741,1.725179,0.3254086,-0.07655697,1.661992,NA,NA,Closed,NotTracked,
-0.1201172,0.6601563,0.5908203,0.1416016,-0.5957031,0.7089844,-1,4,0,7,-9,8,1,3,0,-1,-16,0,5,2,-7,2,-26.9375,-26.9375,-26.9375,-15.625,-15.625,-15.625,6.32269,4.896185,2.99807,4.010783,4.797246,5.230451,-0.01826782,-0.1418113,1.470649,0.2125683,-0.1238518,1.461848,0.06155604,0.3383535,1.70824,-0.04349462,-0.1254515,1.447729,0.2044978,-0.1635351,1.45336,0.06417061,-0.07100456,1.746097,0.06314855,-0.3484785,1.726224,-0.1057332,0.105548,1.747627,-0.01544281,-0.3444439,1.701557,-0.183326,-0.1281228,1.740562,0.3186381,-0.08550017,1.692328,NA,NA,Closed,Lasso,
0.1137695,0.6860352,0.6762695,0.2797852,-0.5463867,0.6860352,3,-1,-2,-1,2,-8,0,-1,0,-4,-41,-1,6,-6,-10,0,-21.375,-21.375,-21.375,-38.8125,-38.8125,-38.8125,6.301084,4.657685,2.886224,4.008896,4.452788,5.374496,-0.03929158,-0.2066159,1.477738,0.2297292,-0.1847907,1.463647,0.06204172,0.33915,1.707485,-0.06679254,-0.1984703,1.458,0.2363408,-0.1806112,1.420024,0.06437998,-0.07130289,1.7448,0.06327625,-0.349469,1.725126,-0.105482,0.1053964,1.747285,-0.01545248,-0.345482,1.700509,-0.1830579,-0.128208,1.748251,0.3113641,-0.09049269,1.720909,NA,NA,Unknown,Unknown,
0.4448242,0.6606445,0.6826172,0.3208008,-0.4790039,0.5986328,11,4,9,-1,-4,-10,2,0,-3,2,95,-2,-6,-1,-1,-1,-0.125,-0.125,-0.125,58.8125,58.8125,58.8125,6.332444,4.184764,2.720185,3.988708,4.092701,5.524645,-0.06874641,-0.2732914,1.500947,0.2505885,-0.2536717,1.471019,0.06266849,0.3399038,1.706737,-0.086087,-0.2570789,1.475772,0.2461201,-0.2992738,1.454111,0.06507938,-0.07183414,1.742975,0.06476928,-0.3511264,1.722866,-0.1050283,0.1055228,1.746877,-0.01418521,-0.3474864,1.698148,-0.1560761,-0.110867,1.767577,0.3026402,-0.1021774,1.736691,NA,NA,Unknown,Unknown,
0.5327148,0.7304688,0.6049805,0.5273438,-0.6352539,0.6411133,5,-2,-6,1,5,29,-3,-4,-3,0,44,1,-2,-2,0,0,-27.8125,-27.8125,-27.8125,29.9375,29.9375,29.9375,6.376758,3.91085,2.628712,3.853444,3.771253,5.686719,-0.08100951,-0.3315282,1.540699,0.2669578,-0.3181237,1.48474,0.06340767,0.340742,1.705096,-0.1019308,-0.3040335,1.505059,0.2772632,-0.3638294,1.477455,0.06568977,-0.07190772,1.741313,0.06613043,-0.3518766,1.721072,-0.1048621,0.1054355,1.746441,-0.01336071,-0.3483812,1.69672,-0.1530869,-0.1096401,1.769193,0.3013915,-0.110417,1.735115,NA,NA,Unknown,Unknown,
0.6938477,0.6196289,0.4492188,0.8969727,-0.4897461,0.4946289,-1,-3,-9,4,-2,-8,-6,-2,0,1,15,-2,2,-1,0,-1,2.9375,2.9375,2.9375,-9.3125,-9.3125,-9.3125,6.444494,3.641568,2.511982,3.743226,3.537012,5.842643,-0.1145496,-0.3622935,1.577484,0.2857762,-0.3646084,1.512791,0.06409709,0.3411221,1.704054,-0.07985456,-0.3665972,1.58375,0.3041072,-0.3765447,1.486542,0.06643732,-0.07212722,1.740323,0.06668098,-0.3524225,1.720776,-0.1044077,0.1052541,1.745787,-0.01298287,-0.3487792,1.696556,-0.1507885,-0.1166208,1.770325,0.3007923,-0.126879,1.730585,NA,NA,NotTracked,Unknown,
0.9389648,0.4130859,0.4023438,0.8955078,-0.3813477,0.4169922,-8,-1,3,-3,-3,1,1,2,-1,-2,-28,-2,-3,-7,-2,-2,6.6875,6.6875,6.6875,38.1875,38.1875,38.1875,6.540163,3.416311,2.365426,3.656287,3.349427,6.013281,-0.126761,-0.4047536,1.598526,0.2989658,-0.4049827,1.545398,0.06477181,0.3415112,1.702838,-0.100283,-0.3957444,1.615,0.3231982,-0.4214633,1.533905,0.0664927,-0.07230229,1.740131,0.06677598,-0.3533207,1.720927,-0.1039161,0.1049868,1.745256,-0.01284746,-0.3493119,1.696844,-0.1494855,-0.1244976,1.770537,0.3008715,-0.1436032,1.723537,NA,NA,NotTracked,Unknown,
0.934082,0.4428711,0.1503906,0.9355469,-0.3364258,0.2617188,9,6,12,-1,3,38,1,0,-1,-1,11,0,-11,0,-1,-1,-41.5625,-41.5625,-41.5625,37.125,37.125,37.125,6.805952,3.156337,2.08337,3.406343,3.136787,6.363865,-0.1414901,-0.4345306,1.624812,0.3060008,-0.4386287,1.574099,0.06521073,0.3416654,1.702347,-0.1218226,-0.4137116,1.614478,0.3347243,-0.4420352,1.562067,0.06656995,-0.07256736,1.739929,0.06630731,-0.354399,1.721449,-0.1037829,0.1047298,1.745156,-0.01312496,-0.3500049,1.697403,-0.1480679,-0.1367616,1.768128,0.2993544,-0.1513936,1.719598,NA,NA,NotTracked,Unknown,
1.071289,0.2226563,0.1147461,1.055664,-0.3588867,0.1640625,5,1,3,1,-1,-2,0,0,-1,-3,-32,-2,-7,-7,0,1,-18.6875,-18.6875,-18.6875,19.6875,19.6875,19.6875,7.005796,3.018758,1.779805,3.084719,3.021078,6.743388,-0.1548061,-0.4613536,1.649582,0.3121621,-0.4576442,1.598447,0.06575528,0.3418964,1.701195,-0.1337424,-0.4354602,1.64048,0.3388562,-0.4579822,1.580466,0.0666298,-0.07291301,1.739619,0.0659775,-0.3554335,1.721836,-0.1034069,0.1044632,1.744684,-0.01338326,-0.3510023,1.698193,-0.146993,-0.1444939,1.766084,0.2969986,-0.1560457,1.716258,NA,NA,NotTracked,NotTracked,
1.003906,0.4238281,0.05371094,1.041992,-0.2441406,0.05371094,4,0,-1,-3,1,1,-1,-1,-2,-2,-6,1,3,5,-3,-3,-4.25,-4.25,-4.25,61.5,61.5,61.5,7.249056,2.956764,1.531101,2.815836,2.952833,7.120876,-0.1651281,-0.4737607,1.672736,0.3136334,-0.4680159,1.613632,0.06592108,0.3419383,1.700866,-0.1409054,-0.455337,1.66,0.3418663,-0.4923116,1.608286,0.06673058,-0.07334802,1.739084,0.06591912,-0.3561673,1.721901,-0.1031608,0.104248,1.744389,-0.01336084,-0.3516276,1.698502,-0.145857,-0.1485178,1.764332,0.2950144,-0.1600507,1.715151,NA,NA,NotTracked,NotTracked,
0.9331055,0.2915039,0.121582,0.9975586,-0.2944336,0.08837891,-3,-2,0,0,0,-4,0,-1,-1,-3,-62,-5,-3,-1,-2,0,-29.4375,-29.4375,-29.4375,-6.375,-6.375,-6.375,7.269068,2.937593,1.460473,2.581578,2.920472,7.393893,-0.1702146,-0.478673,1.688936,0.310998,-0.4749839,1.619573,0.06604815,0.3421113,1.700548,-0.1470575,-0.461011,1.671371,0.3433176,-0.4715557,1.6173,0.06691749,-0.07358721,1.738762,0.06591364,-0.3568368,1.722121,-0.1027769,0.1037933,1.743898,-0.01324924,-0.3521806,1.698856,-0.1444107,-0.1588784,1.76337,0.2939502,-0.1621462,1.71557,NA,NA,NotTracked,NotTracked,
0.9160156,0.3466797,0.144043,0.9682617,-0.262207,0.09667969,0,-1,-2,-3,-1,0,0,0,-2,-2,-5,-1,-1,-2,-2,-1,11.625,11.625,11.625,8.5625,8.5625,8.5625,7.200902,2.941489,1.533101,2.636064,2.919849,7.350493,-0.1701668,-0.478725,1.694897,0.3079323,-0.4716369,1.620612,0.0661404,0.3422895,1.699991,-0.1475351,-0.4586752,1.675871,0.3013318,-0.5141312,1.654,0.06686761,-0.07372703,1.738468,0.06568924,-0.3572149,1.722388,-0.1025644,0.103439,1.74336,-0.01343476,-0.3524964,1.699163,-0.1439465,-0.1615464,1.764378,0.2930092,-0.1642384,1.716325,NA,NA,NotTracked,NotTracked,
0.9091797,0.3208008,0.1435547,0.9501953,-0.2895508,0.1230469,-1,-1,-1,-1,-2,0,-1,-2,0,0,-5,3,15,0,0,-1,-6.875,-6.875,-6.875,-4.3125,-4.3125,-4.3125,7.095056,2.961124,1.634539,2.764278,2.925859,7.216731,-0.16773,-0.4744985,1.694531,0.3049946,-0.4692688,1.61602,0.06607357,0.342468,1.699446,-0.1407445,-0.4785685,1.670166,0.3384325,-0.4693012,1.613811,0.06680473,-0.07385746,1.738359,0.06530709,-0.3576713,1.722813,-0.102479,0.1032717,1.743119,-0.01375875,-0.352829,1.6998,-0.1437572,-0.1628423,1.765322,0.2924916,-0.1644671,1.716907,NA,NA,NotTracked,NotTracked,
0.9306641,0.3291016,0.1308594,0.949707,-0.2446289,0.1020508,-1,-2,0,2,-1,-1,0,0,-2,0,4,1,15,11,-4,-2,12.25,12.25,12.25,11.125,11.125,11.125,6.990708,2.993943,1.76567,2.997701,2.94912,7.010346,-0.163609,-0.4696348,1.68469,0.3023421,-0.4645992,1.606604,0.06569725,0.3425631,1.698648,-0.1354544,-0.4770005,1.65937,0.330373,-0.4702173,1.601267,0.06689133,-0.07396096,1.738107,0.06540379,-0.3578702,1.72283,-0.1022679,0.102985,1.74255,-0.01362563,-0.3530201,1.699861,-0.1434644,-0.1640946,1.765731,0.2919073,-0.1648676,1.716788,NA,NA,NotTracked,NotTracked,
