ALX,ALY,ALZ,ARX,ARY,ARZ,EMG0L,EMG1L,EMG2L,EMG3L,EMG4L,EMG5L,EMG6L,EMG7L,EMG0R,EMG1R,EMG2R,EMG3R,EMG4R,EMG5R,EMG6R,EMG7R,GLX,GLY,GLZ,GRX,GRY,GRZ,ORL,OPL,OYL,ORR,OPR,OYR,LHNX,LHNY,LHNZ,RHNX,RHNY,RHNZ,HX,HY,HZ,LTX,LTY,LTZ,RTX,RTY,RTZ,SpineMidX,SpineMidY,SpineMidZ,SpineBaseX,SpineBaseY,SpineBaseZ,ShoulderLeftX,ShoulderLeftY,ShoulderLeftZ,ShoulderRightX,ShoulderRightY,ShoulderRightZ,ElbowLeftX,ElbowLeftY,ElbowLeftZ,ElbowRightX,ElbowRightY,ElbowRightZ,Myo_Pose_left,Myo_Pose_Right,Kinect_pose_left,Kinect_pose_right
0.9238281,0.2719727,0.1870117,0.9589844,-0.2490234,0.09912109,1,-1,-4,-1,-2,-1,-2,-1,-1,-1,-2,1,17,13,-1,1,-0.5625,-0.5625,-0.5625,-0.1875,-0.1875,-0.1875,6.704148,3.040741,6.432641,2.992578,2.929835,6.889687,-0.1450786,-0.4703053,1.675643,0.2681176,-0.454172,1.591205,0.05350963,0.3413209,1.689516,-0.108784,-0.4656554,1.65761,0.2887532,-0.4532267,1.563459,0.05742175,-0.07808565,1.738568,0.05675107,-0.3639863,1.727115,-0.1156574,0.09647618,1.739844,-0.02154284,-0.3596415,1.705601,-0.149757,-0.1599572,1.755707,0.2691407,-0.152735,1.720012,NA,NA,NotTracked,NotTracked,
0.9116211,0.2963867,0.1816406,0.9589844,-0.2490234,0.09912109,0,-2,-2,-2,-2,-2,-1,-2,-1,-1,-2,1,17,13,-1,1,-1.0625,-1.0625,-1.0625,-0.1875,-0.1875,-0.1875,6.703393,3.04113,6.432956,2.992578,2.929835,6.889687,-0.143427,-0.4730039,1.674607,0.2678922,-0.4545744,1.591384,0.05363277,0.3413653,1.689107,-0.1007222,-0.4701191,1.67475,0.2744391,-0.4508003,1.550431,0.05745287,-0.07806829,1.738474,0.05677509,-0.3639971,1.727096,-0.1152017,0.09654494,1.739485,-0.02151594,-0.3596416,1.705576,-0.1495921,-0.1601873,1.755756,0.2690949,-0.1524409,1.720052,NA,NA,NotTracked,NotTracked,
0.9248047,0.2866211,0.1821289,0.9589844,-0.2490234,0.09912109,-1,-1,-2,2,-1,0,-1,1,-1,-1,-2,1,17,13,-1,1,1.125,1.125,1.125,-0.1875,-0.1875,-0.1875,6.69805,3.040838,6.43622,2.992578,2.929835,6.889687,-0.1425063,-0.4732231,1.673712,0.2675217,-0.4546916,1.590747,0.05365297,0.3413935,1.688871,-0.1063616,-0.4829538,1.681539,0.292199,-0.452513,1.5695,0.05742011,-0.07804937,1.738332,0.0567974,-0.3639976,1.726943,-0.1150365,0.09669409,1.739148,-0.02149416,-0.3595932,1.705404,-0.1495869,-0.1601024,1.755716,0.2690981,-0.1523374,1.720099,NA,NA,NotTracked,NotTracked,
0.9077148,0.2885742,0.1796875,0.9589844,-0.2490234,0.09912109,-2,-2,2,2,-2,-1,-1,-2,-1,-1,-2,1,17,13,-1,1,-1.6875,-1.6875,-1.6875,-0.1875,-0.1875,-0.1875,6.698359,3.041999,6.435557,2.992578,2.929835,6.889687,-0.1419786,-0.4741625,1.673362,0.2688674,-0.4516533,1.592104,0.05367801,0.3414245,1.688808,-0.09577918,-0.4656341,1.6564,0.2934687,-0.4427077,1.574977,0.05741563,-0.07802042,1.738207,0.05678935,-0.363957,1.726877,-0.1169102,0.09647874,1.739933,-0.02149527,-0.3595531,1.705343,-0.1497006,-0.1592781,1.755482,0.2690682,-0.1523157,1.720086,NA,NA,NotTracked,NotTracked,
0.9174805,0.2890625,0.1870117,0.9589844,-0.2490234,0.09912109,1,-2,-1,-1,-1,-2,-2,-1,-1,-1,-2,1,17,13,-1,1,2.5625,2.5625,2.5625,-0.1875,-0.1875,-0.1875,6.699934,3.043026,6.43443,2.992578,2.929835,6.889687,-0.1419365,-0.475228,1.673333,0.2692579,-0.451634,1.593609,0.05371132,0.3414069,1.688789,-0.106713,-0.4861461,1.680727,0.293796,-0.4523574,1.56975,0.05742401,-0.07801294,1.738188,0.05681475,-0.3639651,1.726864,-0.1159713,0.09669991,1.739433,-0.02147005,-0.3595575,1.705331,-0.1495642,-0.1595468,1.755418,0.2690896,-0.1524981,1.720196,NA,NA,NotTracked,NotTracked,
0.9282227,0.2788086,0.1762695,0.9589844,-0.2490234,0.09912109,1,0,-2,-3,-2,0,1,0,-1,-1,-2,1,17,13,-1,1,-2,-2,-2,-0.1875,-0.1875,-0.1875,6.699362,3.047411,6.433426,2.992578,2.929835,6.889687,-0.1414528,-0.474655,1.671582,0.2687894,-0.4532516,1.59107,0.05374473,0.3414263,1.688773,-0.1047842,-0.4848951,1.6782,0.2893482,-0.451315,1.564904,0.05741879,-0.07798234,1.738066,0.056775,-0.3639224,1.7268,-0.1153398,0.09695463,1.738806,-0.02153517,-0.3594272,1.705236,-0.1496041,-0.1591934,1.755133,0.2690794,-0.1526774,1.720175,NA,NA,NotTracked,NotTracked,
0.9458008,0.2939453,0.1723633,0.9589844,-0.2490234,0.09912109,-4,4,0,0,1,2,-2,-4,-1,-1,-2,1,17,13,-1,1,-2.625,-2.625,-2.625,-0.1875,-0.1875,-0.1875,6.690078,3.054672,6.445868,2.992578,2.929835,6.889687,-0.1390697,-0.4755449,1.669467,0.2686859,-0.4525074,1.588856,0.05384897,0.3413708,1.68864,-0.09995794,-0.4714511,1.678182,0.2895605,-0.4518033,1.563412,0.05743538,-0.07797427,1.73796,0.05678972,-0.3639384,1.726632,-0.1146682,0.09710624,1.738399,-0.02152436,-0.3593994,1.70508,-0.1496277,-0.1590403,1.755076,0.2691066,-0.152519,1.720277,NA,NA,NotTracked,NotTracked,
0.9780273,0.2880859,0.1787109,0.9589844,-0.2490234,0.09912109,3,-13,-12,-15,-3,-4,-3,-47,-1,-1,-2,1,17,13,-1,1,4.5625,4.5625,4.5625,-0.1875,-0.1875,-0.1875,6.656188,3.071772,6.480071,2.992578,2.929835,6.889687,-0.1393982,-0.4641406,1.669424,0.2679272,-0.4482597,1.585234,0.05390981,0.3413913,1.68853,-0.0937534,-0.4559804,1.656545,0.2948582,-0.4437794,1.566288,0.05743181,-0.07797123,1.737784,0.05683622,-0.3639921,1.72649,-0.1143394,0.09703915,1.73798,-0.02148936,-0.3594051,1.704973,-0.149757,-0.1585827,1.755256,0.2692828,-0.152329,1.720515,NA,NA,NotTracked,NotTracked,
1.046875,0.2788086,0.1748047,0.9589844,-0.2490234,0.09912109,-1,7,3,2,0,1,-2,28,-1,-1,-2,1,17,13,-1,1,-33.9375,-33.9375,-33.9375,-0.1875,-0.1875,-0.1875,6.55422,3.124656,6.552107,2.992578,2.929835,6.889687,-0.1367189,-0.4599414,1.658501,0.2651943,-0.4383241,1.572292,0.05408628,0.3413391,1.68819,-0.09683289,-0.4642119,1.662827,0.2956893,-0.4460755,1.564463,0.05770244,-0.07804026,1.736981,0.05696499,-0.363983,1.725932,-0.113907,0.09714386,1.737299,-0.02136448,-0.359379,1.70438,-0.1496827,-0.158309,1.756158,0.2701834,-0.1511808,1.722144,NA,NA,NotTracked,NotTracked,
1.120117,0.3740234,0.3417969,0.9589844,-0.2490234,0.09912109,-13,-30,-14,4,7,0,1,-4,-1,-1,-2,1,17,13,-1,1,3.625,3.625,3.625,-0.1875,-0.1875,-0.1875,6.425385,3.268741,6.665102,2.992578,2.929835,6.889687,-0.135488,-0.4391609,1.626717,0.265985,-0.4003195,1.544771,0.05422307,0.3412331,1.687574,-0.100573,-0.4196738,1.623182,0.2855332,-0.3864042,1.517197,0.05808284,-0.07784717,1.736058,0.05741164,-0.363741,1.725024,-0.1130285,0.09771063,1.736615,-0.02097545,-0.3590544,1.703283,-0.150355,-0.1552442,1.761621,0.2721484,-0.1480658,1.730131,NA,NA,NotTracked,NotTracked,
0.9912109,0.6313477,0.5776367,0.9589844,-0.2490234,0.09912109,1,-2,20,1,1,-1,-3,3,-1,-1,-2,1,17,13,-1,1,-3.875,-3.875,-3.875,-0.1875,-0.1875,-0.1875,6.355117,3.536891,6.756667,2.992578,2.929835,6.889687,-0.1485333,-0.3713343,1.5839,0.2673356,-0.3307965,1.504831,0.0547144,0.3413307,1.686479,-0.1121807,-0.3701179,1.5612,0.3027262,-0.3515585,1.48821,0.05833392,-0.07720078,1.735153,0.0575882,-0.3626377,1.724214,-0.1118375,0.09924179,1.736059,-0.02101678,-0.3577237,1.702075,-0.1504493,-0.1430636,1.774909,0.2735459,-0.1322053,1.746781,NA,NA,NotTracked,Unknown,
0.3813477,0.6811523,0.5571289,0.9589844,-0.2490234,0.09912109,-6,2,-6,-19,-6,-1,10,-4,-1,-1,-2,1,17,13,-1,1,2.875,2.875,2.875,-0.1875,-0.1875,-0.1875,6.306124,3.993483,6.83474,2.992578,2.929835,6.889687,-0.1515143,-0.2941002,1.531084,0.2690475,-0.2431742,1.470108,0.05513192,0.3412545,1.685341,-0.1115623,-0.2907643,1.524429,0.3034151,-0.2589639,1.450826,0.05870182,-0.07652807,1.734237,0.05793615,-0.3611178,1.723304,-0.1108585,0.1011913,1.735903,-0.02092664,-0.3565001,1.700979,-0.1490567,-0.125469,1.783944,0.2734269,-0.1187362,1.75421,NA,NA,Unknown,Closed,
0.2856445,0.644043,0.581543,0.9589844,-0.2490234,0.09912109,-7,-14,-1,22,-8,-7,-32,12,-1,-1,-2,1,17,13,-1,1,22.375,22.375,22.375,-0.1875,-0.1875,-0.1875,6.305983,4.346763,6.873079,2.992578,2.929835,6.889687,-0.1553925,-0.2053584,1.499311,0.2702164,-0.1582566,1.443491,0.05550805,0.3409575,1.684421,-0.1115057,-0.2017423,1.492143,0.3090142,-0.1643952,1.437409,0.05906928,-0.07604905,1.733738,0.05808312,-0.3598931,1.723071,-0.1098478,0.1034085,1.735795,-0.02098627,-0.3552431,1.70047,-0.1483069,-0.1109262,1.786041,0.2777371,-0.09838352,1.756534,NA,NA,Closed,Unknown,
0.07861328,0.6303711,0.6166992,0.9589844,-0.2490234,0.09912109,-21,-13,17,-10,6,-4,-9,24,-1,-1,-2,1,17,13,-1,1,29.3125,29.3125,29.3125,-0.1875,-0.1875,-0.1875,6.33372,4.681128,6.907297,2.992578,2.929835,6.889687,-0.1602079,-0.1245843,1.486393,0.2741385,-0.08674548,1.453194,0.05589768,0.3408604,1.683508,-0.1165096,-0.1240208,1.480143,0.2954711,-0.1179942,1.46625,0.05915344,-0.07551693,1.733382,0.05807701,-0.358923,1.722969,-0.10901,0.1050276,1.735454,-0.0211354,-0.354275,1.700089,-0.1557077,-0.1072187,1.786944,0.2805108,-0.102563,1.737446,NA,NA,Unknown,Unknown,
-0.07470703,0.5751953,0.6225586,0.9589844,-0.2490234,0.09912109,-66,-34,-4,-3,-40,-22,2,1,-1,-1,-2,1,17,13,-1,1,19.625,19.625,19.625,-0.1875,-0.1875,-0.1875,6.375724,5.033825,6.944926,2.992578,2.929835,6.889687,-0.1596001,-0.07947339,1.508477,0.2759023,-0.04189325,1.466215,0.05622433,0.3407528,1.6833,-0.1281456,-0.09013741,1.488734,0.3001308,-0.07444299,1.458296,0.05908517,-0.0752905,1.733379,0.05784142,-0.3583815,1.723038,-0.1079684,0.1067046,1.735078,-0.02148992,-0.353616,1.699986,-0.1395995,-0.1481845,1.705055,0.2730809,-0.109724,1.716987,NA,NA,Unknown,Unknown,
-0.06640625,0.6616211,0.6206055,0.9589844,-0.2490234,0.09912109,26,-22,-25,11,1,0,-67,-1,-1,-1,-2,1,17,13,-1,1,24.125,24.125,24.125,-0.1875,-0.1875,-0.1875,6.398116,5.151726,6.960766,2.992578,2.929835,6.889687,-0.1640104,-0.05160232,1.510083,0.2767776,-0.01973258,1.47319,0.05665891,0.3407784,1.683567,-0.1307611,-0.06438433,1.490334,0.3063217,-0.03399744,1.442294,0.05910287,-0.07511964,1.733371,0.05772511,-0.3581299,1.723077,-0.106857,0.107815,1.734585,-0.02167771,-0.353274,1.699943,-0.1466492,-0.1406883,1.70944,0.2772776,-0.1074516,1.709348,NA,NA,Closed,Closed,
-0.1347656,0.5585938,0.6918945,0.9589844,-0.2490234,0.09912109,-81,-44,0,-34,24,-5,-10,34,-1,-1,-2,1,17,13,-1,1,0.3125,0.3125,0.3125,-0.1875,-0.1875,-0.1875,6.395546,5.240819,6.968407,2.992578,2.929835,6.889687,-0.1662134,-0.039935,1.512423,0.2765634,-0.0100841,1.474206,0.05708578,0.3409521,1.684151,-0.1380484,-0.05699823,1.492944,0.3063532,-0.04373756,1.46847,0.05914712,-0.07501428,1.733406,0.05768257,-0.3580078,1.723081,-0.1061409,0.1084443,1.734096,-0.02176084,-0.3531404,1.699952,-0.1501599,-0.1360791,1.714121,0.2808313,-0.1064782,1.706254,NA,NA,Closed,Closed,
-0.1699219,0.7543945,0.628418,0.9589844,-0.2490234,0.09912109,-16,-90,-41,-10,7,-26,3,22,-1,-1,-2,1,17,13,-1,1,-16.0625,-16.0625,-16.0625,-0.1875,-0.1875,-0.1875,6.364272,5.303318,6.933255,2.992578,2.929835,6.889687,-0.1679933,-0.04236534,1.511197,0.2767083,-0.01893801,1.471219,0.05747858,0.3411695,1.684364,-0.1310473,-0.05127319,1.499138,0.3108022,-0.03414289,1.452353,0.05922339,-0.07480419,1.733138,0.05772565,-0.3576994,1.722623,-0.1055153,0.1091565,1.733112,-0.02176341,-0.3527186,1.699436,-0.1504325,-0.1281432,1.716116,0.2812331,-0.1064475,1.704752,NA,NA,Closed,Closed,
-0.1723633,0.590332,0.5722656,0.9589844,-0.2490234,0.09912109,-1,61,43,33,49,52,-11,3,-1,-1,-2,1,17,13,-1,1,-20,-20,-20,-0.1875,-0.1875,-0.1875,6.295063,5.164887,6.891321,2.992578,2.929835,6.889687,-0.1691443,-0.06639925,1.504779,0.2763981,-0.05139004,1.459665,0.05786262,0.3413289,1.684773,-0.1319463,-0.07500705,1.49181,0.3110057,-0.05857234,1.438235,0.05936197,-0.07451086,1.732893,0.05782188,-0.3569736,1.721809,-0.1053353,0.1097126,1.732716,-0.02174434,-0.3519792,1.698586,-0.1496527,-0.1140625,1.722897,0.2783744,-0.1072931,1.705711,NA,NA,Closed,Closed,
-0.2358398,0.6264648,0.4731445,0.9589844,-0.2490234,0.09912109,-29,-68,-15,-38,-1,-84,-18,-75,-1,-1,-2,1,17,13,-1,1,-35.4375,-35.4375,-35.4375,-0.1875,-0.1875,-0.1875,6.26826,4.998704,6.873844,2.992578,2.929835,6.889687,-0.1723864,-0.1231325,1.487784,0.2759657,-0.1257199,1.44195,0.0580173,0.3413296,1.684895,-0.1421998,-0.1143889,1.485957,0.3192358,-0.1282412,1.433125,0.05951334,-0.0741455,1.73233,0.05807845,-0.3563852,1.720645,-0.1054305,0.109657,1.732506,-0.02155026,-0.351328,1.697289,-0.1512047,-0.1111325,1.750436,0.2753525,-0.1015965,1.736607,NA,NA,Unknown,Unknown,
-0.05712891,0.4477539,0.4379883,0.9589844,-0.2490234,0.09912109,-85,49,70,97,-30,12,3,-31,-1,-1,-2,1,17,13,-1,1,-7.0625,-7.0625,-7.0625,-0.1875,-0.1875,-0.1875,6.230281,4.627804,6.850836,2.992578,2.929835,6.889687,-0.1772995,-0.2428443,1.497087,0.2802221,-0.2343061,1.452443,0.05811886,0.3415498,1.685387,-0.1398536,-0.2514907,1.518111,0.3118712,-0.2165746,1.471,0.05966384,-0.07384069,1.731861,0.05837094,-0.3559291,1.719728,-0.1059401,0.109091,1.732495,-0.02126264,-0.3507859,1.696196,-0.1531951,-0.1095654,1.760099,0.2795969,-0.1038255,1.742524,NA,NA,Closed,Unknown,
0.9414063,0.699707,0.7885742,0.9589844,-0.2490234,0.09912109,-4,45,28,22,-13,-47,-56,-4,-1,-1,-2,1,17,13,-1,1,27.25,27.25,27.25,-0.1875,-0.1875,-0.1875,6.254632,4.075225,6.77646,2.992578,2.929835,6.889687,-0.1825991,-0.3228887,1.530334,0.2845267,-0.314536,1.474302,0.05821661,0.3416238,1.686042,-0.1487127,-0.3297627,1.520154,0.3204067,-0.3144076,1.441406,0.05988237,-0.07378624,1.731255,0.05884673,-0.356136,1.718556,-0.1072145,0.1065199,1.731985,-0.02085442,-0.3510549,1.694937,-0.1532036,-0.1121723,1.760594,0.2775306,-0.1156535,1.736659,NA,NA,Unknown,Unknown,
0.7919922,0.9541016,0.7060547,0.9589844,-0.2490234,0.09912109,-47,-54,-58,-14,-3,40,-41,-17,-1,-1,-2,1,17,13,-1,1,19.5625,19.5625,19.5625,-0.1875,-0.1875,-0.1875,6.261599,3.801272,6.741318,2.992578,2.929835,6.889687,-0.1767605,-0.3519821,1.558084,0.2795224,-0.3361256,1.482589,0.05822184,0.3418138,1.686367,-0.1454293,-0.3571755,1.541143,0.3154756,-0.3430759,1.452051,0.06007131,-0.07371353,1.73069,0.05929979,-0.356377,1.717845,-0.1078312,0.1050607,1.731777,-0.02037543,-0.3513811,1.694328,-0.1538682,-0.1198969,1.759334,0.2765862,-0.1237099,1.730937,NA,NA,Unknown,Unknown,
0.6069336,0.652832,0.5556641,0.9589844,-0.2490234,0.09912109,1,31,33,-17,20,-75,-70,-70,-1,-1,-2,1,17,13,-1,1,15.75,15.75,15.75,-0.1875,-0.1875,-0.1875,6.260734,3.779767,6.76272,2.992578,2.929835,6.889687,-0.1682353,-0.3583057,1.566553,0.2755793,-0.335671,1.481916,0.05815722,0.3421338,1.686511,-0.1349902,-0.3656882,1.541714,0.3120415,-0.3450238,1.45341,0.06026154,-0.07353359,1.729941,0.05966451,-0.3564163,1.717173,-0.1081388,0.1047072,1.731604,-0.01994599,-0.3514324,1.693688,-0.1533646,-0.1256574,1.759512,0.2763449,-0.126294,1.728543,NA,NA,Unknown,Unknown,
0.6762695,0.5581055,0.5371094,0.9589844,-0.2490234,0.09912109,15,-3,-22,-35,-56,-60,6,-17,-1,-1,-2,1,17,13,-1,1,2.875,2.875,2.875,-0.1875,-0.1875,-0.1875,6.267614,3.792066,6.7714,2.992578,2.929835,6.889687,-0.162736,-0.35974,1.570627,0.2743828,-0.3347913,1.478657,0.05807644,0.3423215,1.686436,-0.1317902,-0.3642641,1.543882,0.3126376,-0.3412205,1.451224,0.06035723,-0.07347538,1.7295,0.05988444,-0.3565032,1.716788,-0.1084568,0.1044053,1.731615,-0.01969033,-0.3515617,1.693391,-0.152447,-0.1292059,1.76012,0.2760079,-0.1279068,1.727152,NA,NA,NotTracked,Unknown,
0.7587891,0.5507813,0.5078125,0.9589844,-0.2490234,0.09912109,2,4,-3,-10,22,44,-1,-9,-1,-1,-2,1,17,13,-1,1,8.6875,8.6875,8.6875,-0.1875,-0.1875,-0.1875,6.275881,3.803003,6.772109,2.992578,2.929835,6.889687,-0.1590346,-0.3576494,1.568102,0.2743317,-0.3310758,1.476449,0.05798746,0.3424426,1.686433,-0.129694,-0.3616374,1.534904,0.3132386,-0.3407454,1.450558,0.06044514,-0.07346814,1.72895,0.05998729,-0.3566241,1.716212,-0.1088107,0.1037371,1.731623,-0.01955884,-0.3517308,1.693112,-0.1521131,-0.129235,1.760314,0.2761143,-0.1285068,1.726108,NA,NA,NotTracked,Unknown,
0.6875,0.496582,0.4975586,0.9589844,-0.2490234,0.09912109,-8,-5,-7,3,-1,18,-19,-55,-1,-1,-2,1,17,13,-1,1,15.1875,15.1875,15.1875,-0.1875,-0.1875,-0.1875,6.285561,3.805032,6.776513,2.992578,2.929835,6.889687,-0.1563806,-0.354719,1.568077,0.2759794,-0.3295565,1.475387,0.05784031,0.3426582,1.686538,-0.1224564,-0.3608821,1.541375,0.3133607,-0.3407452,1.451173,0.0604014,-0.07343175,1.728559,0.05990461,-0.3567221,1.715704,-0.10914,0.1033119,1.731917,-0.01955551,-0.3518961,1.692884,-0.1513698,-0.130347,1.760834,0.276125,-0.1284865,1.725937,NA,NA,NotTracked,Unknown,
0.6459961,0.4833984,0.4619141,0.9589844,-0.2490234,0.09912109,10,3,8,8,8,10,-9,-12,-1,-1,-2,1,17,13,-1,1,31.75,31.75,31.75,-0.1875,-0.1875,-0.1875,6.337601,3.801155,6.775124,2.992578,2.929835,6.889687,-0.1538234,-0.3566858,1.57069,0.2781744,-0.3324111,1.476961,0.05741704,0.3431699,1.686989,-0.119198,-0.3607782,1.543187,0.3139375,-0.3403695,1.451197,0.06033989,-0.07340658,1.728439,0.05983913,-0.3567514,1.715564,-0.1094742,0.1026283,1.732477,-0.01957226,-0.3519465,1.692867,-0.1508096,-0.1311965,1.761264,0.2761332,-0.1282884,1.726226,NA,NA,NotTracked,Closed,
0.6347656,0.5581055,0.484375,0.9589844,-0.2490234,0.09912109,-1,5,0,5,3,2,1,-4,-1,-1,-2,1,17,13,-1,1,20.625,20.625,20.625,-0.1875,-0.1875,-0.1875,6.388386,3.784238,6.763985,2.992578,2.929835,6.889687,-0.1493192,-0.3640419,1.574091,0.2780055,-0.3399303,1.484857,0.05708538,0.3434893,1.687287,-0.1137165,-0.375978,1.575125,0.3143967,-0.3531021,1.460259,0.06030747,-0.0733754,1.728336,0.05972503,-0.3567512,1.715377,-0.1096976,0.1024655,1.732589,-0.01960479,-0.3519786,1.692811,-0.1510028,-0.1319632,1.761733,0.2760966,-0.1285327,1.727374,NA,NA,NotTracked,Closed,
0.6015625,0.5200195,0.4770508,0.9589844,-0.2490234,0.09912109,5,-1,7,-12,-2,0,-2,-18,-1,-1,-2,1,17,13,-1,1,10.25,10.25,10.25,-0.1875,-0.1875,-0.1875,6.459608,3.718123,6.743241,2.992578,2.929835,6.889687,-0.1461725,-0.3769218,1.583296,0.2767699,-0.3526682,1.500188,0.05661972,0.3439527,1.688049,-0.1072998,-0.3800869,1.56447,0.3151597,-0.3647293,1.473829,0.06027016,-0.0732923,1.72828,0.05967265,-0.3567335,1.715348,-0.1099236,0.1022541,1.732636,-0.0196201,-0.3519963,1.692898,-0.1518173,-0.1352118,1.76184,0.2761973,-0.1297318,1.729239,NA,NA,NotTracked,Closed,
0.6411133,0.5751953,0.4013672,0.9589844,-0.2490234,0.09912109,1,2,-1,3,-2,-1,1,5,-1,-1,-2,1,17,13,-1,1,-8.4375,-8.4375,-8.4375,-0.1875,-0.1875,-0.1875,6.489738,3.612811,6.731773,2.992578,2.929835,6.889687,-0.1409493,-0.3962,1.597431,0.2734693,-0.3773203,1.51888,0.05599755,0.3443901,1.689247,-0.1024695,-0.4020321,1.58104,0.309811,-0.4000474,1.500222,0.06025612,-0.073286,1.728269,0.05984509,-0.3568356,1.715297,-0.1100528,0.1021004,1.732671,-0.01937492,-0.3521068,1.69286,-0.1522567,-0.1395444,1.761974,0.2765215,-0.132547,1.729922,NA,NA,NotTracked,Closed,
0.7133789,0.4804688,0.4121094,0.9589844,-0.2490234,0.09912109,-1,0,0,1,1,0,-1,-16,-1,-1,-2,1,17,13,-1,1,10.9375,10.9375,10.9375,-0.1875,-0.1875,-0.1875,6.505617,3.505047,6.702139,2.992578,2.929835,6.889687,-0.1388623,-0.4138924,1.614412,0.2707388,-0.403047,1.539962,0.05546717,0.3449307,1.690426,-0.0987514,-0.4207529,1.59865,0.3055405,-0.4184516,1.525933,0.06023517,-0.0733009,1.728259,0.06005689,-0.35709,1.715228,-0.1104227,0.1016175,1.732493,-0.01899564,-0.3524613,1.692865,-0.1525849,-0.1416122,1.760299,0.2774311,-0.1389807,1.727227,NA,NA,NotTracked,Unknown,
0.8295898,0.34375,0.2856445,0.9589844,-0.2490234,0.09912109,-1,-2,-1,-3,0,0,-1,-7,-1,-1,-2,1,17,13,-1,1,-12.4375,-12.4375,-12.4375,-0.1875,-0.1875,-0.1875,6.536351,3.310382,6.65801,2.992578,2.929835,6.889687,-0.1379707,-0.4363931,1.627016,0.2704515,-0.4317423,1.56369,0.05492639,0.3454175,1.691348,-0.09684877,-0.4375189,1.609478,0.3048883,-0.4480645,1.5555,0.06010604,-0.0733964,1.72831,0.06002204,-0.3575498,1.715233,-0.1109153,0.1011982,1.732594,-0.01893798,-0.3529479,1.692997,-0.1518297,-0.1453599,1.756909,0.2777473,-0.1445563,1.722413,NA,NA,NotTracked,Unknown,
0.9311523,0.3364258,0.2714844,0.9589844,-0.2490234,0.09912109,0,-1,-2,-3,-1,-2,0,-2,-1,-1,-2,1,17,13,-1,1,21,21,21,-0.1875,-0.1875,-0.1875,6.624772,3.159647,6.568047,2.992578,2.929835,6.889687,-0.1361798,-0.4549991,1.638835,0.2721299,-0.4525543,1.584506,0.05464245,0.3459488,1.692499,-0.0870396,-0.4328418,1.632267,0.3063755,-0.4538099,1.580846,0.05995826,-0.07347938,1.728232,0.05979775,-0.3580383,1.715111,-0.1111328,0.1008231,1.732468,-0.01900268,-0.3534182,1.692984,-0.1509608,-0.1505474,1.752244,0.2768911,-0.1489885,1.715341,NA,NA,NotTracked,NotTracked,
1.018066,0.3056641,0.03710938,0.9589844,-0.2490234,0.09912109,1,1,-1,2,0,-2,2,0,-1,-1,-2,1,17,13,-1,1,-43.875,-43.875,-43.875,-0.1875,-0.1875,-0.1875,6.839378,3.000466,6.308396,2.992578,2.929835,6.889687,-0.1458429,-0.4686864,1.652759,0.2763069,-0.4644619,1.604571,0.05437066,0.34637,1.693892,-0.1105683,-0.4708787,1.618808,0.3132574,-0.4616008,1.6112,0.05986295,-0.07356366,1.728331,0.05961792,-0.3584852,1.715197,-0.111241,0.1006894,1.732516,-0.01903688,-0.3539215,1.693226,-0.1505973,-0.1536657,1.750017,0.2750496,-0.1537275,1.709016,NA,NA,NotTracked,NotTracked,
1.015137,0.2207031,0.06298828,0.9589844,-0.2490234,0.09912109,1,-2,0,-2,-1,0,0,-1,-1,-1,-2,1,17,13,-1,1,-17.1875,-17.1875,-17.1875,-0.1875,-0.1875,-0.1875,6.9763,2.933282,6.113205,2.992578,2.929835,6.889687,-0.1538578,-0.4728194,1.65979,0.2785979,-0.4677837,1.616216,0.05431211,0.3466633,1.694717,-0.1005412,-0.4765653,1.650429,0.3015278,-0.4683543,1.594865,0.05984966,-0.07358114,1.728288,0.05958293,-0.3589117,1.715015,-0.1113323,0.1004413,1.732415,-0.01895835,-0.354298,1.693166,-0.1492773,-0.1610268,1.746616,0.272841,-0.1583989,1.705701,NA,NA,NotTracked,NotTracked,
0.7290039,0.3173828,-0.5400391,0.9609375,-0.2373047,0.1191406,-3,-2,0,1,-2,-2,0,-3,-3,0,14,1,9,-1,0,-2,3.5,3.5,3.5,-10.8125,-10.8125,-10.8125,7.123044,2.913128,5.966184,2.573919,2.969614,6.975981,-0.1595397,-0.4693038,1.663094,0.2784184,-0.4663824,1.618209,0.05435097,0.3470289,1.694919,-0.1307432,-0.4797481,1.629423,0.2818944,-0.4800278,1.577634,0.05967623,-0.07348828,1.728211,0.05928419,-0.3591698,1.714991,-0.1113685,0.1003428,1.732276,-0.01913767,-0.3545252,1.693276,-0.1492405,-0.1634179,1.746353,0.2720559,-0.159845,1.70473,NA,NA,NotTracked,NotTracked,
1.488281,0.4799805,0.7475586,0.9355469,-0.2265625,0.1035156,3,1,-2,-1,-1,0,1,0,-2,-1,7,-2,-13,-6,-1,-1,-10.4375,-10.4375,-10.4375,5.75,5.75,5.75,6.828438,2.951734,6.229764,2.681192,2.975576,6.873074,-0.1615452,-0.4641331,1.665381,0.2774619,-0.4644091,1.613811,0.05445946,0.3472372,1.695096,-0.1374058,-0.4629144,1.635295,0.2829161,-0.476044,1.574656,0.05969028,-0.07348516,1.728194,0.05925781,-0.3593038,1.71499,-0.1113055,0.1003234,1.732228,-0.0191168,-0.3545885,1.69331,-0.1491954,-0.1631407,1.746775,0.2717619,-0.1605112,1.705151,NA,NA,NotTracked,NotTracked,
1.32373,0.3520508,0.08105469,0.9560547,-0.2744141,0.1210938,-1,0,-1,-1,-1,-1,-1,0,-2,-1,-4,1,4,-16,0,-1,-4.4375,-4.4375,-4.4375,-6.5,-6.5,-6.5,6.65182,2.993267,6.391911,2.736312,2.978388,6.804281,-0.1619462,-0.4611226,1.664145,0.277126,-0.4629134,1.606492,0.05469951,0.3474613,1.695076,-0.1381601,-0.4563482,1.635686,0.2955791,-0.4644582,1.576911,0.05969404,-0.07348093,1.728201,0.0592108,-0.3594164,1.715102,-0.1112255,0.1003431,1.732033,-0.01911636,-0.3546728,1.693495,-0.1492429,-0.1631958,1.746995,0.2718114,-0.1597198,1.705595,NA,NA,NotTracked,NotTracked,
0.9238281,0.2807617,0.15625,0.9355469,-0.2280273,0.06298828,-2,-1,-3,-2,0,-1,0,-1,0,-1,-6,-3,-10,5,-1,-3,0.25,0.25,0.25,-3.9375,-3.9375,-3.9375,6.640546,3.023926,6.404042,2.829827,2.97915,6.715529,-0.1567998,-0.4691662,1.654699,0.2773925,-0.4622942,1.599368,0.05492356,0.3475205,1.694923,-0.1012112,-0.425104,1.6708,0.2449995,-0.4670898,1.578057,0.05979355,-0.07347943,1.728169,0.05925277,-0.3594618,1.715146,-0.1111502,0.1003316,1.731784,-0.01902229,-0.3547088,1.693571,-0.1493645,-0.1621435,1.747299,0.2719558,-0.1595384,1.705609,NA,NA,NotTracked,NotTracked,
1.513184,0.5068359,1.052734,0.9750977,-0.2573242,0.1171875,1,-2,0,0,-1,-1,-1,-2,-1,0,2,0,0,-2,0,-3,-5.5625,-5.5625,-5.5625,-10.9375,-10.9375,-10.9375,6.528563,3.05693,6.508055,2.889955,2.984302,6.631799,-0.1585334,-0.4563884,1.657528,0.2771546,-0.4611561,1.593511,0.05509787,0.347578,1.694562,-0.1358381,-0.4491452,1.631632,0.2802122,-0.4682506,1.551645,0.05986134,-0.07346395,1.728208,0.05929614,-0.3595436,1.715362,-0.1111369,0.1003406,1.73176,-0.01892893,-0.3547683,1.693758,-0.1496301,-0.1608748,1.747531,0.2720531,-0.1594363,1.70554,NA,NA,NotTracked,NotTracked,
0.9257813,0.2758789,0.1318359,0.9433594,-0.2402344,0.1074219,0,0,-2,-2,-2,-2,-2,-2,-1,-4,-23,-2,-4,2,-1,0,11.1875,11.1875,11.1875,0.75,0.75,0.75,6.522056,3.063436,6.53687,2.951354,2.987437,6.565573,-0.1577442,-0.451724,1.655142,0.2766149,-0.4593227,1.588458,0.05515337,0.347592,1.694336,-0.1353225,-0.4372173,1.630659,0.2807972,-0.4656236,1.54524,0.05987904,-0.07345475,1.728206,0.05927755,-0.3595695,1.715463,-0.1111056,0.1003519,1.731682,-0.01894769,-0.3547876,1.693952,-0.1496947,-0.1604478,1.747469,0.2722526,-0.1589906,1.705297,NA,NA,NotTracked,NotTracked,
0.9106445,0.2724609,0.1386719,0.9301758,-0.2495117,0.1137695,0,-1,-1,-1,-2,-1,0,0,-3,-3,-9,-1,-5,-12,-1,-1,2.3125,2.3125,2.3125,0.25,0.25,0.25,6.537529,3.063324,6.532069,2.983557,2.987787,6.535462,-0.151822,-0.4648252,1.646263,0.2754585,-0.4605636,1.586886,0.05520203,0.3476362,1.693915,-0.0954645,-0.4376683,1.650333,0.2667066,-0.4974785,1.60725,0.0599012,-0.07342908,1.728249,0.05936046,-0.3595854,1.715618,-0.1110266,0.1003824,1.731603,-0.01884442,-0.354812,1.694153,-0.1497169,-0.1595168,1.747662,0.2723878,-0.1585745,1.705029,NA,NA,NotTracked,NotTracked,
0.9179688,0.2626953,0.1474609,0.9492188,-0.2480469,0.1005859,-1,-1,-1,0,0,-2,-3,-1,0,-1,-5,1,14,-7,-1,1,-0.75,-0.75,-0.75,3.0625,3.0625,3.0625,6.550603,3.058533,6.518359,2.987681,2.98135,6.537134,-0.1552148,-0.4523821,1.655607,0.2758472,-0.4616056,1.587656,0.05521433,0.3476721,1.693756,-0.1351236,-0.4447227,1.623463,0.2438189,-0.4723671,1.587865,0.05988664,-0.07343343,1.728397,0.05929849,-0.3596936,1.71603,-0.1110456,0.1003561,1.731655,-0.01888552,-0.3548831,1.694614,-0.1498248,-0.1590327,1.748099,0.2726065,-0.1581145,1.704857,NA,NA,NotTracked,NotTracked,
0.9257813,0.2851563,0.1337891,0.949707,-0.2475586,0.105957,-1,0,0,-1,-1,-1,0,0,1,0,-2,-1,-4,-14,0,1,-3.5,-3.5,-3.5,-2.5625,-2.5625,-2.5625,6.594019,3.04428,6.47221,2.966083,2.971116,6.558521,-0.155606,-0.4558592,1.655488,0.2770831,-0.4625816,1.58991,0.0551473,0.3476467,1.693351,-0.1366758,-0.4453959,1.625176,0.2667552,-0.4975556,1.6075,0.05990523,-0.07342798,1.728464,0.05923481,-0.3597322,1.71633,-0.1110396,0.1003415,1.731654,-0.01890944,-0.3549229,1.69491,-0.1498948,-0.1601423,1.748149,0.2727597,-0.1576113,1.704886,NA,NA,NotTracked,NotTracked,
0.9223633,0.269043,0.1376953,0.9516602,-0.2548828,0.1152344,0,-1,-1,-1,-1,-2,-2,-4,-1,-1,-4,-2,-2,8,-2,-2,-3.5625,-3.5625,-3.5625,2.125,2.125,2.125,6.623664,3.030809,6.43504,2.944108,2.96137,6.58128,-0.1552718,-0.4578133,1.657581,0.278447,-0.4637291,1.592806,0.05517075,0.3475999,1.693086,-0.1196189,-0.4649277,1.644333,0.2657245,-0.4927031,1.60502,0.05991286,-0.0734485,1.728492,0.05925556,-0.3598256,1.716473,-0.1110276,0.1002708,1.731646,-0.01887537,-0.355019,1.695085,-0.1498536,-0.1608417,1.748241,0.2728823,-0.1574786,1.704973,NA,NA,NotTracked,NotTracked,
