ALX,ALY,ALZ,ARX,ARY,ARZ,EMG0L,EMG1L,EMG2L,EMG3L,EMG4L,EMG5L,EMG6L,EMG7L,EMG0R,EMG1R,EMG2R,EMG3R,EMG4R,EMG5R,EMG6R,EMG7R,GLX,GLY,GLZ,GRX,GRY,GRZ,ORL,OPL,OYL,ORR,OPR,OYR,LHNX,LHNY,LHNZ,RHNX,RHNY,RHNZ,HX,HY,HZ,LTX,LTY,LTZ,RTX,RTY,RTZ,SpineMidX,SpineMidY,SpineMidZ,SpineBaseX,SpineBaseY,SpineBaseZ,ShoulderLeftX,ShoulderLeftY,ShoulderLeftZ,ShoulderRightX,ShoulderRightY,ShoulderRightZ,ElbowLeftX,ElbowLeftY,ElbowLeftZ,ElbowRightX,ElbowRightY,ElbowRightZ,Myo_Pose_left,Myo_Pose_Right,Kinect_pose_left,Kinect_pose_right
0.9296875,0.2885742,0.1337891,0.9453125,-0.2651367,0.125,1,-6,-8,-2,-1,0,-4,-10,-1,1,0,0,4,-1,0,-1,0.5,0.5,0.5,0.875,0.875,0.875,6.947878,3.014376,4.118526,3.153273,2.975167,6.435774,-0.1593723,-0.4625588,1.685603,0.2944988,-0.4625738,1.606238,0.05728879,0.343591,1.698724,-0.1462588,-0.4969579,1.703667,0.2875527,-0.5038702,1.630618,0.05934922,-0.07378143,1.740893,0.05532791,-0.3568107,1.729728,-0.1076493,0.09716307,1.745552,-0.02213147,-0.3516315,1.708527,-0.1458938,-0.1571304,1.77622,0.2809522,-0.1686518,1.716381,NA,NA,NotTracked,NotTracked,
0.9213867,0.2788086,0.1362305,0.9453125,-0.2446289,0.1206055,-2,-5,-4,-2,-1,-2,-1,1,-2,-2,5,0,-4,0,-2,0,2.625,2.625,2.625,-2.1875,-2.1875,-2.1875,6.927065,3.020492,4.139789,3.157521,2.975542,6.43066,-0.159497,-0.4617138,1.685943,0.2948306,-0.4619214,1.605571,0.05716847,0.3436189,1.698803,-0.1847568,-0.4689783,1.691706,0.2594058,-0.4809846,1.580417,0.05927762,-0.07378264,1.740938,0.05532274,-0.3568123,1.729726,-0.1076783,0.09714815,1.745586,-0.02213956,-0.3516376,1.708532,-0.1459112,-0.1571021,1.776222,0.2810328,-0.1685496,1.716496,NA,NA,NotTracked,NotTracked,
0.9243164,0.28125,0.1499023,0.9462891,-0.2631836,0.1362305,3,5,-4,-1,-2,-2,1,7,-3,-2,-3,-1,-1,-7,-6,0,4.25,4.25,4.25,-2.8125,-2.8125,-2.8125,6.921285,3.022085,4.14819,3.155639,2.976318,6.428857,-0.1597898,-0.4616901,1.684464,0.2939479,-0.4612003,1.603135,0.05706501,0.3436714,1.698947,-0.1855198,-0.4416049,1.704,0.2580671,-0.4822883,1.582112,0.05918464,-0.07378407,1.74095,0.05522393,-0.3568075,1.729739,-0.1077156,0.09715474,1.745559,-0.02224115,-0.3516394,1.708544,-0.1459237,-0.157137,1.776195,0.2810232,-0.1684691,1.716587,NA,NA,NotTracked,NotTracked,
0.921875,0.2963867,0.1552734,0.9692383,-0.2695313,0.1132813,1,-12,-4,0,0,-1,1,17,0,-1,-2,0,0,-4,4,1,0.6875,0.6875,0.6875,3.875,3.875,3.875,6.899082,3.029105,4.173265,3.156833,2.977821,6.430229,-0.1584895,-0.4623507,1.684037,0.2936526,-0.4605979,1.60199,0.05679753,0.3437392,1.699174,-0.1842011,-0.4584432,1.6881,0.2583695,-0.479777,1.580953,0.05918003,-0.07378297,1.74095,0.05524357,-0.3567928,1.729729,-0.107797,0.09718925,1.745608,-0.02221082,-0.3516336,1.708531,-0.1459165,-0.1571579,1.776197,0.2808978,-0.1681911,1.716827,NA,NA,NotTracked,NotTracked,
0.9287109,0.2788086,0.1499023,0.9575195,-0.2480469,0.1162109,4,-3,-3,0,-1,0,-2,3,-1,-1,-34,-2,2,-3,-6,-1,1.25,1.25,1.25,-2.3125,-2.3125,-2.3125,6.892418,3.03039,4.180607,3.161839,2.977332,6.425339,-0.1600525,-0.4615162,1.683822,0.2946616,-0.4591216,1.599434,0.05655283,0.3437452,1.69925,-0.1855109,-0.4565724,1.696334,0.2589785,-0.4690939,1.577147,0.05908618,-0.07383709,1.740963,0.05522239,-0.3568031,1.729735,-0.1079455,0.09714741,1.745615,-0.02223282,-0.351688,1.708562,-0.145925,-0.1573132,1.776181,0.2809171,-0.1681409,1.716941,NA,NA,NotTracked,NotTracked,
0.909668,0.2993164,0.1445313,0.9589844,-0.2651367,0.1362305,3,-3,-2,1,-2,1,1,7,-1,-1,-3,-1,-2,-3,3,-1,5.5,5.5,5.5,-5.8125,-5.8125,-5.8125,6.881403,3.033758,4.19688,3.162431,2.978962,6.417976,-0.1593326,-0.4632224,1.683521,0.2947739,-0.4585912,1.598374,0.0564687,0.34375,1.699269,-0.1848298,-0.4540601,1.691997,0.260659,-0.4629746,1.576102,0.05903686,-0.07386011,1.740939,0.05521199,-0.356814,1.72972,-0.1080684,0.09710955,1.745669,-0.02224272,-0.3516965,1.708557,-0.1459455,-0.1571905,1.776137,0.280947,-0.1679006,1.717042,NA,NA,NotTracked,NotTracked,
0.9257813,0.3110352,0.1425781,0.9560547,-0.2670898,0.1293945,-15,-1,6,3,-1,-2,-2,-19,-1,-1,-13,3,-18,1,1,-3,0.4375,0.4375,0.4375,-1.125,-1.125,-1.125,6.86216,3.039546,4.220262,3.167939,2.98186,6.410904,-0.1595795,-0.4613782,1.682899,0.294864,-0.4561839,1.595685,0.05635796,0.3436981,1.699219,-0.1849473,-0.456248,1.688651,0.2596868,-0.4578943,1.577448,0.05890714,-0.07390368,1.74092,0.05519902,-0.3568316,1.729692,-0.1081067,0.09703875,1.745629,-0.02225613,-0.3517289,1.708497,-0.1459479,-0.1571854,1.776123,0.2809396,-0.1677472,1.717191,NA,NA,NotTracked,NotTracked,
0.9282227,0.2661133,0.1723633,0.9667969,-0.2324219,0.1264648,-6,-2,-2,-3,-2,0,-1,12,-3,-1,-13,-4,0,-15,1,7,1.25,1.25,1.25,-4.1875,-4.1875,-4.1875,6.837711,3.040416,4.244805,3.195068,2.986679,6.380869,-0.1600484,-0.4631926,1.683943,0.2948616,-0.4540895,1.596577,0.05624137,0.3436898,1.699419,-0.1511594,-0.5033124,1.707,0.2590195,-0.4584373,1.575207,0.05888071,-0.07391368,1.740935,0.05519692,-0.3568478,1.729712,-0.1081979,0.09693424,1.745685,-0.02225573,-0.3517412,1.708514,-0.145939,-0.157134,1.776165,0.2808172,-0.1675305,1.71775,NA,NA,NotTracked,NotTracked,
0.9223633,0.3149414,0.1547852,0.9589844,-0.2353516,0.1396484,1,0,10,3,-1,0,8,15,-3,-2,6,3,28,3,-18,2,9.4375,9.4375,9.4375,-11.9375,-11.9375,-11.9375,6.827151,3.044454,4.264629,3.205383,2.989363,6.363356,-0.1598825,-0.4617842,1.682526,0.2933355,-0.4525721,1.59277,0.05602985,0.3437101,1.699602,-0.1872866,-0.4622132,1.6835,0.2537471,-0.468015,1.563445,0.05881468,-0.07394084,1.74093,0.05514805,-0.3568669,1.729661,-0.108243,0.09683755,1.745685,-0.02230288,-0.3517658,1.708482,-0.1458495,-0.1572432,1.776405,0.2806762,-0.1671285,1.718066,NA,NA,NotTracked,NotTracked,
0.9394531,0.2885742,0.1303711,0.9848633,-0.284668,0.1699219,7,7,-3,-1,2,-2,0,3,0,0,12,-6,-19,-26,20,10,1.8125,1.8125,1.8125,-11.9375,-11.9375,-11.9375,6.807775,3.051482,4.289577,3.229977,3.000376,6.322318,-0.1592234,-0.4645967,1.679243,0.2936138,-0.4506935,1.5909,0.05599553,0.3437214,1.699619,-0.1526145,-0.4985889,1.7145,0.254835,-0.463804,1.563207,0.05876507,-0.07394562,1.740938,0.05514726,-0.356869,1.729664,-0.1082391,0.09685618,1.745685,-0.02231007,-0.3517729,1.708495,-0.1459621,-0.1575115,1.776472,0.2805988,-0.1670509,1.718295,NA,NA,NotTracked,NotTracked,
0.9418945,0.2783203,0.1845703,0.9609375,-0.2836914,0.1713867,4,-2,3,4,0,1,14,-3,-2,-4,-73,2,-7,-4,-1,8,5.9375,5.9375,5.9375,5.3125,5.3125,5.3125,6.767308,3.060376,4.33383,3.302777,3.027183,6.247482,-0.159085,-0.4619874,1.674504,0.2939998,-0.4473667,1.586796,0.0558624,0.343644,1.699572,-0.1868329,-0.4675087,1.680917,0.2562623,-0.4498847,1.571515,0.05869802,-0.07395774,1.740893,0.05510423,-0.3568819,1.729603,-0.1082651,0.09684613,1.745685,-0.022362,-0.3517932,1.708396,-0.1458086,-0.1569861,1.77678,0.2804246,-0.1667576,1.71847,NA,NA,NotTracked,NotTracked,
0.9355469,0.2880859,0.1591797,0.9521484,-0.3120117,0.2016602,-1,0,4,0,-1,0,0,-16,-3,-4,-17,-8,-4,-27,-19,3,12.1875,12.1875,12.1875,12.4375,12.4375,12.4375,6.757468,3.068282,4.351357,3.333114,3.04503,6.222935,-0.1593779,-0.4599374,1.672053,0.2933381,-0.4452325,1.58339,0.05582497,0.3435977,1.699522,-0.1900523,-0.4578355,1.680636,0.2489262,-0.4600256,1.568112,0.05864801,-0.0739578,1.740881,0.05510708,-0.3568845,1.72958,-0.1082757,0.09685515,1.745663,-0.02236407,-0.3518004,1.708374,-0.1458276,-0.1570688,1.777027,0.2803279,-0.166572,1.718806,NA,NA,NotTracked,NotTracked,
0.9331055,0.3535156,0.171875,0.9467773,-0.3442383,0.2436523,-1,-4,-11,2,-14,4,-13,-15,1,0,14,-2,6,66,10,18,9.9375,9.9375,9.9375,8.6875,8.6875,8.6875,6.744965,3.080497,4.370741,3.418015,3.110613,6.153403,-0.1623414,-0.4466857,1.670654,0.2914422,-0.4412287,1.579729,0.05580273,0.3435984,1.699485,-0.191633,-0.4463169,1.677,0.2497864,-0.4535606,1.549,0.0586558,-0.07396898,1.740855,0.05522373,-0.3568921,1.729504,-0.1082771,0.09685487,1.745663,-0.0222497,-0.351818,1.708296,-0.1457262,-0.1566717,1.777351,0.2801898,-0.1659821,1.719554,NA,NA,NotTracked,NotTracked,
0.9555664,0.3120117,0.2456055,0.9472656,-0.3720703,0.2412109,4,-2,-9,1,-21,-1,4,15,-3,-1,14,-5,0,-32,-32,-10,3.5625,3.5625,3.5625,10,10,10,6.654936,3.129369,4.46791,3.445916,3.137861,6.129173,-0.1661482,-0.4417321,1.654326,0.2890913,-0.4263301,1.569854,0.05572213,0.3435713,1.699627,-0.1975062,-0.4393126,1.658929,0.2467089,-0.4381197,1.53825,0.05866031,-0.07397778,1.740857,0.05545814,-0.3569105,1.729404,-0.1082347,0.09694546,1.74576,-0.0220427,-0.3518656,1.708179,-0.1453451,-0.1561281,1.778497,0.2800041,-0.1645834,1.721824,NA,NA,NotTracked,NotTracked,
0.9287109,0.40625,0.2880859,0.9277344,-0.3759766,0.2744141,-20,0,-6,-3,-1,-2,26,-11,-5,0,3,6,2,-13,5,-7,-10.9375,-10.9375,-10.9375,8.375,8.375,8.375,6.560249,3.219157,4.56648,3.535427,3.237149,6.051122,-0.16785,-0.4249515,1.651824,0.2871338,-0.414241,1.562371,0.05571782,0.3435745,1.699611,-0.2003017,-0.4305525,1.641333,0.24547,-0.4254476,1.528455,0.05876989,-0.07395922,1.740747,0.05588132,-0.3568307,1.729084,-0.1081734,0.09695877,1.745793,-0.02160871,-0.35187,1.707785,-0.1446882,-0.1567623,1.779392,0.2796021,-0.1633061,1.723542,NA,NA,NotTracked,NotTracked,
0.9106445,0.4169922,0.3754883,0.9174805,-0.4145508,0.3046875,1,-22,-3,9,-30,-7,1,-24,-5,-2,-6,-3,9,4,-2,-5,-3.6875,-3.6875,-3.6875,4,4,4,6.490384,3.302591,4.636514,3.555118,3.27807,6.031294,-0.1703724,-0.4118181,1.64396,0.2860988,-0.402304,1.552747,0.05571748,0.3435747,1.699608,-0.2033217,-0.4176308,1.627929,0.2456743,-0.4084327,1.524367,0.05905616,-0.07383065,1.74046,0.05662195,-0.3565114,1.728628,-0.1081313,0.09710938,1.745788,-0.02091637,-0.3515889,1.707268,-0.1442759,-0.1554496,1.78045,0.2786448,-0.1601416,1.726314,NA,NA,NotTracked,NotTracked,
0.9384766,0.4726563,0.3847656,0.8666992,-0.4726563,0.3842773,-8,-10,5,4,-6,2,16,2,0,0,-6,7,-36,21,-82,-19,-10.125,-10.125,-10.125,-16.5,-16.5,-16.5,6.460345,3.352589,4.664186,3.577204,3.419188,5.984288,-0.1751198,-0.4033069,1.629429,0.2837219,-0.3894306,1.542779,0.05571713,0.343569,1.699604,-0.1762497,-0.388334,1.648846,0.2400655,-0.3941794,1.523786,0.05927985,-0.07374565,1.740357,0.05705997,-0.3563061,1.728418,-0.1080793,0.09715306,1.745821,-0.02051921,-0.3514026,1.707024,-0.1440025,-0.155659,1.781152,0.2771756,-0.1560943,1.730263,NA,NA,NotTracked,NotTracked,
0.7421875,0.5400391,0.4560547,0.7695313,-0.4262695,0.4116211,-17,-48,-30,13,9,22,1,-13,0,3,48,22,23,-56,20,38,2.9375,2.9375,2.9375,2.9375,2.9375,2.9375,6.357566,3.637206,4.761481,3.612292,3.584416,5.941126,-0.1762584,-0.3673511,1.618746,0.2801411,-0.3579873,1.518115,0.05582756,0.3434394,1.699441,-0.2217936,-0.3839484,1.5984,0.2334668,-0.368852,1.499133,0.0597417,-0.07354342,1.74015,0.05791834,-0.3557534,1.728058,-0.1078696,0.09746648,1.745999,-0.01982641,-0.3509185,1.706581,-0.1434186,-0.1524385,1.783614,0.2746292,-0.1482574,1.736217,NA,NA,NotTracked,NotTracked,
0.6645508,0.5429688,0.4589844,0.7685547,-0.5385742,0.4956055,-11,4,8,-6,1,38,-17,-8,15,10,2,-4,-6,15,10,33,-6.125,-6.125,-6.125,-33.6875,-33.6875,-33.6875,6.347511,3.69851,4.771118,3.600402,3.696872,5.920597,-0.1820265,-0.3538908,1.599982,0.2809008,-0.3389879,1.508072,0.05588939,0.3433735,1.699326,-0.2297159,-0.3720118,1.5945,0.2375793,-0.3402474,1.4856,0.05985349,-0.07345594,1.739982,0.05798502,-0.3555041,1.727872,-0.1076845,0.0975619,1.746111,-0.01981417,-0.3507355,1.706406,-0.1427305,-0.1466138,1.785863,0.2737475,-0.145749,1.737863,NA,NA,NotTracked,Closed,
0.6606445,0.5444336,0.5239258,0.6665039,-0.5869141,0.4882813,34,-13,-5,-15,21,32,-17,-30,-3,-3,-26,-17,-41,2,46,16,-16.9375,-16.9375,-16.9375,5.125,5.125,5.125,6.321154,3.81631,4.781544,3.610777,3.815297,5.896321,-0.1699347,-0.3186907,1.586662,0.2810055,-0.3048681,1.481447,0.0561069,0.3432617,1.699195,-0.2230923,-0.345987,1.541,0.2373035,-0.3033372,1.472072,0.05997434,-0.0732815,1.739952,0.05814271,-0.3550252,1.727746,-0.1071152,0.09834259,1.7464,-0.01979914,-0.3501696,1.706092,-0.1417161,-0.1362677,1.790359,0.2721039,-0.1389212,1.741482,NA,NA,Unknown,Unknown,
0.6484375,0.5175781,0.5292969,0.6499023,-0.5063477,0.5063477,5,10,-1,22,-20,27,-1,7,-2,-1,-5,3,-10,6,-7,15,-9.0625,-9.0625,-9.0625,-6.25,-6.25,-6.25,6.312533,3.871899,4.78543,3.628907,3.924048,5.875258,-0.1649244,-0.304847,1.580114,0.2816635,-0.2870752,1.472123,0.0563965,0.3431603,1.699162,-0.1721416,-0.2842078,1.5628,0.2400115,-0.2830121,1.475556,0.06007368,-0.07318077,1.739955,0.05828712,-0.3547283,1.727658,-0.1068694,0.09876972,1.746524,-0.01971694,-0.3498837,1.705967,-0.1420363,-0.1309639,1.791206,0.271575,-0.1330409,1.742977,NA,NA,Unknown,Unknown,
0.5732422,0.6054688,0.5644531,0.6142578,-0.6699219,0.5742188,5,-7,3,-12,-11,47,25,2,-4,-2,14,1,37,29,82,-42,-14.125,-14.125,-14.125,-8.4375,-8.4375,-8.4375,6.297027,4.040957,4.791008,3.620683,4.037955,5.864808,-0.1627657,-0.2918903,1.580154,0.2842525,-0.2692662,1.463103,0.05656018,0.3431488,1.699194,-0.1653218,-0.2845761,1.547,0.2389928,-0.2652681,1.448857,0.0601882,-0.0730611,1.740043,0.05837025,-0.3544693,1.727718,-0.1067177,0.09897497,1.746784,-0.01968912,-0.3496209,1.705996,-0.1418627,-0.128756,1.791575,0.2710655,-0.128894,1.744087,NA,NA,Unknown,Unknown,
0.4980469,0.6445313,0.6147461,0.5610352,-0.6181641,0.5698242,-4,3,-9,-11,14,23,-1,-14,1,-4,3,-16,-21,-47,-16,13,-6.875,-6.875,-6.875,18.3125,18.3125,18.3125,6.284117,4.206182,4.796263,3.645818,4.148219,5.848186,-0.1973268,-0.2583738,1.542743,0.2874128,-0.2495982,1.456144,0.05670369,0.343118,1.699223,-0.238489,-0.2590035,1.5552,0.2406973,-0.2438836,1.445143,0.06031707,-0.07296445,1.740137,0.05861618,-0.3542154,1.727811,-0.1065691,0.09927299,1.747039,-0.01953156,-0.3493026,1.706017,-0.1416845,-0.1277765,1.791632,0.270605,-0.126853,1.744644,NA,NA,Unknown,Unknown,
0.434082,0.6137695,0.6411133,0.480957,-0.6254883,0.5981445,-3,0,13,2,48,-31,-12,-18,2,-2,25,50,85,-16,-18,-28,-2.5625,-2.5625,-2.5625,-2.1875,-2.1875,-2.1875,6.27293,4.309861,4.80261,3.658177,4.255998,5.837236,-0.1975528,-0.2265915,1.536085,0.2875283,-0.2124181,1.441208,0.05716933,0.3431725,1.699353,-0.2368141,-0.2227187,1.540571,0.2434679,-0.2082715,1.418478,0.06060149,-0.07265963,1.740206,0.05885493,-0.3536996,1.727832,-0.1060613,0.09985707,1.747308,-0.01939198,-0.3487725,1.70585,-0.1407993,-0.1239728,1.789838,0.2693986,-0.1243057,1.745517,NA,NA,Closed,Unknown,
0.3876953,0.652832,0.6542969,0.362793,-0.6484375,0.565918,-20,10,-2,7,-4,-7,-35,-3,1,5,30,24,27,-3,30,13,-4.3125,-4.3125,-4.3125,15,15,15,6.269514,4.360602,4.80365,3.672254,4.35858,5.826279,-0.1987136,-0.2160412,1.527211,0.2893402,-0.197197,1.443516,0.05743621,0.3431485,1.69931,-0.239336,-0.2091964,1.533167,0.2431679,-0.1881948,1.422167,0.06067564,-0.0725949,1.740231,0.05893595,-0.3535203,1.727853,-0.1059716,0.1002613,1.747428,-0.01932443,-0.3485316,1.705826,-0.140541,-0.1205098,1.788291,0.2692038,-0.1226446,1.74503,NA,NA,Closed,Unknown,
0.2553711,0.6103516,0.6484375,0.3442383,-0.5922852,0.5444336,12,-47,-3,-7,22,1,31,-14,-1,-5,-7,-15,-39,34,-4,25,-5,-5,-5,11.625,11.625,11.625,6.252833,4.496703,4.807003,3.681059,4.400425,5.820235,-0.2001107,-0.1939437,1.518678,0.2876906,-0.1848854,1.448333,0.05775857,0.3431953,1.699265,-0.2314804,-0.2013049,1.50887,0.2452175,-0.1727644,1.413334,0.06082405,-0.07244996,1.740309,0.05906768,-0.3532561,1.72798,-0.1057794,0.1005386,1.747616,-0.01924461,-0.3482714,1.705902,-0.1407512,-0.1185145,1.786707,0.2691784,-0.1204549,1.745399,NA,NA,Closed,Unknown,
0.2553711,0.6103516,0.6484375,0.3369141,-0.6552734,0.5693359,-20,8,-15,-1,2,-10,51,13,-5,-4,-54,-17,-35,-43,-69,-3,-5,-5,-5,-1.8125,-1.8125,-1.8125,6.252833,4.496703,4.807003,3.683258,4.470506,5.810442,-0.1988025,-0.1777786,1.513905,0.2872753,-0.1734597,1.447792,0.05807262,0.343211,1.699054,-0.2256165,-0.1942631,1.49805,0.2817119,-0.139706,1.4328,0.06091269,-0.07238614,1.740305,0.05915657,-0.3531041,1.727859,-0.1055004,0.1008911,1.747526,-0.01918418,-0.3480518,1.705612,-0.1408122,-0.1184561,1.783577,0.2689694,-0.120651,1.748887,NA,NA,Closed,Closed,
0.2211914,0.6225586,0.6708984,0.2949219,-0.6279297,0.605957,3,13,4,4,-14,7,43,23,-9,-2,-14,-5,-12,-5,-28,-1,-1.25,-1.25,-1.25,-7.25,-7.25,-7.25,6.245985,4.598875,4.803675,3.682088,4.523687,5.800696,-0.1987159,-0.1674498,1.510668,0.2893209,-0.1636522,1.448277,0.05829148,0.3432366,1.699066,-0.229774,-0.1799748,1.503667,0.2443837,-0.1532803,1.421952,0.06096534,-0.07230162,1.740325,0.05915409,-0.3529306,1.727874,-0.1052163,0.1013963,1.747538,-0.01921412,-0.3478108,1.705566,-0.1409111,-0.1185156,1.781026,0.2676661,-0.1215669,1.753569,NA,NA,Closed,Closed,
0.1918945,0.6342773,0.6806641,0.2792969,-0.6914063,0.6254883,43,1,4,25,-8,-28,-29,-9,5,-2,-47,5,17,-6,-40,16,-6.0625,-6.0625,-6.0625,-0.6875,-0.6875,-0.6875,6.237503,4.665191,4.79705,3.679909,4.556425,5.79155,-0.192892,-0.1588467,1.523231,0.2907268,-0.150834,1.449427,0.0589821,0.343314,1.699246,-0.2251703,-0.1399436,1.512333,0.2434505,-0.1372952,1.419937,0.0610856,-0.07219382,1.740433,0.05920389,-0.3527464,1.727909,-0.104675,0.1021339,1.747632,-0.01920735,-0.3476202,1.705552,-0.1414164,-0.1181005,1.778993,0.2596774,-0.1369924,1.751106,NA,NA,Closed,Closed,
0.1918945,0.6342773,0.6806641,0.2431641,-0.6767578,0.6391602,45,8,-6,3,5,5,-18,-46,-10,1,9,8,0,-18,-19,-45,-6.0625,-6.0625,-6.0625,7.1875,7.1875,7.1875,6.237503,4.665191,4.79705,3.688063,4.574033,5.777651,-0.1925826,-0.1554869,1.523582,0.2906272,-0.147087,1.448999,0.05932327,0.3431739,1.699329,-0.2260954,-0.1414048,1.511061,0.2421564,-0.1338342,1.415182,0.06119111,-0.07213153,1.740474,0.05930392,-0.3525257,1.727929,-0.104419,0.1027938,1.747747,-0.01912483,-0.3473664,1.705514,-0.1417939,-0.1175856,1.777999,0.2572572,-0.1474122,1.733987,NA,NA,Closed,Unknown,
0.1210938,0.6772461,0.6557617,0.2456055,-0.6469727,0.6298828,-6,4,-14,40,6,2,1,-8,-3,2,2,17,16,29,48,-32,-3.6875,-3.6875,-3.6875,6.5,6.5,6.5,6.242962,4.703935,4.786536,3.692895,4.575538,5.775578,-0.1918018,-0.1539165,1.522847,0.2912529,-0.1442688,1.447916,0.05962026,0.3432163,1.699435,-0.2231667,-0.1679384,1.510357,0.242309,-0.1325231,1.416091,0.06127968,-0.07209542,1.740522,0.05932802,-0.3524517,1.727959,-0.1043065,0.1028898,1.747742,-0.01911137,-0.3473095,1.705515,-0.1420176,-0.1176775,1.776867,0.2564798,-0.1492052,1.735816,NA,NA,Closed,Unknown,
0.2172852,0.640625,0.7617188,0.246582,-0.7299805,0.6767578,-4,3,8,8,-10,-15,19,19,4,3,9,11,7,10,115,12,4.375,4.375,4.375,2,2,2,6.239368,4.709227,4.783685,3.689944,4.580542,5.771579,-0.1909844,-0.1529125,1.523223,0.2917266,-0.1436694,1.449062,0.05971576,0.3432088,1.699524,-0.2152734,-0.1731551,1.515093,0.2454768,-0.1372768,1.419966,0.06135384,-0.07206064,1.740533,0.05936902,-0.3523881,1.727931,-0.1041726,0.1030905,1.747802,-0.01906788,-0.3472082,1.70544,-0.1419895,-0.1175819,1.776359,0.2558967,-0.1498287,1.736566,NA,NA,Closed,Closed,
0.1923828,0.7456055,0.7592773,0.2583008,-0.6987305,0.6728516,22,16,21,35,9,14,20,14,7,3,11,-6,46,-4,18,8,2.5625,2.5625,2.5625,-3.6875,-3.6875,-3.6875,6.241239,4.712484,4.781022,3.689761,4.583344,5.772281,-0.189956,-0.1520793,1.52371,0.2918516,-0.142586,1.449098,0.05989255,0.3432247,1.699667,-0.2226525,-0.1379135,1.510222,0.2436284,-0.1336138,1.419412,0.06139749,-0.07200722,1.740569,0.05940264,-0.3523148,1.727919,-0.104061,0.1032728,1.747927,-0.01904914,-0.3471313,1.705421,-0.1420054,-0.1174642,1.77608,0.2575814,-0.1364141,1.758129,NA,NA,Closed,Closed,
0.1503906,0.6699219,0.7231445,0.2578125,-0.7373047,0.6762695,29,4,-8,-5,1,15,-18,-4,6,5,5,-5,3,-24,-26,36,-5.625,-5.625,-5.625,-2.8125,-2.8125,-2.8125,6.232706,4.725935,4.778523,3.688173,4.583921,5.772389,-0.1878427,-0.1508916,1.523564,0.2926292,-0.1404051,1.450316,0.06031836,0.3432294,1.699763,-0.1762974,-0.1108547,1.5184,0.2456957,-0.1260992,1.415857,0.06151455,-0.0719349,1.74057,0.05944313,-0.3521938,1.727858,-0.1037911,0.1034957,1.747947,-0.01901253,-0.3469478,1.705277,-0.1416565,-0.117476,1.775053,0.2546493,-0.1463842,1.750122,NA,NA,Closed,Closed,
0.09228516,0.6713867,0.7192383,0.2006836,-0.6821289,0.6333008,-17,-17,-23,2,-5,-7,-10,-2,-17,-5,-8,-10,-27,-27,9,-32,5.125,5.125,5.125,1.8125,1.8125,1.8125,6.237932,4.734377,4.780585,3.691926,4.583283,5.769409,-0.1875284,-0.1505952,1.52439,0.292048,-0.1399454,1.450611,0.06042088,0.3432766,1.699783,-0.2246697,-0.1465483,1.51648,0.2447267,-0.1315144,1.424467,0.06159443,-0.07187844,1.740586,0.05946305,-0.3521127,1.727845,-0.1036478,0.1037203,1.747995,-0.01902004,-0.3468874,1.705246,-0.1415506,-0.117312,1.774785,0.2541502,-0.1487396,1.748783,NA,NA,Closed,Closed,
0.144043,0.6821289,0.7285156,0.2504883,-0.6933594,0.6479492,40,-6,-10,-13,-13,-99,-44,-31,4,-2,28,-30,-36,23,17,-11,-5.125,-5.125,-5.125,-6.1875,-6.1875,-6.1875,6.233478,4.73502,4.776505,3.685683,4.573276,5.772053,-0.1866472,-0.1526266,1.525075,0.2923644,-0.1400172,1.450876,0.0604573,0.3432889,1.699781,-0.2142968,-0.1298839,1.506633,0.2473358,-0.1343883,1.425149,0.06161691,-0.0718476,1.740562,0.05948937,-0.3520422,1.727768,-0.1036086,0.1037525,1.748015,-0.01900104,-0.3467986,1.705122,-0.1416164,-0.1173114,1.77456,0.2538211,-0.149731,1.747035,NA,NA,Closed,Closed,
0.1601563,0.6499023,0.7553711,0.2763672,-0.7075195,0.6342773,26,16,2,37,-27,-54,-11,-12,-5,4,10,6,13,-46,-44,4,-2.5,-2.5,-2.5,-0.375,-0.375,-0.375,6.229853,4.733282,4.77472,3.679226,4.554382,5.775916,-0.186129,-0.1555455,1.525985,0.2930213,-0.1409631,1.450743,0.06053378,0.3432854,1.699819,-0.2198267,-0.1413169,1.512811,0.2462176,-0.1319416,1.418317,0.06163918,-0.07182058,1.740568,0.0595132,-0.3520039,1.727751,-0.1036055,0.1037673,1.748027,-0.01898762,-0.3467825,1.705109,-0.1413133,-0.1173901,1.774372,0.2542621,-0.1479886,1.749001,NA,NA,Closed,Closed,
0.06689453,0.6904297,0.6625977,0.2495117,-0.5712891,0.6201172,-49,-15,-20,-4,13,-46,38,-2,3,5,14,-5,1,22,-60,-10,-9,-9,-9,-13,-13,-13,6.229372,4.722529,4.772455,3.676873,4.52197,5.780852,-0.1857227,-0.1579413,1.524479,0.2934113,-0.1436539,1.449236,0.06057226,0.3432834,1.699816,-0.2203839,-0.1589314,1.510138,0.2481036,-0.1389122,1.426759,0.06167634,-0.07177814,1.740558,0.05956106,-0.3519024,1.727723,-0.1034498,0.1039603,1.748068,-0.01894465,-0.3466373,1.705015,-0.1412864,-0.1172031,1.774281,0.2542607,-0.1495332,1.747137,NA,NA,Closed,Closed,
0.09814453,0.5664063,0.6357422,0.2011719,-0.5844727,0.5473633,40,0,-4,-11,36,-1,89,-41,-9,-2,17,13,42,24,-5,27,-0.875,-0.875,-0.875,-19.25,-19.25,-19.25,6.221845,4.685003,4.761325,3.664196,4.496431,5.789325,-0.1920827,-0.1689331,1.504513,0.2953433,-0.163509,1.438288,0.06066081,0.3431981,1.699753,-0.2168568,-0.1877552,1.505846,0.2533663,-0.1601145,1.405364,0.06171815,-0.07173003,1.740564,0.05961086,-0.3517926,1.727674,-0.1033501,0.1041022,1.748081,-0.01891788,-0.3465219,1.704921,-0.1175726,-0.124198,1.778132,0.2590409,-0.1455936,1.739879,NA,NA,Closed,Closed,
-0.09667969,0.3359375,0.06445313,-0.08642578,-0.2670898,0.04736328,8,-49,-33,-4,-56,61,108,78,-7,2,-32,-32,12,4,-30,-7,54.4375,54.4375,54.4375,9.3125,9.3125,9.3125,6.275772,4.603028,4.750599,3.645288,4.290065,5.859059,-0.1926428,-0.1945896,1.510373,0.2988957,-0.1930827,1.431006,0.06068972,0.3431924,1.699752,-0.2004774,-0.1654804,1.4873,0.2872007,-0.1546364,1.38225,0.06180394,-0.07168914,1.740633,0.05965484,-0.351737,1.727714,-0.1033963,0.1041417,1.748217,-0.01889379,-0.3465001,1.704936,-0.1300259,-0.1176015,1.779664,0.2646505,-0.1423013,1.737776,NA,NA,Closed,Unknown,
-0.6606445,0.5825195,0.2636719,1.031738,-1.018066,0.5249023,8,12,22,-50,5,2,-6,28,-28,18,127,-63,-6,-11,-32,-97,-36,-36,-36,38.4375,38.4375,38.4375,6.262732,4.527616,4.73247,3.615743,4.060081,5.918119,-0.1936378,-0.2416058,1.518686,0.2996615,-0.2348045,1.43458,0.06069849,0.3432044,1.699761,-0.2331009,-0.2473263,1.535368,0.2968376,-0.1983797,1.3712,0.06181005,-0.07168558,1.740634,0.05966341,-0.3517198,1.727702,-0.1034923,0.1041265,1.748283,-0.01888587,-0.3464739,1.704889,-0.1339896,-0.1173096,1.778773,0.2689812,-0.1426675,1.737677,NA,NA,Closed,Unknown,
0.7587891,0.6923828,0.8051758,1.264648,-0.6269531,0.7436523,3,27,20,1,41,32,49,68,-24,-15,28,30,23,-6,-76,-25,31.875,31.875,31.875,-8.3125,-8.3125,-8.3125,6.29104,4.315172,4.702637,3.603281,3.894805,5.955184,-0.1936988,-0.2830234,1.527848,0.3000585,-0.273644,1.439622,0.06075971,0.3431732,1.699852,-0.2307743,-0.2829881,1.530063,0.2619649,-0.2749176,1.427822,0.06182796,-0.07168932,1.740671,0.05968191,-0.3517107,1.727699,-0.1036716,0.103995,1.748304,-0.01887641,-0.3464647,1.704889,-0.1362505,-0.1172065,1.778453,0.2736233,-0.1436894,1.735889,NA,NA,Closed,Closed,
1.121094,0.5908203,0.7885742,0.8359375,-0.8388672,0.5673828,-6,-8,9,-9,-17,27,-63,25,26,-26,75,0,-40,56,67,-58,6.8125,6.8125,6.8125,26.125,26.125,26.125,6.314735,4.004735,4.646339,3.586076,3.797471,5.991458,-0.1913432,-0.3313586,1.553247,0.3025727,-0.3134178,1.454586,0.06092484,0.3433218,1.700207,-0.2326286,-0.3334706,1.558727,0.2642168,-0.3136542,1.437108,0.06188755,-0.07166021,1.740728,0.05970254,-0.3516867,1.727701,-0.104048,0.1038781,1.748465,-0.01886169,-0.3464504,1.704866,-0.1406988,-0.1174221,1.77543,0.2778418,-0.1342115,1.727809,NA,NA,Closed,Closed,
0.5400391,0.7456055,0.5302734,0.5849609,-0.7011719,0.5415039,-35,12,16,-7,-10,26,30,13,4,1,76,8,40,-14,-39,22,12.1875,12.1875,12.1875,-26.0625,-26.0625,-26.0625,6.349632,3.938641,4.639454,3.579021,3.727769,6.005977,-0.1905993,-0.3407849,1.560769,0.302339,-0.3228981,1.461016,0.06103466,0.3432763,1.700532,-0.2265767,-0.3449737,1.553769,0.2654579,-0.3186546,1.436333,0.06191866,-0.07165773,1.740727,0.05974808,-0.3516895,1.727681,-0.1041322,0.1037651,1.748526,-0.01882215,-0.3464672,1.704835,-0.1415679,-0.1196424,1.775417,0.2785265,-0.1339108,1.72653,NA,NA,Closed,Closed,
0.6982422,0.6181641,0.5834961,0.6240234,-0.5371094,0.5205078,-20,-20,-12,-39,5,3,-25,-69,-15,-2,-61,5,-55,-19,2,41,-1.875,-1.875,-1.875,9.9375,9.9375,9.9375,6.347263,3.912013,4.640281,3.585234,3.704648,6.001878,-0.1886556,-0.3459677,1.568095,0.3021405,-0.328518,1.464405,0.06106115,0.3434154,1.700704,-0.225609,-0.3552942,1.563727,0.2630955,-0.3287393,1.44569,0.06193249,-0.07164934,1.740712,0.0599088,-0.3517144,1.727552,-0.1043141,0.1035103,1.748533,-0.01865307,-0.3465301,1.70467,-0.1418411,-0.1219386,1.775406,0.2792934,-0.1333201,1.725255,NA,NA,Closed,Unknown,
0.5498047,0.625,0.496582,0.7915039,-0.5449219,0.4555664,23,38,31,4,6,-47,-16,6,-23,-1,21,-18,7,-27,80,-26,-0.3125,-0.3125,-0.3125,-6.5625,-6.5625,-6.5625,6.357006,3.881366,4.618341,3.583481,3.681554,6.008392,-0.1887163,-0.3515529,1.573285,0.3034452,-0.3324911,1.46825,0.06111601,0.3435001,1.700847,-0.2271972,-0.3521121,1.5664,0.2650742,-0.3337536,1.4433,0.06195002,-0.07163548,1.740716,0.05994831,-0.351709,1.727547,-0.1043122,0.1034952,1.748535,-0.01859576,-0.3465509,1.704669,-0.1420622,-0.1237223,1.776165,0.2794219,-0.133401,1.725043,NA,NA,Closed,Unknown,
0.7978516,0.5205078,0.5683594,0.7182617,-0.5239258,0.4790039,8,-7,-9,-13,26,31,27,46,7,7,-33,-20,-25,-29,-10,6,-3.0625,-3.0625,-3.0625,-10.75,-10.75,-10.75,6.354013,3.860318,4.608606,3.580297,3.669872,5.99492,-0.1863858,-0.3574965,1.577134,0.3063559,-0.3319657,1.473032,0.06112422,0.3435535,1.701096,-0.224145,-0.3608814,1.568,0.3408541,-0.355312,1.452709,0.06192315,-0.07165389,1.740649,0.06003363,-0.3518077,1.727438,-0.1045898,0.1031205,1.748545,-0.01848957,-0.3466911,1.704543,-0.1428511,-0.1288304,1.777003,0.2797901,-0.1339778,1.724451,NA,NA,Closed,Closed,
0.730957,0.6137695,0.5581055,0.7675781,-0.5336914,0.4746094,4,-24,-1,-27,-12,-7,1,-1,-36,-29,36,0,6,-11,-6,2,4.5625,4.5625,4.5625,-5.75,-5.75,-5.75,6.357845,3.85656,4.605852,3.576934,3.65802,5.990302,-0.18536,-0.3600048,1.579607,0.307646,-0.3329688,1.473465,0.06109878,0.3435884,1.701155,-0.2236934,-0.3627688,1.569364,0.3396338,-0.3575686,1.453078,0.06193086,-0.07165758,1.740632,0.06003036,-0.3518371,1.727398,-0.1046299,0.1030289,1.748504,-0.01849754,-0.346732,1.704509,-0.142983,-0.1290737,1.777101,0.2799035,-0.1340785,1.724314,NA,NA,Closed,Closed,
0.5942383,0.5356445,0.4975586,0.7617188,-0.4765625,0.4023438,7,9,-2,-1,-14,-1,-8,-31,13,12,46,-14,-7,-5,-17,-3,16.375,16.375,16.375,-0.1875,-0.1875,-0.1875,6.369829,3.857908,4.606374,3.577352,3.646954,5.991636,-0.1850809,-0.3616107,1.580705,0.3085731,-0.3341577,1.472736,0.06104787,0.3436373,1.701251,-0.2232274,-0.3654162,1.569308,0.3422526,-0.3570193,1.45469,0.06192808,-0.07165863,1.740634,0.06001456,-0.351852,1.727367,-0.104696,0.102981,1.748468,-0.01851557,-0.3467816,1.704509,-0.1430933,-0.1296978,1.777015,0.2802607,-0.1340031,1.724225,NA,NA,Unknown,Closed,
0.5693359,0.5478516,0.4868164,0.7763672,-0.4770508,0.371582,-3,4,-1,-11,1,-55,-3,9,-5,1,-33,19,6,6,-45,-10,14.4375,14.4375,14.4375,-13.0625,-13.0625,-13.0625,6.376226,3.853599,4.608048,3.575378,3.628313,5.979462,-0.184307,-0.3630939,1.580912,0.3087748,-0.3358994,1.473319,0.06108727,0.3436485,1.70148,-0.2235011,-0.3642666,1.5735,0.3388097,-0.3618721,1.454237,0.06193039,-0.0716598,1.740634,0.05999361,-0.3518727,1.727357,-0.1047306,0.1029287,1.748386,-0.01852818,-0.3468041,1.704503,-0.1433799,-0.1305866,1.777055,0.2804762,-0.1341994,1.724152,NA,NA,Unknown,Closed,
0.6044922,0.4902344,0.4956055,0.7470703,-0.4873047,0.3842773,-41,4,3,-12,6,16,-9,-1,0,3,9,-19,-5,4,13,-1,13.8125,13.8125,13.8125,-43.125,-43.125,-43.125,6.381169,3.843069,4.60949,3.556278,3.600422,5.955878,-0.17877,-0.3602751,1.591472,0.3091052,-0.3390344,1.476937,0.06106756,0.3437521,1.7016,-0.2241293,-0.3614492,1.572063,0.3433559,-0.3672217,1.462333,0.06193659,-0.07166275,1.740626,0.05998135,-0.3518986,1.727342,-0.1047222,0.1028867,1.748317,-0.01854076,-0.3468333,1.704493,-0.1434481,-0.1308868,1.776917,0.2807105,-0.1345467,1.72387,NA,NA,Unknown,Closed,
0.6665039,0.5507813,0.4521484,0.7470703,-0.4873047,0.3842773,-41,4,3,-12,6,16,-9,-1,0,3,9,-19,-5,4,13,-1,33.4375,33.4375,33.4375,-43.125,-43.125,-43.125,6.420681,3.810252,4.59766,3.556278,3.600422,5.955878,-0.1770615,-0.3639005,1.59185,0.3097743,-0.3438637,1.4794,0.06103282,0.3438037,1.701639,-0.2212483,-0.3665698,1.5757,0.3452071,-0.3669654,1.462714,0.06192219,-0.07166839,1.740618,0.05994273,-0.351939,1.727328,-0.1047983,0.1027898,1.748147,-0.0185775,-0.3469037,1.704499,-0.1436065,-0.1319731,1.776371,0.2810775,-0.134835,1.723484,NA,NA,Unknown,Closed,
0.6020508,0.5581055,0.4116211,0.6860352,-0.5092773,0.3676758,10,1,-1,-2,5,8,3,-4,0,0,-9,9,-1,4,19,14,20.5625,20.5625,20.5625,4.5625,4.5625,4.5625,6.440425,3.788814,4.586346,3.54518,3.565806,5.944572,-0.1743315,-0.3688993,1.591827,0.3096253,-0.351231,1.483791,0.06102449,0.3438162,1.701649,-0.2137863,-0.3653792,1.5675,0.3475618,-0.3706714,1.464714,0.06193511,-0.07168028,1.740594,0.05995829,-0.3519778,1.727275,-0.1048907,0.1025546,1.747843,-0.0185574,-0.3469465,1.704472,-0.143798,-0.132364,1.776178,0.2813334,-0.1354222,1.722956,NA,NA,Unknown,Closed,
0.6479492,0.4882813,0.3764648,0.8017578,-0.3686523,0.3286133,4,-2,-3,-7,-5,1,-3,8,9,-1,-51,-7,2,-1,5,2,11.3125,11.3125,11.3125,-38.3125,-38.3125,-38.3125,6.472898,3.728049,4.557021,3.525454,3.500896,5.942024,-0.1745047,-0.3812822,1.589339,0.3096246,-0.3609627,1.491776,0.06103849,0.3439313,1.701907,-0.210844,-0.381336,1.578421,0.3514751,-0.3810989,1.475,0.06195773,-0.07166942,1.740595,0.05999817,-0.3519956,1.727295,-0.1049669,0.1024973,1.747725,-0.01849241,-0.346992,1.7045,-0.1445018,-0.1355456,1.774053,0.281647,-0.1365023,1.72239,NA,NA,Unknown,Closed,
0.6889648,0.5151367,0.3920898,0.7553711,-0.6210938,0.269043,8,-9,-3,8,1,-11,-18,-7,-1,-1,69,2,8,56,6,26,16.5625,16.5625,16.5625,-22.125,-22.125,-22.125,6.494339,3.691474,4.539562,3.451349,3.432862,5.979202,-0.1719358,-0.3895883,1.596799,0.3088997,-0.3748843,1.497557,0.0610107,0.3439967,1.701985,-0.2119108,-0.3912981,1.591167,0.34581,-0.3947527,1.47795,0.06200599,-0.07169174,1.740466,0.05999267,-0.3520746,1.727229,-0.1051746,0.102274,1.747455,-0.01849514,-0.3470728,1.704484,-0.1446355,-0.1380144,1.77324,0.2819688,-0.1396768,1.720514,NA,NA,Unknown,Closed,
0.6728516,0.5512695,0.371582,0.8911133,-0.1713867,0.3286133,11,-3,-5,5,-6,3,-1,-2,3,-3,-8,-1,0,7,-5,4,1.9375,1.9375,1.9375,40.875,40.875,40.875,6.551856,3.569565,4.489038,3.472491,3.343979,6.005577,-0.1703483,-0.399473,1.603912,0.3070317,-0.3887411,1.510227,0.0609118,0.3441271,1.702084,-0.2058804,-0.4068834,1.600583,0.3447802,-0.4095822,1.490616,0.06200657,-0.07168976,1.740463,0.06003265,-0.3521332,1.72725,-0.1054294,0.101961,1.747187,-0.01842387,-0.3472035,1.704576,-0.1451034,-0.1423281,1.772121,0.2824051,-0.1429647,1.71888,NA,NA,Unknown,Closed,
0.8178711,0.418457,0.3486328,0.8378906,-0.3603516,0.25,4,-1,-1,8,-2,-21,6,-9,-1,-1,17,-1,1,4,6,11,-12.8125,-12.8125,-12.8125,-43.5625,-43.5625,-43.5625,6.593764,3.405316,4.417506,3.393501,3.245964,6.067643,-0.1695644,-0.4200244,1.628924,0.3036584,-0.4204137,1.536758,0.06075054,0.3444378,1.70242,-0.2102249,-0.4234995,1.641625,0.3380523,-0.4180702,1.530588,0.06196716,-0.07167556,1.740341,0.05998905,-0.3523242,1.727243,-0.1059208,0.1016189,1.74658,-0.01842693,-0.3474845,1.704646,-0.146271,-0.1467189,1.769858,0.2835954,-0.1511225,1.714135,NA,NA,NotTracked,Closed,
0.8178711,0.418457,0.3486328,0.9199219,-0.5639648,0.21875,-2,-2,-4,-4,0,4,-1,-2,-1,-2,-19,-1,2,8,4,-6,-12.8125,-12.8125,-12.8125,-3.125,-3.125,-3.125,6.593764,3.405316,4.417506,3.214552,3.164593,6.22818,-0.1704153,-0.4346426,1.64287,0.3037926,-0.4364994,1.553953,0.06061637,0.3447391,1.702557,-0.2127816,-0.4387313,1.653,0.3345198,-0.4192021,1.54931,0.06193535,-0.07167007,1.740318,0.05992533,-0.3524588,1.727316,-0.1060621,0.1014511,1.746447,-0.01846829,-0.3476925,1.704843,-0.1466398,-0.1482553,1.769437,0.2839712,-0.1536419,1.712257,NA,NA,NotTracked,Closed,
0.8657227,0.3701172,0.2192383,0.9829102,-0.3496094,0.1884766,-2,0,2,-2,0,1,0,1,-2,0,13,0,-2,2,2,-3,-12.0625,-12.0625,-12.0625,104.3125,104.3125,104.3125,6.700362,3.219748,4.282972,3.145442,3.082632,6.406267,-0.1700466,-0.4473123,1.654299,0.3035721,-0.4511683,1.571718,0.06038069,0.3451205,1.702997,-0.2041941,-0.4469913,1.666,0.3344715,-0.4345344,1.566704,0.06193075,-0.07167634,1.740286,0.05988322,-0.3526504,1.727335,-0.1062957,0.1012204,1.746204,-0.01846982,-0.3478666,1.704874,-0.1470274,-0.151891,1.768915,0.2834992,-0.1570227,1.709433,NA,NA,NotTracked,Closed,
1.053223,0.2939453,0.1069336,1.114746,-0.1401367,0.06738281,0,0,-1,1,-1,1,0,-3,-1,-3,-36,-6,6,8,5,1,-17.5625,-17.5625,-17.5625,46.1875,46.1875,46.1875,6.924861,3.050738,4.008815,2.910363,2.974704,6.784525,-0.1703498,-0.4595844,1.665453,0.3043075,-0.4643307,1.58866,0.06032276,0.3454442,1.703406,-0.2010339,-0.4592288,1.675,0.3354555,-0.4523097,1.582824,0.06181689,-0.0716985,1.740211,0.05961344,-0.35297,1.727321,-0.1065116,0.1009714,1.745873,-0.01866729,-0.3481931,1.704964,-0.1473438,-0.156148,1.767319,0.2829565,-0.1591903,1.70695,NA,NA,NotTracked,Closed,
1.071289,0.2636719,-0.04101563,1.084473,-0.1977539,-0.02001953,-1,-1,-2,2,-1,0,2,-2,-3,-2,8,-2,4,1,-2,0,-15.625,-15.625,-15.625,21.3125,21.3125,21.3125,7.129584,2.971013,3.774699,2.800049,2.955081,6.911418,-0.1715575,-0.478608,1.686999,0.3063749,-0.475823,1.62005,0.06016037,0.3459157,1.703937,-0.2069614,-0.4835042,1.7025,0.3081961,-0.4773195,1.583225,0.06158773,-0.07171888,1.740024,0.05909156,-0.3535754,1.72724,-0.1069909,0.1004588,1.745131,-0.01904974,-0.3488436,1.705007,-0.1471766,-0.1651724,1.763917,0.2814121,-0.1649687,1.702596,NA,NA,NotTracked,NotTracked,
1.05127,0.2299805,-0.06835938,1.035645,-0.2680664,-0.009277344,1,-1,-2,0,-1,-2,-1,-2,-1,-1,15,-1,-5,-4,1,1,-5.25,-5.25,-5.25,-5,-5,-5,7.225924,2.943826,3.672418,2.632625,2.935929,7.082847,-0.1730852,-0.4809522,1.69634,0.3060002,-0.478193,1.630203,0.06004702,0.3460823,1.704128,-0.1660425,-0.5048016,1.717333,0.30874,-0.4835204,1.593609,0.06151435,-0.07174381,1.739855,0.058954,-0.3538137,1.727058,-0.1072022,0.1003326,1.744839,-0.01910827,-0.3490674,1.704915,-0.1471589,-0.165104,1.763551,0.2809781,-0.1667066,1.702055,NA,NA,NotTracked,NotTracked,
0.9829102,0.2802734,-0.01953125,1.026367,-0.3076172,0.03613281,0,0,-2,-3,-2,2,-2,0,1,-2,-2,-1,-1,-2,1,-1,22.625,22.625,22.625,3.9375,3.9375,3.9375,7.409774,2.904461,3.513061,2.566899,2.929511,7.149207,-0.1749786,-0.4818943,1.70314,0.3050353,-0.478285,1.63675,0.0599714,0.346313,1.704267,-0.1782301,-0.5055379,1.7265,0.3292772,-0.4804538,1.631572,0.06141186,-0.07163925,1.739586,0.0588087,-0.3538544,1.726863,-0.107327,0.1002591,1.744617,-0.01917228,-0.3490931,1.704854,-0.1471383,-0.1652034,1.763507,0.2805866,-0.1677767,1.702301,NA,NA,NotTracked,NotTracked,
0.9492188,0.2875977,0.06982422,0.9873047,-0.2929688,0.04931641,-2,1,0,-2,0,-1,-3,0,-2,1,56,-1,-2,-1,1,-1,15.25,15.25,15.25,4.3125,4.3125,4.3125,7.387368,2.903105,3.554625,2.595258,2.93105,7.122646,-0.1752262,-0.4803582,1.707397,0.3031077,-0.4789563,1.638239,0.05985555,0.3464601,1.704382,-0.2051555,-0.4821088,1.711118,0.2936094,-0.506566,1.660833,0.06130057,-0.07156155,1.739331,0.05870158,-0.353925,1.726747,-0.1074639,0.1002199,1.74442,-0.01921401,-0.3491344,1.704803,-0.147088,-0.1653348,1.763565,0.2806994,-0.1699433,1.703005,NA,NA,NotTracked,NotTracked,
0.9443359,0.2973633,0.1254883,0.9648438,-0.2773438,0.1391602,0,0,-2,-2,0,0,0,0,-3,-2,7,1,1,0,-2,-1,12.625,12.625,12.625,-7.5,-7.5,-7.5,7.348425,2.906449,3.601262,2.731877,2.937556,6.972292,-0.1734055,-0.4774399,1.705725,0.301719,-0.4759935,1.635961,0.05973074,0.3468319,1.704332,-0.204868,-0.4791049,1.709198,0.2934909,-0.5071805,1.660782,0.06111099,-0.0714104,1.738754,0.05833273,-0.3540841,1.726348,-0.1076477,0.1001405,1.743625,-0.0194443,-0.3492106,1.704564,-0.146949,-0.1660352,1.764526,0.2800945,-0.1711532,1.7067,NA,NA,NotTracked,NotTracked,
0.9248047,0.3457031,0.1523438,0.9326172,-0.2661133,0.1240234,-1,-1,-1,1,0,-1,-1,-1,0,-1,-8,-1,0,0,-1,-1,-11.25,-11.25,-11.25,-6.4375,-6.4375,-6.4375,7.206962,2.931663,3.747577,2.839726,2.948808,6.854967,-0.1717935,-0.474806,1.701714,0.3008927,-0.4733555,1.631386,0.05965416,0.3470059,1.704219,-0.2024466,-0.4810358,1.709411,0.3330798,-0.4736437,1.631154,0.06092969,-0.07129498,1.738418,0.05816628,-0.3541281,1.726286,-0.1077547,0.1001158,1.743156,-0.01958793,-0.3492489,1.704511,-0.1470008,-0.1651611,1.764794,0.2797798,-0.1714892,1.708277,NA,NA,NotTracked,NotTracked,
0.9189453,0.2592773,0.1293945,0.9438477,-0.2651367,0.1040039,-1,-1,-2,-1,0,-1,-2,-1,-1,-1,-2,0,-1,-1,0,-2,-8.3125,-8.3125,-8.3125,-9.875,-9.875,-9.875,7.043391,2.962881,3.891881,2.934839,2.962808,6.746119,-0.1723297,-0.4727351,1.698632,0.2999941,-0.4712783,1.627903,0.0596609,0.3471518,1.70409,-0.2005977,-0.465512,1.704143,0.2942629,-0.5112908,1.652,0.06087988,-0.07132534,1.738183,0.05815978,-0.3542579,1.726181,-0.1076992,0.1001856,1.742591,-0.01957676,-0.3493685,1.704412,-0.1470499,-0.1648593,1.765298,0.2790401,-0.17101,1.710457,NA,NA,NotTracked,NotTracked,
0.9248047,0.2744141,0.1376953,0.9248047,-0.2719727,0.09472656,-1,-1,0,-1,-1,-1,1,1,-1,-1,16,-1,-1,0,0,0,11.125,11.125,11.125,-10.0625,-10.0625,-10.0625,6.971482,2.983907,3.973453,3.021791,2.978336,6.644298,-0.1710635,-0.4711193,1.694814,0.2981913,-0.4703834,1.62159,0.05962951,0.3472106,1.703608,-0.1991284,-0.4619004,1.701545,0.2933628,-0.5046918,1.642667,0.06082702,-0.07132068,1.738096,0.05795382,-0.3543483,1.726226,-0.1078035,0.1003254,1.742273,-0.01972341,-0.3494187,1.704425,-0.1471636,-0.164171,1.765699,0.2789353,-0.170518,1.711511,NA,NA,NotTracked,NotTracked,
0.9345703,0.2958984,0.1513672,0.9282227,-0.2558594,0.1342773,0,-1,-1,0,-2,-2,-2,0,-2,0,-5,-1,1,-1,-2,0,12.9375,12.9375,12.9375,-17.6875,-17.6875,-17.6875,6.942589,2.99421,4.010814,3.09671,2.993446,6.547555,-0.169816,-0.4656938,1.688281,0.2958024,-0.4649974,1.611219,0.05955508,0.3472627,1.703185,-0.1936499,-0.4697036,1.696308,0.2630858,-0.4819203,1.592873,0.06070806,-0.07135763,1.737986,0.05772895,-0.3545884,1.726358,-0.1078705,0.1003733,1.741916,-0.01992994,-0.3495735,1.704558,-0.1474075,-0.162639,1.766795,0.2785802,-0.1700486,1.712831,NA,NA,NotTracked,NotTracked,
0.9155273,0.28125,0.1342773,0.9584961,-0.2709961,0.1308594,-1,-1,0,-2,-3,0,0,-1,-3,-1,-12,1,0,0,0,-2,0.6875,0.6875,0.6875,-15.8125,-15.8125,-15.8125,6.855087,3.02307,4.107144,3.150488,3.007082,6.471558,-0.1679544,-0.4622286,1.681713,0.2927135,-0.4674319,1.604756,0.05952682,0.3473037,1.702588,-0.1580983,-0.5031583,1.69875,0.2619498,-0.4732309,1.582429,0.06069005,-0.07138018,1.73783,0.05772749,-0.3546491,1.726337,-0.1079272,0.1003228,1.741581,-0.01992208,-0.3496139,1.704499,-0.1474151,-0.1626254,1.76679,0.2783692,-0.1704327,1.713213,NA,NA,NotTracked,NotTracked,
0.921875,0.2724609,0.1445313,0.9379883,-0.2641602,0.1083984,-1,-2,-1,0,-1,0,-2,1,-1,-1,-4,0,2,-2,0,-1,9.0625,9.0625,9.0625,-8.625,-8.625,-8.625,6.815883,3.034609,4.156237,3.211053,3.022445,6.387959,-0.1669307,-0.4604259,1.680304,0.2916415,-0.4630809,1.601743,0.05950367,0.3472443,1.702351,-0.1707839,-0.4870325,1.703667,0.2782679,-0.4851619,1.6175,0.06066662,-0.07139008,1.737786,0.05773658,-0.3547208,1.726335,-0.1079305,0.1002879,1.741427,-0.01990654,-0.3496523,1.704486,-0.1474329,-0.1625354,1.766778,0.2783516,-0.170189,1.713231,NA,NA,NotTracked,NotTracked,
0.9257813,0.2797852,0.1269531,0.9472656,-0.2490234,0.1225586,-1,0,-2,0,1,-1,0,0,-2,-4,-38,-2,-5,-1,-2,-1,11.125,11.125,11.125,-9.125,-9.125,-9.125,6.80655,3.03929,4.172893,3.241281,3.02733,6.34525,-0.162312,-0.4596809,1.668346,0.2885222,-0.4612384,1.596509,0.05936709,0.3473137,1.701933,-0.189155,-0.457509,1.676685,0.2546684,-0.4740902,1.575412,0.06062839,-0.07144368,1.73765,0.05770508,-0.3548793,1.726298,-0.1080223,0.1001912,1.741217,-0.01993747,-0.3498028,1.704444,-0.1475127,-0.1621979,1.766787,0.2782452,-0.1699946,1.713252,NA,NA,NotTracked,NotTracked,
0.9038086,0.2880859,0.1420898,0.940918,-0.2700195,0.1386719,0,-2,0,-1,-2,0,0,-1,-1,-1,5,0,0,-2,0,-1,10.625,10.625,10.625,-12.25,-12.25,-12.25,6.790405,3.049078,4.209379,3.256341,3.031021,6.31541,-0.1628903,-0.4572741,1.6684,0.2865186,-0.4590816,1.591623,0.05927815,0.3473084,1.701646,-0.1830118,-0.4748489,1.671437,0.2550534,-0.4682495,1.569706,0.06062221,-0.0714399,1.737554,0.05778728,-0.3549193,1.726255,-0.1081259,0.1001886,1.741148,-0.0198385,-0.3498441,1.704399,-0.1475945,-0.1605499,1.766384,0.2780902,-0.1695177,1.712832,NA,NA,NotTracked,NotTracked,
0.9204102,0.2910156,0.1313477,0.9384766,-0.2739258,0.1489258,-1,-1,-1,-1,0,1,-2,1,-1,-1,-10,-3,-3,1,0,-2,4.8125,4.8125,4.8125,-1.8125,-1.8125,-1.8125,6.790431,3.050719,4.21726,3.261677,3.030495,6.303705,-0.1616684,-0.4549591,1.669187,0.2861526,-0.4632777,1.590704,0.05919467,0.3472245,1.701496,-0.1517566,-0.4940656,1.696333,0.2531854,-0.4701597,1.568711,0.06059235,-0.07147552,1.737516,0.05776242,-0.3550155,1.726253,-0.1081871,0.1000806,1.741131,-0.01985262,-0.3499304,1.704383,-0.1476085,-0.1605295,1.766314,0.2777227,-0.1691053,1.712457,NA,NA,NotTracked,NotTracked,
