ALX,ALY,ALZ,ARX,ARY,ARZ,EMG0L,EMG1L,EMG2L,EMG3L,EMG4L,EMG5L,EMG6L,EMG7L,EMG0R,EMG1R,EMG2R,EMG3R,EMG4R,EMG5R,EMG6R,EMG7R,GLX,GLY,GLZ,GRX,GRY,GRZ,ORL,OPL,OYL,ORR,OPR,OYR,LHNX,LHNY,LHNZ,RHNX,RHNY,RHNZ,HX,HY,HZ,LTX,LTY,LTZ,RTX,RTY,RTZ,SpineMidX,SpineMidY,SpineMidZ,SpineBaseX,SpineBaseY,SpineBaseZ,ShoulderLeftX,ShoulderLeftY,ShoulderLeftZ,ShoulderRightX,ShoulderRightY,ShoulderRightZ,ElbowLeftX,ElbowLeftY,ElbowLeftZ,ElbowRightX,ElbowRightY,ElbowRightZ,Myo_Pose_left,Myo_Pose_Right,Kinect_pose_left,Kinect_pose_right
0.7822266,0.5161133,0.6054688,0.9575195,-0.246582,0.1069336,-2,4,14,57,22,24,8,-4,0,1,1,1,3,0,1,1,32.75,32.75,32.75,0.8125,0.8125,0.8125,6.202255,3.677866,2.269084,3.049759,2.93135,6.346807,-0.1389239,-0.4740635,1.678293,0.2014509,-0.3439437,1.497095,0.06405257,0.3478451,1.697675,-0.1748938,-0.4795303,1.672615,0.213553,-0.3346488,1.455957,0.06531184,-0.07205341,1.734259,0.05941645,-0.3569911,1.723887,-0.1006354,0.09929838,1.725688,-0.01972659,-0.3504609,1.698191,-0.1412451,-0.1561806,1.752198,0.2915483,-0.1315463,1.722451,NA,NA,NotTracked,Unknown,
0.7260742,0.5297852,0.6733398,0.9575195,-0.246582,0.1069336,-1,20,14,-7,-25,-66,-8,-9,0,1,1,1,3,0,1,1,27.625,27.625,27.625,0.8125,0.8125,0.8125,6.149794,3.826158,2.387763,3.049759,2.93135,6.346807,-0.1390731,-0.4763747,1.677091,0.1735154,-0.3192343,1.501593,0.06475807,0.3477848,1.697975,-0.1742677,-0.4813809,1.676611,0.1842312,-0.2966479,1.454247,0.06487065,-0.07200291,1.734179,0.05637369,-0.3567254,1.723222,-0.1003594,0.09938043,1.725574,-0.02310136,-0.349421,1.697527,-0.1410707,-0.1545552,1.752146,0.2930164,-0.1247389,1.723482,NA,NA,NotTracked,Unknown,
0.5532227,0.5634766,0.7294922,0.9575195,-0.246582,0.1069336,-18,-10,-3,-28,2,16,-1,1,0,1,1,1,3,0,1,1,23.875,23.875,23.875,0.8125,0.8125,0.8125,6.100103,3.99577,2.508938,3.049759,2.93135,6.346807,-0.1393961,-0.476398,1.676575,0.1552739,-0.2874534,1.493498,0.06540426,0.3477683,1.697945,-0.1754172,-0.4754161,1.679824,0.1587409,-0.2690719,1.444263,0.06467764,-0.07198898,1.734195,0.0555067,-0.3567013,1.723227,-0.100139,0.09941275,1.725481,-0.02376117,-0.3492586,1.697587,-0.1409952,-0.1543642,1.752193,0.2942264,-0.1206382,1.721642,NA,NA,NotTracked,Unknown,
0.3691406,0.5639648,0.7949219,0.9575195,-0.246582,0.1069336,-6,-4,0,59,9,-3,-5,-4,0,1,1,1,3,0,1,1,23.0625,23.0625,23.0625,0.8125,0.8125,0.8125,6.041111,4.2789,2.691486,3.049759,2.93135,6.346807,-0.1391859,-0.4759564,1.677015,0.1369174,-0.2534539,1.490309,0.06602146,0.3477235,1.69808,-0.1774934,-0.4760713,1.683636,0.1456304,-0.231374,1.442631,0.06466311,-0.07197864,1.734256,0.0554738,-0.3566868,1.723312,-0.09966999,0.09986299,1.725336,-0.02372965,-0.3492176,1.697649,-0.1408096,-0.1535888,1.752033,0.2950443,-0.1146427,1.719442,NA,NA,NotTracked,Closed,
0.2900391,0.5820313,0.7861328,0.9575195,-0.246582,0.1069336,1,1,-4,-7,-19,-4,3,-1,0,1,1,1,3,0,1,1,20.4375,20.4375,20.4375,0.8125,0.8125,0.8125,6.026395,4.378056,2.754837,3.049759,2.93135,6.346807,-0.1381564,-0.47334,1.677287,0.1215455,-0.2156415,1.487586,0.06667937,0.3475918,1.698263,-0.156412,-0.4691758,1.643297,0.1242605,-0.1963826,1.440231,0.06480561,-0.07199641,1.734326,0.05562766,-0.3566641,1.723376,-0.09927247,0.09996273,1.725139,-0.02331301,-0.3492406,1.697662,-0.1404889,-0.1522252,1.751683,0.2973362,-0.1115528,1.714192,NA,NA,NotTracked,Closed,
0.1660156,0.6166992,0.7949219,0.9575195,-0.246582,0.1069336,-9,-2,2,-9,14,-8,-5,-2,0,1,1,1,3,0,1,1,23.3125,23.3125,23.3125,0.8125,0.8125,0.8125,6.010157,4.57853,2.885985,3.049759,2.93135,6.346807,-0.1386037,-0.471458,1.676016,0.08880993,-0.1440169,1.490112,0.06818084,0.3475377,1.699085,-0.1785049,-0.4749869,1.684375,0.08504272,-0.1222338,1.443167,0.06505994,-0.07161143,1.734793,0.05612335,-0.355687,1.72409,-0.09798809,0.1004879,1.724812,-0.02262131,-0.3486029,1.698121,-0.1403526,-0.1508275,1.751606,0.2962244,-0.1135507,1.696779,NA,NA,NotTracked,Unknown,
0.06933594,0.5571289,0.8305664,0.9575195,-0.246582,0.1069336,-5,5,5,-1,-16,-42,5,-4,0,1,1,1,3,0,1,1,25.5,25.5,25.5,0.8125,0.8125,0.8125,6.011979,4.778509,3.020257,3.049759,2.93135,6.346807,-0.1382569,-0.4717416,1.676137,0.0601241,-0.102479,1.496411,0.06879386,0.3474247,1.699375,-0.1536485,-0.4680065,1.640568,0.0150683,-0.07743917,1.546867,0.06516042,-0.07132174,1.735256,0.05614274,-0.3549791,1.724593,-0.09725864,0.1007873,1.724615,-0.02248758,-0.3478804,1.698694,-0.1401739,-0.1497341,1.75136,0.2952301,-0.1141143,1.691051,NA,NA,NotTracked,Unknown,
0.02636719,0.5664063,0.7978516,0.9575195,-0.246582,0.1069336,-24,-4,5,20,2,24,-5,3,0,1,1,1,3,0,1,1,30.625,30.625,30.625,0.8125,0.8125,0.8125,6.035378,4.969515,3.157141,3.049759,2.93135,6.346807,-0.1378683,-0.47174,1.674786,0.05447978,-0.07166944,1.502766,0.06947557,0.3473979,1.69964,-0.1549316,-0.4682857,1.640383,0.03388152,-0.02285022,1.53028,0.0653324,-0.07091489,1.735641,0.05624249,-0.353967,1.72514,-0.09660491,0.1008603,1.724458,-0.0222067,-0.3470617,1.699089,-0.1401138,-0.1496395,1.75134,0.2933037,-0.1144571,1.68236,NA,NA,NotTracked,Unknown,
-0.1181641,0.5639648,0.7695313,0.9575195,-0.246582,0.1069336,3,0,-12,-5,6,-24,-1,-2,0,1,1,1,3,0,1,1,19.1875,19.1875,19.1875,0.8125,0.8125,0.8125,6.090074,5.228133,3.380567,3.049759,2.93135,6.346807,-0.1377114,-0.4742153,1.673222,0.0480319,-0.04460206,1.512919,0.07023761,0.3472544,1.70002,-0.1775643,-0.4711648,1.683778,0.000232676,-0.06110553,1.554167,0.06561473,-0.07041133,1.73619,0.05648431,-0.352905,1.725856,-0.09617335,0.1009854,1.724342,-0.02163579,-0.3460909,1.699966,-0.1399422,-0.1492276,1.751302,0.292466,-0.1140977,1.67547,NA,NA,NotTracked,Unknown,
-0.1762695,0.5878906,0.7749023,0.9575195,-0.246582,0.1069336,0,9,-3,-35,-12,-56,-14,-7,0,1,1,1,3,0,1,1,17.375,17.375,17.375,0.8125,0.8125,0.8125,6.112411,5.302919,3.458001,3.049759,2.93135,6.346807,-0.1378331,-0.4712541,1.673388,0.03828381,-0.02018495,1.524896,0.07082947,0.3473229,1.700514,-0.1754968,-0.4714034,1.678857,-0.01683204,-0.03213781,1.55575,0.06567019,-0.07004665,1.73655,0.05642067,-0.3521512,1.726281,-0.09608606,0.1010974,1.724336,-0.02147845,-0.3453938,1.700545,-0.1399588,-0.1489728,1.751119,0.2896327,-0.1130329,1.664729,NA,NA,NotTracked,Unknown,
-0.206543,0.5893555,0.7358398,0.9575195,-0.246582,0.1069336,18,-16,-4,8,28,70,-2,-2,0,1,1,1,3,0,1,1,25.6875,25.6875,25.6875,0.8125,0.8125,0.8125,6.176616,5.430462,3.625582,3.049759,2.93135,6.346807,-0.1379489,-0.4736136,1.671923,0.07554111,-0.01495807,1.566857,0.07188062,0.3474454,1.701335,-0.1762009,-0.4714926,1.680331,0.1057446,0.01482902,1.607,0.06599908,-0.0696781,1.737008,0.05651055,-0.3515221,1.726659,-0.0954254,0.1012746,1.723685,-0.02128127,-0.3448315,1.700989,-0.139775,-0.1494542,1.750702,0.2840611,-0.1089116,1.644055,NA,NA,NotTracked,Unknown,
-0.2563477,0.6098633,0.6474609,0.9575195,-0.246582,0.1069336,-1,-7,-1,0,0,35,-2,2,0,1,1,1,3,0,1,1,10.8125,10.8125,10.8125,0.8125,0.8125,0.8125,6.277781,5.573932,3.86258,3.049759,2.93135,6.346807,-0.1384654,-0.4736651,1.672886,-0.01008807,0.05361728,1.582554,0.07233567,0.3474697,1.70167,-0.175378,-0.4713761,1.67954,-0.03355682,0.01754172,1.60545,0.06612815,-0.06954598,1.737161,0.05655134,-0.3514175,1.726679,-0.09463856,0.101365,1.722988,-0.02124486,-0.3447673,1.700974,-0.1397168,-0.149239,1.750652,0.2800749,-0.1067575,1.635356,NA,NA,NotTracked,Unknown,
-0.2958984,0.609375,0.6650391,0.9575195,-0.246582,0.1069336,6,6,-3,26,117,-22,-27,-8,0,1,1,1,3,0,1,1,10.5,10.5,10.5,0.8125,0.8125,0.8125,6.310338,5.605451,3.937879,3.049759,2.93135,6.346807,-0.1388854,-0.4751864,1.673022,-0.01039496,0.06006763,1.593293,0.07266776,0.347365,1.701994,-0.1551999,-0.4723915,1.637487,-0.02030469,0.01165642,1.6191,0.0661346,-0.06952127,1.737284,0.05654347,-0.3514118,1.726681,-0.09223564,0.1007041,1.720478,-0.02126583,-0.344779,1.700983,-0.139737,-0.1486436,1.750576,0.2765485,-0.1048708,1.628401,NA,NA,NotTracked,Unknown,
-0.3486328,0.6181641,0.6772461,0.9575195,-0.246582,0.1069336,-26,10,-16,9,30,-24,-2,32,0,1,1,1,3,0,1,1,-4.125,-4.125,-4.125,0.8125,0.8125,0.8125,6.360489,5.647833,4.074296,3.049759,2.93135,6.346807,-0.1397789,-0.4752062,1.673618,-0.009036887,0.06253418,1.606476,0.07286189,0.3474322,1.702137,-0.1740881,-0.4773154,1.672526,-0.01419205,0.01037676,1.62465,0.06613106,-0.06949356,1.737291,0.05641925,-0.3513499,1.726568,-0.09048849,0.1005334,1.718712,-0.02144757,-0.344756,1.700882,-0.1397415,-0.148075,1.750404,0.273013,-0.1028316,1.622161,NA,NA,NotTracked,Unknown,
-0.2739258,0.65625,0.7094727,0.9575195,-0.246582,0.1069336,10,2,-17,-18,-78,30,-37,-12,0,1,1,1,3,0,1,1,1.9375,1.9375,1.9375,0.8125,0.8125,0.8125,6.403909,5.657287,4.197014,3.049759,2.93135,6.346807,-0.1396161,-0.4749486,1.67555,0.04711464,0.03181531,1.618451,0.07310061,0.3476203,1.703063,-0.1738069,-0.4751484,1.672549,0.008087141,-0.01716978,1.617784,0.06607714,-0.06931245,1.737329,0.05598893,-0.35103,1.726189,-0.09045073,0.1008262,1.719143,-0.02185251,-0.3446067,1.700695,-0.1397321,-0.1479998,1.750435,0.2659544,-0.1007065,1.616321,NA,NA,NotTracked,Unknown,
-0.6455078,0.8354492,0.1640625,0.9575195,-0.246582,0.1069336,-4,-6,-5,127,-47,-5,36,-7,0,1,1,1,3,0,1,1,-6.1875,-6.1875,-6.1875,0.8125,0.8125,0.8125,6.410739,5.670597,4.335007,3.049759,2.93135,6.346807,-0.1409748,-0.4735742,1.676012,0.04692914,0.03222095,1.618155,0.07305939,0.3476722,1.703197,-0.1744454,-0.4732323,1.672631,0.006700772,-0.01970556,1.617075,0.06594026,-0.06913924,1.737302,0.05568656,-0.3507767,1.725922,-0.09030364,0.10123,1.719351,-0.02217598,-0.3444094,1.700536,-0.1397428,-0.1479706,1.750448,0.2647756,-0.1003484,1.615722,NA,NA,NotTracked,Unknown,
-0.3881836,0.831543,0.4975586,0.9575195,-0.246582,0.1069336,3,8,18,2,24,10,-2,4,0,1,1,1,3,0,1,1,36.5625,36.5625,36.5625,0.8125,0.8125,0.8125,6.417979,5.650397,4.294465,3.049759,2.93135,6.346807,-0.1500939,-0.4641379,1.677168,0.04576518,0.03053645,1.615404,0.07303567,0.3477612,1.703374,-0.1719542,-0.4727737,1.656935,0.004677145,-0.01446923,1.617873,0.06580635,-0.06903832,1.737268,0.05524572,-0.3505847,1.725611,-0.09026796,0.101328,1.71967,-0.02260498,-0.3442878,1.700337,-0.1398839,-0.1473676,1.750502,0.2636507,-0.09996416,1.615007,NA,NA,NotTracked,Unknown,
-0.4804688,0.6083984,0.5810547,0.9575195,-0.246582,0.1069336,3,13,1,-25,-22,11,7,4,0,1,1,1,3,0,1,1,14.1875,14.1875,14.1875,0.8125,0.8125,0.8125,6.412811,5.643051,4.274611,3.049759,2.93135,6.346807,-0.1491091,-0.4734152,1.677909,0.04501782,0.02879827,1.615104,0.07295819,0.3477936,1.70353,-0.1661138,-0.4885628,1.68653,0.007009464,-0.02318767,1.618778,0.06570427,-0.06902619,1.737286,0.05489887,-0.3506068,1.72547,-0.09034815,0.1014016,1.720097,-0.02298264,-0.3444346,1.70031,-0.139933,-0.1472221,1.750762,0.263258,-0.09963167,1.615181,NA,NA,NotTracked,Unknown,
-0.4238281,0.7167969,0.5605469,0.9575195,-0.246582,0.1069336,-44,-21,-16,7,-5,4,3,-8,0,1,1,1,3,0,1,1,23.25,23.25,23.25,0.8125,0.8125,0.8125,6.419518,5.662244,4.228283,3.049759,2.93135,6.346807,-0.1524345,-0.4655305,1.680041,0.04394529,0.02934335,1.612425,0.07283279,0.3478137,1.703862,-0.184446,-0.4670395,1.69675,0.00746787,-0.01780237,1.618613,0.06559375,-0.06896239,1.737203,0.05473672,-0.3505304,1.725052,-0.09031943,0.1014385,1.7202,-0.02313544,-0.3444689,1.700074,-0.1403309,-0.1499527,1.751025,0.2626983,-0.09947099,1.6148,NA,NA,NotTracked,Unknown,
-0.4467773,0.6586914,0.6259766,0.9575195,-0.246582,0.1069336,17,14,-6,-1,12,20,-2,-1,0,1,1,1,3,0,1,1,7,7,7,0.8125,0.8125,0.8125,6.412943,5.670942,4.189945,3.049759,2.93135,6.346807,-0.1548417,-0.4610496,1.684411,-0.01170083,0.06838728,1.622785,0.07260554,0.3478351,1.7044,-0.1812515,-0.4572148,1.686857,-0.02748345,0.01781727,1.632034,0.06536934,-0.06898769,1.737033,0.05429471,-0.3506025,1.724334,-0.08976278,0.1010485,1.719524,-0.02360492,-0.34461,1.69945,-0.1405424,-0.1512576,1.751504,0.2621778,-0.09919385,1.614413,NA,NA,NotTracked,NotTracked,
-0.4384766,0.7631836,0.6083984,0.9575195,-0.246582,0.1069336,25,10,-19,1,-23,23,12,5,0,1,1,1,3,0,1,1,-10.375,-10.375,-10.375,0.8125,0.8125,0.8125,6.390853,5.671788,4.151886,3.049759,2.93135,6.346807,-0.1549174,-0.4624913,1.684973,-0.01218383,0.06906565,1.618062,0.07250167,0.3478398,1.704671,-0.1822249,-0.4629122,1.688821,-0.02753547,0.01821078,1.632484,0.06530619,-0.06896693,1.737038,0.05416496,-0.3505737,1.724188,-0.08884055,0.1007919,1.718022,-0.02380429,-0.3445761,1.699175,-0.1405786,-0.1512303,1.751622,0.2618164,-0.09907789,1.614348,NA,NA,NotTracked,NotTracked,
-0.4057617,0.6474609,0.6606445,0.9575195,-0.246582,0.1069336,12,-13,-5,-4,-9,-13,7,-6,0,1,1,1,3,0,1,1,8.875,8.875,8.875,0.8125,0.8125,0.8125,6.376873,5.66868,4.110551,3.049759,2.93135,6.346807,-0.1549814,-0.4618587,1.684243,-0.01218518,0.06919266,1.612439,0.07242631,0.3478894,1.704903,-0.1818289,-0.4629392,1.686237,-0.02877148,0.02095061,1.630597,0.06516758,-0.06890153,1.736993,0.05405311,-0.3505195,1.724058,-0.08885895,0.1007983,1.718019,-0.02397171,-0.344491,1.698871,-0.1406539,-0.1517897,1.751867,0.2617706,-0.09899889,1.614304,NA,NA,NotTracked,Unknown,
-0.4106445,0.7709961,0.6738281,0.9575195,-0.246582,0.1069336,-7,-10,-3,-1,2,-66,-66,-5,0,1,1,1,3,0,1,1,-6.0625,-6.0625,-6.0625,0.8125,0.8125,0.8125,6.369112,5.660075,4.091614,3.049759,2.93135,6.346807,-0.1548434,-0.4619043,1.683094,-0.0116344,0.07068808,1.607693,0.07237358,0.347943,1.704975,-0.1811218,-0.4547904,1.686136,-0.03102867,0.02395438,1.627879,0.06515728,-0.06890304,1.736993,0.05402201,-0.3505402,1.724003,-0.0879532,0.1005651,1.715698,-0.02403147,-0.3445356,1.698708,-0.1406725,-0.1514956,1.751794,0.2617635,-0.09885903,1.614182,NA,NA,NotTracked,Unknown,
-0.4189453,0.6401367,0.7216797,0.9575195,-0.246582,0.1069336,9,-7,-9,-16,-71,84,-72,-11,0,1,1,1,3,0,1,1,-7.4375,-7.4375,-7.4375,0.8125,0.8125,0.8125,6.355051,5.652768,4.105316,3.049759,2.93135,6.346807,-0.1554654,-0.4582072,1.680995,-0.01053566,0.06932883,1.615643,0.07229217,0.3479405,1.705118,-0.1812272,-0.4571922,1.683172,-0.02831207,0.0218665,1.627491,0.06501414,-0.06891681,1.736915,0.0537871,-0.3506148,1.723717,-0.08737029,0.1006001,1.714145,-0.02429324,-0.3446396,1.698293,-0.1407375,-0.1513736,1.751733,0.261397,-0.09868203,1.614105,NA,NA,NotTracked,Unknown,
-0.3793945,0.75,0.6621094,0.9575195,-0.246582,0.1069336,-3,-10,0,-9,-36,-112,-29,-1,0,1,1,1,3,0,1,1,-8,-8,-8,0.8125,0.8125,0.8125,6.397863,5.654513,4.214765,3.049759,2.93135,6.346807,-0.1545856,-0.4546291,1.681267,-0.01022651,0.06733146,1.629361,0.07221474,0.3479767,1.705134,-0.1808629,-0.46032,1.684552,-0.0294142,0.0226092,1.627503,0.06488277,-0.06885146,1.736838,0.05368076,-0.350565,1.723598,-0.08772508,0.1008279,1.714478,-0.02439753,-0.3446033,1.698174,-0.1407399,-0.1512472,1.751549,0.261079,-0.09877582,1.614347,NA,NA,NotTracked,NotTracked,
-0.7558594,0.9858398,0.1157227,0.9575195,-0.246582,0.1069336,13,10,11,109,-18,18,20,-2,0,1,1,1,3,0,1,1,-45.1875,-45.1875,-45.1875,0.8125,0.8125,0.8125,6.365939,5.64495,4.294541,3.049759,2.93135,6.346807,-0.1545631,-0.4565662,1.678312,-0.01007779,0.06747985,1.635086,0.07215733,0.3480029,1.705113,-0.1789325,-0.4671147,1.667381,-0.03934715,0.03113149,1.631115,0.06482895,-0.06884928,1.736736,0.05367079,-0.3506246,1.723443,-0.08841283,0.1010312,1.714989,-0.02441103,-0.3446361,1.698068,-0.1408201,-0.1513923,1.751369,0.2610931,-0.09934606,1.614201,NA,NA,NotTracked,NotTracked,
-0.7558594,0.9858398,0.1157227,0.9575195,-0.246582,0.1069336,13,10,11,109,-18,18,20,-2,0,1,1,1,3,0,1,1,-45.1875,-45.1875,-45.1875,0.8125,0.8125,0.8125,6.365939,5.64495,4.294541,3.049759,2.93135,6.346807,-0.1540705,-0.4579783,1.675148,-0.009865602,0.06730437,1.635257,0.07207748,0.3480441,1.705152,-0.1803602,-0.4633037,1.677428,-0.02853335,0.02232212,1.627727,0.06472762,-0.06881461,1.736677,0.05355105,-0.350573,1.723335,-0.08963215,0.101626,1.71686,-0.02451875,-0.3445555,1.698016,-0.1412129,-0.151099,1.750996,0.2610099,-0.0992386,1.614315,NA,NA,NotTracked,NotTracked,
-0.3603516,0.9228516,0.5107422,0.9575195,-0.246582,0.1069336,18,11,-19,-20,-1,-4,8,13,0,1,1,1,3,0,1,1,35.3125,35.3125,35.3125,0.8125,0.8125,0.8125,6.374701,5.639049,4.247065,3.049759,2.93135,6.346807,-0.1552089,-0.4565893,1.673448,0.04422306,0.01303791,1.614463,0.07201385,0.3480851,1.705128,-0.1803109,-0.4487299,1.675958,0.00321818,-0.03610142,1.615625,0.06459826,-0.06879078,1.736602,0.05329213,-0.3506023,1.723244,-0.09010683,0.1015208,1.717117,-0.02474696,-0.3445929,1.698023,-0.1414231,-0.1510989,1.750632,0.2608219,-0.09923755,1.614403,NA,NA,NotTracked,NotTracked,
-0.5004883,0.6132813,0.6352539,0.9575195,-0.246582,0.1069336,4,-17,7,5,-9,0,2,-10,0,1,1,1,3,0,1,1,1.1875,1.1875,1.1875,0.8125,0.8125,0.8125,6.362438,5.644735,4.236369,3.049759,2.93135,6.346807,-0.1549733,-0.4537078,1.672763,0.04410879,0.01352782,1.614155,0.07198028,0.3480881,1.705113,-0.1806742,-0.4581453,1.676517,0.003228983,-0.03637352,1.615523,0.06450953,-0.06877591,1.736508,0.0531965,-0.350616,1.723117,-0.09025822,0.1015669,1.71719,-0.02482109,-0.3446118,1.697955,-0.1415984,-0.151151,1.750328,0.260389,-0.09991264,1.615052,NA,NA,NotTracked,Unknown,
-0.3510742,0.7202148,0.6015625,0.9575195,-0.246582,0.1069336,-9,-2,8,-1,-15,-4,-1,1,0,1,1,1,3,0,1,1,16.5,16.5,16.5,0.8125,0.8125,0.8125,6.378898,5.672244,4.184249,3.049759,2.93135,6.346807,-0.1547967,-0.4552902,1.672178,0.04433678,0.0182861,1.610819,0.07194383,0.3480667,1.705079,-0.1821427,-0.4565833,1.679437,0.003461783,-0.03358219,1.615066,0.06441069,-0.06882171,1.736312,0.05313928,-0.350629,1.722979,-0.09043472,0.1015701,1.717201,-0.02488414,-0.3445961,1.697785,-0.1416588,-0.1514268,1.750028,0.2601361,-0.09988704,1.615059,NA,NA,NotTracked,Unknown,
-0.3671875,0.6499023,0.6137695,0.9575195,-0.246582,0.1069336,-2,1,-8,-9,-2,17,2,-4,0,1,1,1,3,0,1,1,9.3125,9.3125,9.3125,0.8125,0.8125,0.8125,6.376226,5.678133,4.155086,3.049759,2.93135,6.346807,-0.1541443,-0.4582255,1.671262,0.04288462,0.02106297,1.6086,0.07191703,0.3480484,1.704988,-0.1822104,-0.4578599,1.679591,0.006210641,-0.03021954,1.615044,0.06432591,-0.0688597,1.736048,0.05309229,-0.3507165,1.722624,-0.09049008,0.1015939,1.716986,-0.02495136,-0.3446341,1.697278,-0.1417451,-0.1514544,1.749723,0.259799,-0.09986503,1.615367,NA,NA,NotTracked,Unknown,
-0.2900391,0.7128906,0.5786133,0.9575195,-0.246582,0.1069336,-9,-5,3,5,14,6,2,-1,0,1,1,1,3,0,1,1,1.3125,1.3125,1.3125,0.8125,0.8125,0.8125,6.358176,5.669751,4.098852,3.049759,2.93135,6.346807,-0.154571,-0.4595612,1.671803,0.04493059,0.02456203,1.568051,0.07190338,0.3480533,1.70498,-0.1836537,-0.4615596,1.681303,0.04366975,0.02392313,1.545559,0.06431221,-0.06886585,1.736004,0.05310915,-0.3507483,1.722541,-0.09023383,0.101517,1.716343,-0.02492623,-0.344686,1.697087,-0.1419455,-0.1524576,1.748986,0.2599592,-0.09979667,1.615478,NA,NA,NotTracked,Unknown,
-0.359375,0.6621094,0.6640625,0.9575195,-0.246582,0.1069336,0,4,4,4,2,14,-3,-1,0,1,1,1,3,0,1,1,-0.9375,-0.9375,-0.9375,0.8125,0.8125,0.8125,6.322874,5.643768,4.017815,3.049759,2.93135,6.346807,-0.1542074,-0.4599665,1.671134,0.04889584,0.02850005,1.564948,0.07185216,0.3481111,1.704888,-0.1821104,-0.4589501,1.679557,0.04659405,0.02772319,1.544779,0.06427534,-0.06887393,1.735952,0.05309381,-0.3507544,1.722519,-0.08971956,0.1012872,1.715534,-0.02494213,-0.344683,1.697046,-0.1420377,-0.1522857,1.748758,0.2603799,-0.09974147,1.615847,NA,NA,NotTracked,Unknown,
-0.3413086,0.6728516,0.6704102,0.9575195,-0.246582,0.1069336,9,0,-1,3,18,5,2,0,0,1,1,1,3,0,1,1,-0.375,-0.375,-0.375,0.8125,0.8125,0.8125,6.300096,5.627475,3.962617,3.049759,2.93135,6.346807,-0.1544323,-0.4622773,1.670515,0.04768911,0.027623,1.560508,0.07181551,0.34811,1.704864,-0.1870547,-0.4697953,1.684125,0.03981062,0.01512719,1.54375,0.06413448,-0.06886256,1.735782,0.05301923,-0.3507824,1.722391,-0.08951443,0.1012056,1.714794,-0.0250049,-0.3447076,1.696925,-0.1421842,-0.1518633,1.748201,0.2620359,-0.1000427,1.617043,NA,NA,NotTracked,Unknown,
-0.3393555,0.6523438,0.6777344,0.9575195,-0.246582,0.1069336,7,2,3,0,-8,-21,5,1,0,1,1,1,3,0,1,1,28.4375,28.4375,28.4375,0.8125,0.8125,0.8125,6.256471,5.562374,3.76395,3.049759,2.93135,6.346807,-0.1533337,-0.4613829,1.667719,0.0442087,0.02651265,1.559527,0.07160658,0.3481134,1.70471,-0.1220809,-0.4705721,1.667,0.03429578,-0.01412858,1.60268,0.06407003,-0.06882671,1.735494,0.05299164,-0.3507137,1.722102,-0.08971407,0.1012016,1.714891,-0.02501514,-0.3446297,1.696552,-0.1423567,-0.152138,1.747839,0.2684405,-0.1005775,1.620684,NA,NA,NotTracked,Unknown,
-0.2919922,0.6342773,0.699707,0.9575195,-0.246582,0.1069336,-2,2,-1,6,2,8,17,0,0,1,1,1,3,0,1,1,25.625,25.625,25.625,0.8125,0.8125,0.8125,6.238623,5.497916,3.613746,3.049759,2.93135,6.346807,-0.1523372,-0.4642519,1.667718,0.04108768,0.02240944,1.53684,0.07142875,0.348112,1.70457,-0.1524079,-0.4712932,1.627214,0.02970376,-0.01116753,1.538625,0.06393962,-0.06879313,1.735275,0.0529904,-0.3506832,1.721937,-0.0898925,0.1008693,1.714671,-0.02500436,-0.3446242,1.696516,-0.1425696,-0.1527883,1.747355,0.2757936,-0.101075,1.625048,NA,NA,NotTracked,Unknown,
-0.324707,0.6240234,0.7231445,0.9575195,-0.246582,0.1069336,2,-1,-3,-2,-19,1,0,-3,0,1,1,1,3,0,1,1,15.5625,15.5625,15.5625,0.8125,0.8125,0.8125,6.224216,5.461188,3.537405,3.049759,2.93135,6.346807,-0.1512862,-0.4716041,1.666,0.144834,-0.0417485,1.538786,0.07079853,0.3481256,1.704288,-0.124444,-0.4662653,1.644846,0.1306333,-0.05091974,1.574,0.06391597,-0.06861744,1.734768,0.05321769,-0.3504474,1.721402,-0.09116968,0.1010726,1.716175,-0.02474046,-0.3445247,1.696133,-0.1426395,-0.1527713,1.747233,0.2809564,-0.1015913,1.629186,NA,NA,NotTracked,Unknown,
-0.3076172,0.5888672,0.7573242,0.9575195,-0.246582,0.1069336,-2,-3,-6,-2,-2,-4,5,6,0,1,1,1,3,0,1,1,16.375,16.375,16.375,0.8125,0.8125,0.8125,6.211635,5.418054,3.46129,3.049759,2.93135,6.346807,-0.1518074,-0.4710002,1.664794,0.06553139,-0.01134392,1.508427,0.07011724,0.3480596,1.70383,-0.1279197,-0.4550408,1.643923,0.0287232,-0.03894021,1.508267,0.06380784,-0.06853124,1.734316,0.05328053,-0.3503213,1.721084,-0.09213468,0.101241,1.717306,-0.02462425,-0.3444929,1.695899,-0.1426996,-0.1526995,1.747017,0.2870958,-0.1029474,1.634105,NA,NA,NotTracked,Unknown,
-0.2280273,0.5644531,0.7543945,0.9575195,-0.246582,0.1069336,1,3,14,6,-1,-3,-3,-6,0,1,1,1,3,0,1,1,10,10,10,0.8125,0.8125,0.8125,6.188561,5.251173,3.240391,3.049759,2.93135,6.346807,-0.146563,-0.4719377,1.66835,0.06759971,-0.03090933,1.503208,0.06952511,0.3481488,1.703643,-0.09847001,-0.4768786,1.669429,0.02242022,-0.05263313,1.539174,0.06360113,-0.06844544,1.73401,0.05323981,-0.3502816,1.720877,-0.09287128,0.1013788,1.718211,-0.0246256,-0.3444785,1.695809,-0.142886,-0.1517312,1.74674,0.2916157,-0.1045657,1.640468,NA,NA,NotTracked,Open,
-0.1513672,0.6191406,0.6972656,0.9575195,-0.246582,0.1069336,0,-2,-5,-5,-3,-19,-12,-7,0,1,1,1,3,0,1,1,11.5,11.5,11.5,0.8125,0.8125,0.8125,6.183872,5.024922,3.045309,3.049759,2.93135,6.346807,-0.1528317,-0.4658224,1.6687,0.09073806,-0.08423921,1.484133,0.06779898,0.3482218,1.702741,-0.1433379,-0.510156,1.720219,0.05507779,-0.07408467,1.546231,0.06317136,-0.06849024,1.733423,0.05321182,-0.350238,1.720674,-0.09510259,0.1010734,1.718675,-0.02458282,-0.3445311,1.695625,-0.1429271,-0.1525357,1.746351,0.3016016,-0.1055579,1.654541,NA,NA,NotTracked,Unknown,
-0.07080078,0.6176758,0.7773438,0.9575195,-0.246582,0.1069336,2,6,15,7,1,1,-14,-10,0,1,1,1,3,0,1,1,-1.375,-1.375,-1.375,0.8125,0.8125,0.8125,6.190393,4.854967,2.932912,3.049759,2.93135,6.346807,-0.1529542,-0.4634129,1.667573,0.1017008,-0.1153681,1.477968,0.06697001,0.3482485,1.702095,-0.1757004,-0.460038,1.6855,0.05999199,-0.08737828,1.533823,0.06294168,-0.06842234,1.733183,0.05320191,-0.3502238,1.720685,-0.09611572,0.1008388,1.719058,-0.024588,-0.3445309,1.695631,-0.1429291,-0.1525565,1.746366,0.304507,-0.1054191,1.65929,NA,NA,NotTracked,Unknown,
-0.03125,0.59375,0.730957,0.9575195,-0.246582,0.1069336,-2,-1,-2,-2,1,2,2,-1,0,1,1,1,3,0,1,1,-4.875,-4.875,-4.875,0.8125,0.8125,0.8125,6.194024,4.765526,2.875893,3.049759,2.93135,6.346807,-0.1516411,-0.4675642,1.668375,0.1177372,-0.1503679,1.474651,0.06612343,0.3483303,1.701973,-0.181444,-0.4725697,1.679833,0.07028434,-0.1438902,1.522611,0.06280985,-0.06847782,1.733097,0.05328634,-0.3503926,1.720684,-0.09715796,0.100565,1.719715,-0.02447325,-0.3448639,1.695705,-0.1429072,-0.1525516,1.746502,0.3053379,-0.1056861,1.662481,NA,NA,NotTracked,Open,
0.1474609,0.652832,0.7128906,0.9575195,-0.246582,0.1069336,3,2,0,35,2,3,-9,-11,0,1,1,1,3,0,1,1,2.4375,2.4375,2.4375,0.8125,0.8125,0.8125,6.235651,4.477879,2.707101,3.049759,2.93135,6.346807,-0.1410499,-0.4745549,1.667128,0.1284114,-0.1834442,1.472471,0.06501555,0.3485132,1.701629,-0.1716838,-0.4809166,1.653091,0.07558618,-0.1693695,1.523083,0.06260961,-0.06859797,1.732922,0.05332561,-0.3508053,1.720692,-0.0981668,0.1002067,1.720093,-0.02439369,-0.3453821,1.695833,-0.1428986,-0.1527103,1.746591,0.3097391,-0.1054322,1.676175,NA,NA,NotTracked,Open,
0.3847656,0.625,0.7207031,0.9575195,-0.246582,0.1069336,0,0,-2,-6,-1,10,2,0,0,1,1,1,3,0,1,1,-6.625,-6.625,-6.625,0.8125,0.8125,0.8125,6.268172,4.297563,2.595995,3.049759,2.93135,6.346807,-0.1402553,-0.4749779,1.666629,0.1379458,-0.2213607,1.470173,0.06397592,0.3485392,1.700949,-0.1642601,-0.4712872,1.640477,0.09016762,-0.2115909,1.5037,0.06212895,-0.06897049,1.732413,0.05313846,-0.3517722,1.720129,-0.09908199,0.0998612,1.720258,-0.02453295,-0.3463422,1.695461,-0.1428415,-0.1526886,1.746606,0.3103575,-0.1054683,1.68471,NA,NA,NotTracked,Unknown,
0.2885742,0.7011719,0.675293,0.9575195,-0.246582,0.1069336,-1,-3,-1,-9,1,-1,-1,1,0,1,1,1,3,0,1,1,-2.625,-2.625,-2.625,0.8125,0.8125,0.8125,6.29252,4.213644,2.538764,3.049759,2.93135,6.346807,-0.1387472,-0.4753298,1.668676,0.174058,-0.2847875,1.479733,0.06206378,0.3487032,1.700381,-0.1753925,-0.4785591,1.68,0.1311617,-0.2908393,1.532886,0.05990986,-0.06969563,1.731018,0.05028113,-0.3537213,1.718421,-0.1002755,0.09977172,1.720494,-0.02760624,-0.3476307,1.693981,-0.1427472,-0.1527203,1.74672,0.3074258,-0.1058165,1.700054,NA,NA,NotTracked,Unknown,
0.6679688,0.574707,0.5927734,0.9575195,-0.246582,0.1069336,0,1,1,16,0,-1,3,4,0,1,1,1,3,0,1,1,-58.6875,-58.6875,-58.6875,0.8125,0.8125,0.8125,6.333025,3.950031,2.359921,3.049759,2.93135,6.346807,-0.1383584,-0.4752742,1.668859,0.1886411,-0.3154959,1.485213,0.06111789,0.3486638,1.699858,-0.17651,-0.4739642,1.67664,0.1513888,-0.3245207,1.54285,0.05936702,-0.0697707,1.730507,0.04964881,-0.3539929,1.71796,-0.1007811,0.09955148,1.720575,-0.02854964,-0.3478468,1.693589,-0.1425822,-0.1533325,1.746642,0.3044091,-0.1063716,1.704475,NA,NA,NotTracked,Unknown,
0.5576172,0.6147461,0.5786133,0.9575195,-0.246582,0.1069336,-4,-5,-2,-13,-6,-71,0,-1,0,1,1,1,3,0,1,1,-2.9375,-2.9375,-2.9375,0.8125,0.8125,0.8125,6.393181,3.79249,2.239684,3.049759,2.93135,6.346807,-0.1380025,-0.472171,1.668442,0.2144725,-0.3332759,1.482503,0.05999689,0.3486687,1.699302,-0.1726937,-0.4870222,1.665,0.1703713,-0.3277738,1.493643,0.05924784,-0.06980187,1.730009,0.04984614,-0.3541313,1.717299,-0.1012678,0.09941343,1.720343,-0.02853462,-0.348021,1.692872,-0.1423612,-0.1536617,1.746498,0.3022877,-0.1070286,1.706535,NA,NA,NotTracked,Unknown,
0.5498047,0.7382813,0.5014648,0.9575195,-0.246582,0.1069336,-1,-2,-3,7,2,10,-1,-1,0,1,1,1,3,0,1,1,-19.9375,-19.9375,-19.9375,0.8125,0.8125,0.8125,6.428971,3.712427,2.17405,3.049759,2.93135,6.346807,-0.1375949,-0.4726671,1.669357,0.2262283,-0.3621437,1.488648,0.05927269,0.3488281,1.699048,-0.170736,-0.4840421,1.664212,0.1823637,-0.3578488,1.498454,0.05930254,-0.06988889,1.729746,0.05050657,-0.3544684,1.7169,-0.1016819,0.0991781,1.720339,-0.02801443,-0.3484237,1.692559,-0.1420926,-0.1575954,1.746089,0.3000556,-0.109691,1.708836,NA,NA,NotTracked,Unknown,
0.8793945,0.3969727,0.503418,0.9575195,-0.246582,0.1069336,1,0,0,19,-2,-2,1,0,0,1,1,1,3,0,1,1,-49.9375,-49.9375,-49.9375,0.8125,0.8125,0.8125,6.493281,3.487834,1.969473,3.049759,2.93135,6.346807,-0.1373218,-0.4725067,1.669168,0.2559458,-0.4016933,1.513287,0.05851549,0.348891,1.698827,-0.1715287,-0.4715966,1.670927,0.2061548,-0.4008647,1.493815,0.05946907,-0.07005852,1.729543,0.0529322,-0.3554936,1.716839,-0.1020885,0.09903947,1.72013,-0.02552892,-0.350022,1.692457,-0.1417179,-0.1584409,1.745878,0.2988146,-0.1286279,1.709848,NA,NA,NotTracked,Unknown,
0.8793945,0.3969727,0.503418,0.9575195,-0.246582,0.1069336,-2,-1,-2,-7,0,4,0,-2,0,1,1,1,3,0,1,1,-49.9375,-49.9375,-49.9375,0.8125,0.8125,0.8125,6.493281,3.487834,1.969473,3.049759,2.93135,6.346807,-0.1374605,-0.4726534,1.669892,0.2690356,-0.417643,1.526876,0.05831295,0.3489128,1.698682,-0.1781213,-0.4840767,1.6788,0.2234799,-0.4144377,1.511885,0.0596887,-0.07023702,1.729376,0.05400366,-0.3560551,1.716862,-0.1024428,0.0987442,1.719956,-0.02438477,-0.35072,1.692533,-0.1416204,-0.15993,1.745901,0.298712,-0.1352708,1.708303,NA,NA,NotTracked,Unknown,
0.8208008,0.5620117,0.3691406,0.9575195,-0.246582,0.1069336,-2,-2,-2,0,-1,1,0,-1,0,1,1,1,3,0,1,1,1,1,1,0.8125,0.8125,0.8125,6.720134,3.285226,1.700107,3.049759,2.93135,6.346807,-0.1359716,-0.4752242,1.667758,0.28135,-0.4368646,1.542246,0.05793612,0.3489695,1.698343,-0.1743367,-0.4825345,1.670544,0.2347016,-0.4413843,1.519,0.05975733,-0.07029935,1.729357,0.05460354,-0.356374,1.717114,-0.1027613,0.09870797,1.719905,-0.0237764,-0.351097,1.692769,-0.1418257,-0.1573845,1.745266,0.2982444,-0.1430568,1.705649,NA,NA,NotTracked,Unknown,
0.9609375,0.3569336,0.1948242,0.9575195,-0.246582,0.1069336,0,0,-2,-2,0,-1,-1,0,0,1,1,1,3,0,1,1,-72.0625,-72.0625,-72.0625,0.8125,0.8125,0.8125,6.996288,3.102144,1.299081,3.049759,2.93135,6.346807,-0.1361288,-0.475076,1.668406,0.2978233,-0.4483543,1.563508,0.05770651,0.3489414,1.698302,-0.1739055,-0.4881612,1.669222,0.2560546,-0.4494089,1.539913,0.0597579,-0.07035914,1.729366,0.05473424,-0.3565439,1.717282,-0.1028292,0.09872051,1.719883,-0.02363387,-0.351363,1.693051,-0.1419368,-0.1568609,1.745143,0.2974736,-0.1505204,1.702506,NA,NA,NotTracked,Unknown,
1.072266,0.2543945,0.09082031,0.9575195,-0.246582,0.1069336,-1,0,1,-1,0,1,-2,-2,0,1,1,1,3,0,1,1,-48.1875,-48.1875,-48.1875,0.8125,0.8125,0.8125,7.281047,3.021552,0.9292126,3.049759,2.93135,6.346807,-0.1368659,-0.4756053,1.668104,0.3041253,-0.4671927,1.577442,0.05747645,0.3489491,1.698296,-0.1730048,-0.4833364,1.662186,0.2617317,-0.4741998,1.555,0.05979681,-0.0703911,1.72936,0.05500396,-0.3566615,1.717459,-0.1030217,0.09871708,1.719848,-0.02332376,-0.351582,1.693382,-0.1419346,-0.1569458,1.745236,0.2972822,-0.1542935,1.700253,NA,NA,NotTracked,Unknown,
1.102539,0.2905273,0.004882813,0.9575195,-0.246582,0.1069336,1,0,-3,3,-1,1,0,1,0,1,1,1,3,0,1,1,-33.875,-33.875,-33.875,0.8125,0.8125,0.8125,7.44201,2.998208,0.7397065,3.049759,2.93135,6.346807,-0.1373624,-0.4750664,1.668211,0.3185231,-0.4836361,1.60495,0.05711688,0.3490012,1.698243,-0.1514497,-0.4668552,1.630538,0.2785432,-0.494339,1.5807,0.05984131,-0.07048762,1.729378,0.05518546,-0.3568466,1.717808,-0.1031869,0.09870908,1.719847,-0.02315623,-0.3518691,1.693946,-0.1419235,-0.156695,1.745195,0.2965619,-0.158841,1.697665,NA,NA,NotTracked,NotTracked,
1.064941,0.2900391,-0.09130859,0.9575195,-0.246582,0.1069336,2,-2,0,0,-3,-2,-1,0,0,1,1,1,3,0,1,1,-44.6875,-44.6875,-44.6875,0.8125,0.8125,0.8125,7.769798,2.968049,0.3310654,3.049759,2.93135,6.346807,-0.1385554,-0.4725781,1.667343,0.3217844,-0.4864147,1.614072,0.05707964,0.3490134,1.698255,-0.1528497,-0.4683107,1.630584,0.2812349,-0.4988096,1.588852,0.05986015,-0.07052821,1.729393,0.05522929,-0.3569522,1.718018,-0.1032603,0.09874274,1.719826,-0.02312258,-0.3519904,1.694266,-0.1419778,-0.1562759,1.745182,0.296208,-0.1609031,1.697289,NA,NA,NotTracked,NotTracked,
0.9951172,0.2441406,-0.009765625,0.9575195,-0.246582,0.1069336,1,0,-1,-8,-1,-1,0,-2,0,1,1,1,3,0,1,1,-31.875,-31.875,-31.875,0.8125,0.8125,0.8125,7.789268,2.959996,0.2679857,3.049759,2.93135,6.346807,-0.1394998,-0.4722387,1.666644,0.322494,-0.486264,1.618,0.05700227,0.3491004,1.698252,-0.1724749,-0.4790698,1.655546,0.2821741,-0.5005543,1.59204,0.05989486,-0.07052755,1.729361,0.05538006,-0.3569832,1.718064,-0.1033101,0.09874025,1.71981,-0.02299209,-0.3520716,1.694367,-0.1420171,-0.1558564,1.745356,0.2962198,-0.1615276,1.697455,NA,NA,NotTracked,NotTracked,
0.9331055,0.2851563,0.1269531,0.9575195,-0.246582,0.1069336,-2,-1,-2,-1,0,0,-1,-1,0,1,1,1,3,0,1,1,-0.8125,-0.8125,-0.8125,0.8125,0.8125,0.8125,7.631105,2.958605,0.4110574,3.049759,2.93135,6.346807,-0.1483798,-0.4677756,1.667487,0.3221438,-0.483852,1.620165,0.05695297,0.3491112,1.698266,-0.1551526,-0.4607712,1.6341,0.2830406,-0.4973246,1.594581,0.05991114,-0.07055274,1.729398,0.05536069,-0.357039,1.718423,-0.1033906,0.09869779,1.719879,-0.02303437,-0.3521801,1.694859,-0.1420371,-0.1558345,1.745496,0.2965199,-0.1627303,1.698828,NA,NA,NotTracked,NotTracked,
0.9267578,0.3212891,0.1708984,0.9575195,-0.246582,0.1069336,-1,2,0,-3,0,-2,0,-1,0,1,1,1,3,0,1,1,-0.625,-0.625,-0.625,0.8125,0.8125,0.8125,7.554551,2.963992,0.4882634,3.049759,2.93135,6.346807,-0.1496947,-0.4709657,1.666804,0.318484,-0.4806559,1.613744,0.05692285,0.3491634,1.698273,-0.1780687,-0.4781684,1.666491,0.2792175,-0.4952859,1.586749,0.06005067,-0.07060055,1.729396,0.05565575,-0.3571039,1.718666,-0.1033992,0.09871159,1.719881,-0.02274899,-0.3522289,1.695066,-0.1420374,-0.1559009,1.745504,0.2966741,-0.1645522,1.703146,NA,NA,NotTracked,NotTracked,
0.8925781,0.3554688,0.1855469,0.9575195,-0.246582,0.1069336,-3,0,0,-2,-1,-1,0,0,0,1,1,1,3,0,1,1,-16.125,-16.125,-16.125,0.8125,0.8125,0.8125,7.327052,2.990173,0.7025814,3.049759,2.93135,6.346807,-0.1506766,-0.4668038,1.66796,0.3165715,-0.4787754,1.60988,0.05692983,0.3491568,1.698273,-0.1789892,-0.4629877,1.678,0.2896964,-0.4972872,1.572526,0.06021721,-0.07071991,1.729442,0.05598618,-0.3572604,1.718818,-0.1033648,0.09866605,1.719818,-0.02245081,-0.3524418,1.695184,-0.1421122,-0.1564283,1.745457,0.2968897,-0.1652187,1.704989,NA,NA,NotTracked,NotTracked,
0.8925781,0.3554688,0.1855469,0.9575195,-0.246582,0.1069336,-2,-2,-1,-1,-1,-2,-1,0,0,1,1,1,3,0,1,1,-16.125,-16.125,-16.125,0.8125,0.8125,0.8125,7.327052,2.990173,0.7025814,3.049759,2.93135,6.346807,-0.1502787,-0.4676208,1.668575,0.3139078,-0.474135,1.605351,0.0569561,0.3491303,1.698217,-0.1763326,-0.4683532,1.667548,0.274432,-0.4882945,1.575867,0.06033064,-0.07076266,1.729426,0.05619379,-0.3572858,1.718921,-0.1032782,0.09844202,1.719629,-0.02228447,-0.3524772,1.695226,-0.1421168,-0.1564143,1.745416,0.296642,-0.1661337,1.706337,NA,NA,NotTracked,NotTracked,
0.8964844,0.3022461,0.1650391,0.9575195,-0.246582,0.1069336,0,0,-1,0,-1,-1,-1,-1,0,1,1,1,3,0,1,1,-7.5,-7.5,-7.5,0.8125,0.8125,0.8125,7.141343,3.016429,0.8673419,3.049759,2.93135,6.346807,-0.1432959,-0.4710229,1.669651,0.3118008,-0.4731591,1.601181,0.05697202,0.3491218,1.698217,-0.1586667,-0.4643383,1.638629,0.2730587,-0.4812674,1.573423,0.06049578,-0.07085108,1.729499,0.05652104,-0.3574347,1.719144,-0.1032457,0.09836107,1.719571,-0.02200226,-0.3525763,1.695359,-0.1420946,-0.1563688,1.745366,0.2964664,-0.16633,1.707121,NA,NA,NotTracked,NotTracked,
0.9086914,0.3256836,0.1411133,0.9575195,-0.246582,0.1069336,0,-1,-1,0,0,0,0,-1,0,1,1,1,3,0,1,1,12.0625,12.0625,12.0625,0.8125,0.8125,0.8125,7.068442,3.030499,0.9526107,3.049759,2.93135,6.346807,-0.1485981,-0.4627936,1.669472,0.3105614,-0.4685055,1.59709,0.05705044,0.3490922,1.698175,-0.1678581,-0.4643025,1.651605,0.3114392,-0.4842208,1.558,0.0606924,-0.07090823,1.729611,0.05697118,-0.3575388,1.719383,-0.1032443,0.09833229,1.719565,-0.02155724,-0.3527105,1.695473,-0.1420992,-0.1560144,1.745256,0.2961676,-0.1665697,1.707773,NA,NA,NotTracked,NotTracked,
0.9082031,0.3408203,0.1386719,0.9575195,-0.246582,0.1069336,-1,-1,-1,0,-1,0,-1,1,0,1,1,1,3,0,1,1,14.6875,14.6875,14.6875,0.8125,0.8125,0.8125,7.040469,3.038596,0.9900975,3.049759,2.93135,6.346807,-0.1404505,-0.4730799,1.66834,0.3069715,-0.4675499,1.591984,0.05710432,0.3490393,1.698137,-0.1567572,-0.4694069,1.633364,0.2685336,-0.4706666,1.571125,0.06085578,-0.07101019,1.729678,0.0573304,-0.3576313,1.719482,-0.1027085,0.09849852,1.719866,-0.02122055,-0.3528063,1.695484,-0.141847,-0.1595963,1.745196,0.2960003,-0.1667241,1.707987,NA,NA,NotTracked,NotTracked,
0.9052734,0.3183594,0.1333008,0.9575195,-0.246582,0.1069336,0,0,0,0,-1,-1,-1,-1,0,1,1,1,3,0,1,1,13.25,13.25,13.25,0.8125,0.8125,0.8125,6.966719,3.055235,1.090495,3.049759,2.93135,6.346807,-0.137888,-0.4773303,1.664932,0.3037905,-0.4623846,1.585104,0.05718603,0.3489561,1.698213,-0.1758103,-0.4787928,1.666167,0.2674961,-0.4587769,1.575907,0.06136895,-0.07126069,1.730343,0.05804089,-0.3578043,1.720185,-0.1026312,0.09839439,1.719947,-0.02054553,-0.3529668,1.696065,-0.1418529,-0.1589476,1.745405,0.2956851,-0.1672715,1.708035,NA,NA,NotTracked,NotTracked,
0.918457,0.3168945,0.144043,0.9575195,-0.246582,0.1069336,2,-1,-1,-1,-1,0,-1,0,0,1,1,1,3,0,1,1,16.5625,16.5625,16.5625,0.8125,0.8125,0.8125,6.936163,3.063396,1.14149,3.049759,2.93135,6.346807,-0.1372875,-0.4772088,1.66401,0.2992974,-0.4634874,1.58305,0.05728955,0.3489236,1.698259,-0.1529054,-0.47313,1.626342,0.260484,-0.4679483,1.556885,0.06161422,-0.07132611,1.73071,0.05830356,-0.3578045,1.720516,-0.1026124,0.09836797,1.720057,-0.02029902,-0.3529505,1.696343,-0.1418948,-0.1584562,1.745567,0.2955145,-0.1675224,1.707919,NA,NA,NotTracked,NotTracked,
0.9111328,0.3154297,0.1494141,0.9575195,-0.246582,0.1069336,-2,0,1,-2,-2,0,-1,0,0,1,1,1,3,0,1,1,16.9375,16.9375,16.9375,0.8125,0.8125,0.8125,6.925187,3.066437,1.162869,3.049759,2.93135,6.346807,-0.1359821,-0.4767946,1.66227,0.2970003,-0.4627727,1.579141,0.05730218,0.3488687,1.698292,-0.1739095,-0.4859327,1.663667,0.2586451,-0.4632874,1.557417,0.06172254,-0.07144227,1.730939,0.05838291,-0.3578618,1.720653,-0.1026101,0.09829707,1.720108,-0.02021265,-0.3529693,1.696445,-0.1419201,-0.1579391,1.745614,0.2952301,-0.167717,1.707602,NA,NA,NotTracked,NotTracked,
0.9047852,0.3139648,0.1333008,0.9575195,-0.246582,0.1069336,-1,-2,-3,0,-2,-2,0,-1,0,1,1,1,3,0,1,1,6.75,6.75,6.75,0.8125,0.8125,0.8125,6.907354,3.071613,1.200196,3.049759,2.93135,6.346807,-0.1356343,-0.4768481,1.663376,0.2959732,-0.4628868,1.579214,0.05735889,0.348839,1.698465,-0.1694902,-0.4817286,1.656219,0.256919,-0.4660069,1.553043,0.06189124,-0.07153969,1.731352,0.0585121,-0.3579369,1.721037,-0.1026052,0.09825945,1.720447,-0.0200729,-0.3530276,1.696782,-0.1418453,-0.1571256,1.746229,0.2950711,-0.1677232,1.707384,NA,NA,NotTracked,NotTracked,
0.9135742,0.3032227,0.1376953,0.9575195,-0.246582,0.1069336,0,-2,0,0,0,-1,-1,-2,0,1,1,1,3,0,1,1,6.8125,6.8125,6.8125,0.8125,0.8125,0.8125,6.904138,3.070764,1.210926,3.049759,2.93135,6.346807,-0.1331869,-0.4757857,1.663976,0.2942661,-0.4633462,1.57719,0.05744263,0.3488074,1.698582,-0.15944,-0.4725206,1.63626,0.2542559,-0.4688537,1.55188,0.06200445,-0.07161369,1.73156,0.05868796,-0.3579749,1.721252,-0.102661,0.09815717,1.720909,-0.01987029,-0.3530426,1.69697,-0.1416775,-0.1566539,1.746522,0.2949215,-0.1677683,1.706916,NA,NA,NotTracked,NotTracked,
0.9208984,0.3144531,0.1352539,0.9575195,-0.246582,0.1069336,-1,0,0,1,-1,-2,-1,0,0,1,1,1,3,0,1,1,2.3125,2.3125,2.3125,0.8125,0.8125,0.8125,6.913689,3.067873,1.209874,3.049759,2.93135,6.346807,-0.1336517,-0.4711079,1.668453,0.2924075,-0.4651881,1.577938,0.05739846,0.3488129,1.699072,-0.1720161,-0.4625876,1.6766,0.2511621,-0.4738227,1.550621,0.06215777,-0.07171696,1.732012,0.05881735,-0.3580236,1.721689,-0.1027759,0.09799957,1.722124,-0.01971378,-0.3530926,1.697477,-0.141395,-0.1562369,1.74813,0.2945383,-0.1678621,1.706408,NA,NA,NotTracked,NotTracked,
0.925293,0.3051758,0.1176758,0.9575195,-0.246582,0.1069336,-2,-3,-5,-2,1,-1,-2,-1,0,1,1,1,3,0,1,1,-1.125,-1.125,-1.125,0.8125,0.8125,0.8125,6.914907,3.065965,1.20789,3.049759,2.93135,6.346807,-0.1336308,-0.4719974,1.670366,0.2927066,-0.464316,1.578031,0.05741059,0.3487687,1.699263,-0.1545074,-0.4726642,1.639054,0.2508051,-0.4739611,1.550957,0.06214842,-0.07169278,1.732251,0.0588415,-0.3579472,1.721954,-0.102816,0.09797044,1.72263,-0.01966581,-0.352957,1.697854,-0.1412671,-0.156079,1.748615,0.2942954,-0.1682373,1.705999,NA,NA,NotTracked,NotTracked,
0.9150391,0.3183594,0.1396484,0.9575195,-0.246582,0.1069336,0,-1,3,1,0,0,-3,-1,0,1,1,1,3,0,1,1,-10.4375,-10.4375,-10.4375,0.8125,0.8125,0.8125,6.90134,3.062047,1.212651,3.049759,2.93135,6.346807,-0.1333041,-0.4724998,1.672566,0.2917184,-0.464476,1.578529,0.05735436,0.3487749,1.699385,-0.1664459,-0.4978364,1.664125,0.2532635,-0.4713143,1.553793,0.06220687,-0.07175574,1.732424,0.05893758,-0.3580311,1.722215,-0.1028346,0.0978929,1.723237,-0.01954577,-0.3530359,1.698125,-0.141072,-0.1562545,1.749424,0.2941945,-0.1684273,1.705906,NA,NA,NotTracked,NotTracked,
0.9140625,0.3168945,0.1801758,0.9575195,-0.246582,0.1069336,-3,-2,-1,1,0,-1,-1,-2,0,1,1,1,3,0,1,1,8.8125,8.8125,8.8125,0.8125,0.8125,0.8125,6.887441,3.056523,1.225578,3.049759,2.93135,6.346807,-0.1329821,-0.4723973,1.67441,0.2917783,-0.4647951,1.579617,0.05732694,0.3488102,1.69954,-0.1692327,-0.4787664,1.669177,0.2511226,-0.473666,1.554458,0.06211139,-0.07179546,1.732689,0.05884451,-0.3580654,1.722549,-0.1028515,0.09784877,1.723545,-0.01963613,-0.3530306,1.698471,-0.1409694,-0.1564294,1.749854,0.2941171,-0.168483,1.705779,NA,NA,NotTracked,NotTracked,
0.9072266,0.3466797,0.1943359,0.9575195,-0.246582,0.1069336,-1,-1,-1,-1,1,-1,0,0,0,1,1,1,3,0,1,1,5.5625,5.5625,5.5625,0.8125,0.8125,0.8125,6.889306,3.057418,1.226206,3.049759,2.93135,6.346807,-0.133583,-0.4696235,1.677558,0.2910959,-0.4658541,1.580369,0.05731145,0.3488026,1.699569,-0.1706751,-0.47888,1.68,0.2516724,-0.4730413,1.556277,0.06213501,-0.07181241,1.732821,0.05895492,-0.3580994,1.722681,-0.1029174,0.09775245,1.723977,-0.01951653,-0.3530483,1.698606,-0.1408197,-0.1562436,1.750595,0.2940467,-0.1684854,1.70581,NA,NA,NotTracked,NotTracked,
0.9072266,0.3466797,0.1943359,0.9575195,-0.246582,0.1069336,-1,-1,-1,-1,1,-1,0,0,0,1,1,1,3,0,1,1,5.5625,5.5625,5.5625,0.8125,0.8125,0.8125,6.889306,3.057418,1.226206,3.049759,2.93135,6.346807,-0.1333244,-0.4709469,1.679953,0.2912369,-0.4659482,1.582746,0.05724444,0.3487877,1.69967,-0.1702694,-0.4715525,1.685385,0.2505242,-0.4757155,1.556352,0.06214782,-0.07186643,1.733032,0.05899337,-0.3581191,1.722955,-0.1029018,0.09776177,1.724178,-0.01946174,-0.3530477,1.698878,-0.1407465,-0.1563856,1.750981,0.2938833,-0.168562,1.706009,NA,NA,NotTracked,NotTracked,
0.8935547,0.3256836,0.1733398,0.9575195,-0.246582,0.1069336,0,0,-1,-1,-2,1,-1,-1,0,1,1,1,3,0,1,1,-6.4375,-6.4375,-6.4375,0.8125,0.8125,0.8125,6.889246,3.056297,1.219981,3.049759,2.93135,6.346807,-0.1338282,-0.4699095,1.678395,0.2906279,-0.4664648,1.582391,0.05717884,0.348759,1.699671,-0.1691039,-0.470726,1.680893,0.2490538,-0.4789127,1.553611,0.0620738,-0.07190908,1.73317,0.05900929,-0.3581492,1.723068,-0.1029001,0.09774179,1.724259,-0.01944422,-0.3530368,1.698952,-0.1406277,-0.1562506,1.751194,0.2937307,-0.1685756,1.706102,NA,NA,NotTracked,NotTracked,
