ALX,ALY,ALZ,ARX,ARY,ARZ,EMG0L,EMG1L,EMG2L,EMG3L,EMG4L,EMG5L,EMG6L,EMG7L,EMG0R,EMG1R,EMG2R,EMG3R,EMG4R,EMG5R,EMG6R,EMG7R,GLX,GLY,GLZ,GRX,GRY,GRZ,ORL,OPL,OYL,ORR,OPR,OYR,LHNX,LHNY,LHNZ,RHNX,RHNY,RHNZ,HX,HY,HZ,LTX,LTY,LTZ,RTX,RTY,RTZ,SpineMidX,SpineMidY,SpineMidZ,SpineBaseX,SpineBaseY,SpineBaseZ,ShoulderLeftX,ShoulderLeftY,ShoulderLeftZ,ShoulderRightX,ShoulderRightY,ShoulderRightZ,ElbowLeftX,ElbowLeftY,ElbowLeftZ,ElbowRightX,ElbowRightY,ElbowRightZ,Myo_Pose_left,Myo_Pose_Right,Kinect_pose_left,Kinect_pose_right
0.9287109,0.2817383,0.140625,0.9575195,-0.246582,0.1069336,-1,1,-3,0,1,0,0,-1,0,1,1,1,3,0,1,1,0,0,0,0.8125,0.8125,0.8125,6.874158,3.004445,1.939096,3.049759,2.93135,6.346807,-0.1401963,-0.4729429,1.676665,0.2869271,-0.4721597,1.593841,0.0572701,0.3457739,1.687803,-0.09271581,-0.4566922,1.660815,0.3121908,-0.4788288,1.580357,0.06204914,-0.07400002,1.729721,0.0592052,-0.3596102,1.719476,-0.1058508,0.09694973,1.726997,-0.01890887,-0.3543027,1.696431,-0.1431551,-0.1550806,1.752393,0.2848737,-0.1667187,1.703984,NA,NA,NotTracked,NotTracked,
0.9223633,0.2797852,0.144043,0.9575195,-0.246582,0.1069336,0,-1,0,-2,-1,-1,0,-2,0,1,1,1,3,0,1,1,-0.3125,-0.3125,-0.3125,0.8125,0.8125,0.8125,6.872577,3.004362,1.940544,3.049759,2.93135,6.346807,-0.1410472,-0.474161,1.676084,0.2863082,-0.4724681,1.593047,0.0572593,0.3458067,1.687995,-0.09416839,-0.4760562,1.657,0.3139686,-0.4790367,1.58227,0.06205155,-0.0740033,1.729723,0.05920987,-0.3596098,1.719433,-0.1058479,0.09692527,1.727029,-0.01890194,-0.3542931,1.696386,-0.1431239,-0.1572913,1.752079,0.284866,-0.1666817,1.704003,NA,NA,NotTracked,NotTracked,
0.9311523,0.2773438,0.1445313,0.9575195,-0.246582,0.1069336,-3,1,4,-1,-1,-1,0,0,0,1,1,1,3,0,1,1,0.5625,0.5625,0.5625,0.8125,0.8125,0.8125,6.870989,3.004507,1.942129,3.049759,2.93135,6.346807,-0.1406678,-0.4772423,1.675943,0.2865634,-0.472691,1.594497,0.0572377,0.3458057,1.688112,-0.0938639,-0.4680129,1.65738,0.3140199,-0.4769584,1.586227,0.0620416,-0.07400427,1.729763,0.05920987,-0.3596093,1.719434,-0.1058562,0.09693848,1.727055,-0.01890284,-0.3542924,1.696382,-0.1431122,-0.1572153,1.752162,0.2848653,-0.1667553,1.704077,NA,NA,NotTracked,NotTracked,
0.9243164,0.28125,0.1430664,0.9575195,-0.246582,0.1069336,-1,-2,-2,-1,1,0,-1,0,0,1,1,1,3,0,1,1,-0.1875,-0.1875,-0.1875,0.8125,0.8125,0.8125,6.868423,3.00492,1.944652,3.049759,2.93135,6.346807,-0.1412649,-0.4755533,1.675043,0.2859998,-0.4712321,1.592722,0.05723538,0.3458099,1.688115,-0.09425308,-0.4532055,1.658421,0.3041254,-0.4705291,1.565518,0.06206303,-0.07402547,1.729738,0.05928585,-0.3596579,1.719292,-0.1058551,0.09693888,1.727056,-0.01885225,-0.3543533,1.696248,-0.1433776,-0.1581742,1.751983,0.28484,-0.1667378,1.704067,NA,NA,NotTracked,NotTracked,
0.9208984,0.2890625,0.1450195,0.9575195,-0.246582,0.1069336,0,-1,3,-2,1,-1,-2,-2,0,1,1,1,3,0,1,1,-1.25,-1.25,-1.25,0.8125,0.8125,0.8125,6.863246,3.005709,1.94903,3.049759,2.93135,6.346807,-0.1400579,-0.4767361,1.676808,0.284823,-0.4736754,1.592919,0.05725987,0.3458111,1.688332,-0.09213059,-0.4578214,1.658,0.3151608,-0.4786844,1.5902,0.06207883,-0.07404881,1.729852,0.0593135,-0.3596583,1.719323,-0.1059032,0.0969084,1.727172,-0.01882411,-0.3543596,1.696271,-0.1435748,-0.1573171,1.752138,0.2848485,-0.1667303,1.704164,NA,NA,NotTracked,NotTracked,
0.9165039,0.2832031,0.1533203,0.9575195,-0.246582,0.1069336,-2,-1,-1,-1,-1,-2,-1,0,0,1,1,1,3,0,1,1,-2.0625,-2.0625,-2.0625,0.8125,0.8125,0.8125,6.85021,3.007301,1.959585,3.049759,2.93135,6.346807,-0.1408479,-0.477531,1.676716,0.2841401,-0.4727782,1.59202,0.05725223,0.3457884,1.688385,-0.09353037,-0.4502458,1.663,0.3149284,-0.4774815,1.5903,0.06208614,-0.0740518,1.729853,0.05934427,-0.3596521,1.719284,-0.1059723,0.09682973,1.727275,-0.01877989,-0.3543723,1.6962,-0.1435668,-0.1567504,1.752322,0.2847389,-0.1671115,1.704207,NA,NA,NotTracked,NotTracked,
0.9248047,0.2861328,0.1582031,0.9575195,-0.246582,0.1069336,-2,-2,-2,0,0,-1,-2,-1,0,1,1,1,3,0,1,1,-0.25,-0.25,-0.25,0.8125,0.8125,0.8125,6.833254,3.009866,1.97594,3.049759,2.93135,6.346807,-0.1415068,-0.4744191,1.678111,0.284188,-0.4710145,1.592953,0.05726272,0.3458099,1.688469,-0.09797549,-0.4738078,1.67,0.313579,-0.48015,1.58844,0.06208597,-0.07404672,1.729902,0.05934037,-0.3596454,1.719298,-0.1059849,0.09684137,1.727342,-0.01877683,-0.354356,1.696216,-0.1435493,-0.1563439,1.752462,0.2847433,-0.1670618,1.704261,NA,NA,NotTracked,NotTracked,
0.9282227,0.2866211,0.1484375,0.9575195,-0.246582,0.1069336,0,-1,-1,-2,-2,-1,-1,-2,0,1,1,1,3,0,1,1,0.4375,0.4375,0.4375,0.8125,0.8125,0.8125,6.822616,3.012349,1.986563,3.049759,2.93135,6.346807,-0.1411193,-0.4773747,1.677656,0.2834109,-0.46959,1.59196,0.05725932,0.3457883,1.688563,-0.0933318,-0.4503073,1.661769,0.3085186,-0.4772801,1.578968,0.06208291,-0.07404993,1.729951,0.05933857,-0.3596453,1.719303,-0.1060045,0.09689711,1.727409,-0.01876927,-0.3543638,1.696202,-0.1436036,-0.1560451,1.752653,0.284782,-0.1671764,1.704285,NA,NA,NotTracked,NotTracked,
0.9272461,0.2900391,0.1606445,0.9575195,-0.246582,0.1069336,0,2,8,1,-1,0,-2,-1,0,1,1,1,3,0,1,1,0.5625,0.5625,0.5625,0.8125,0.8125,0.8125,6.810884,3.015415,1.999594,3.049759,2.93135,6.346807,-0.1410439,-0.4734738,1.677819,0.2825038,-0.4690796,1.590939,0.05729524,0.3457616,1.688544,-0.09338019,-0.4532734,1.660471,0.3086673,-0.474169,1.578316,0.06207206,-0.07405128,1.729946,0.05934509,-0.359653,1.719288,-0.1060404,0.0969065,1.727473,-0.01876643,-0.354385,1.696169,-0.1436295,-0.1555949,1.752766,0.2847919,-0.1671532,1.704327,NA,NA,NotTracked,NotTracked,
0.9204102,0.2880859,0.1635742,0.9575195,-0.246582,0.1069336,1,-3,1,-1,-3,-2,-1,0,0,1,1,1,3,0,1,1,2.6875,2.6875,2.6875,0.8125,0.8125,0.8125,6.797123,3.018651,2.015537,3.049759,2.93135,6.346807,-0.1508876,-0.4678557,1.680842,0.2826243,-0.4684325,1.591275,0.05731695,0.3457705,1.688586,-0.1102379,-0.4700879,1.6855,0.307738,-0.4820319,1.576269,0.0620937,-0.0740588,1.729951,0.05936562,-0.3596561,1.719292,-0.1060426,0.09689938,1.727483,-0.01874685,-0.3543869,1.696164,-0.143641,-0.1556525,1.752864,0.2847828,-0.1671187,1.704436,NA,NA,NotTracked,NotTracked,
0.921875,0.2915039,0.1699219,0.9575195,-0.246582,0.1069336,1,-1,-1,-3,1,-1,0,-1,0,1,1,1,3,0,1,1,2.8125,2.8125,2.8125,0.8125,0.8125,0.8125,6.791594,3.020538,2.022591,3.049759,2.93135,6.346807,-0.1442059,-0.4787182,1.678573,0.282192,-0.4684595,1.591019,0.05734175,0.3457771,1.688694,-0.09614732,-0.4739024,1.662917,0.3020123,-0.4752383,1.564818,0.06208473,-0.07405771,1.72998,0.05936629,-0.3596544,1.719293,-0.1060238,0.09690982,1.727538,-0.01874421,-0.3543762,1.696152,-0.1436988,-0.1558627,1.753096,0.2847301,-0.1669504,1.704679,NA,NA,NotTracked,NotTracked,
0.9321289,0.2895508,0.1674805,0.9575195,-0.246582,0.1069336,-1,-1,-3,-1,0,1,-1,0,0,1,1,1,3,0,1,1,-0.5625,-0.5625,-0.5625,0.8125,0.8125,0.8125,6.770512,3.026541,2.04538,3.049759,2.93135,6.346807,-0.1433976,-0.4779878,1.677837,0.2819627,-0.4679283,1.589329,0.05734108,0.3457693,1.688697,-0.09730206,-0.4673638,1.66555,0.3006755,-0.4816051,1.56475,0.06208912,-0.07405913,1.72999,0.05936635,-0.3596583,1.719296,-0.1060436,0.09688893,1.727552,-0.01874381,-0.3543848,1.69615,-0.143711,-0.1558972,1.753118,0.284703,-0.1669173,1.704762,NA,NA,NotTracked,NotTracked,
0.9228516,0.2851563,0.1655273,0.9575195,-0.246582,0.1069336,1,0,-2,1,-2,0,0,0,0,1,1,1,3,0,1,1,3.8125,3.8125,3.8125,0.8125,0.8125,0.8125,6.754836,3.031723,2.064455,3.049759,2.93135,6.346807,-0.1445865,-0.4761153,1.679131,0.2805358,-0.4669309,1.587312,0.05740611,0.3457359,1.688825,-0.09574773,-0.4559347,1.669353,0.3009611,-0.4714363,1.563306,0.06209995,-0.07408281,1.730038,0.05942711,-0.3596782,1.719321,-0.1060595,0.09689076,1.727608,-0.01868763,-0.3544072,1.696165,-0.1437516,-0.1558928,1.753194,0.2846226,-0.1666933,1.705053,NA,NA,NotTracked,NotTracked,
0.9355469,0.284668,0.1772461,0.9575195,-0.246582,0.1069336,-1,-1,-1,0,-1,-2,1,-1,0,1,1,1,3,0,1,1,3.1875,3.1875,3.1875,0.8125,0.8125,0.8125,6.734922,3.039159,2.088812,3.049759,2.93135,6.346807,-0.154144,-0.4622264,1.683,0.2794636,-0.4662501,1.584555,0.05742363,0.345708,1.688815,-0.1299403,-0.4599006,1.654591,0.3104321,-0.4619912,1.583222,0.0621022,-0.07408078,1.730036,0.05946744,-0.3596507,1.719306,-0.1060567,0.09689294,1.727602,-0.01864517,-0.3543893,1.696153,-0.143652,-0.1558203,1.753226,0.2845541,-0.1664999,1.705158,NA,NA,NotTracked,NotTracked,
0.9248047,0.2963867,0.1860352,0.9575195,-0.246582,0.1069336,1,-2,-5,-4,-3,-3,0,-1,0,1,1,1,3,0,1,1,2.125,2.125,2.125,0.8125,0.8125,0.8125,6.706331,3.049625,2.121341,3.049759,2.93135,6.346807,-0.1583999,-0.4460644,1.690609,0.2788604,-0.4657823,1.584312,0.05746396,0.3457047,1.688951,-0.1392323,-0.4290162,1.666023,0.3068218,-0.4738693,1.577688,0.06213674,-0.07409296,1.730085,0.05951018,-0.3596612,1.719332,-0.1060344,0.09693988,1.727587,-0.01860386,-0.3543952,1.69615,-0.143664,-0.1557637,1.753248,0.2845576,-0.1662488,1.70535,NA,NA,NotTracked,NotTracked,
0.9179688,0.2915039,0.2026367,0.9575195,-0.246582,0.1069336,-1,0,-1,-1,-2,-2,0,-1,0,1,1,1,3,0,1,1,4,4,4,0.8125,0.8125,0.8125,6.672834,3.062798,2.160071,3.049759,2.93135,6.346807,-0.1587279,-0.4446487,1.691661,0.2774679,-0.4643063,1.581502,0.05746444,0.3457013,1.68897,-0.1362174,-0.4285078,1.665822,0.3072818,-0.4696967,1.576292,0.06215394,-0.07413227,1.73012,0.05952494,-0.3597281,1.719379,-0.1060167,0.09687236,1.72757,-0.01858783,-0.3544476,1.696177,-0.1436796,-0.1558709,1.753275,0.2845224,-0.1650423,1.706046,NA,NA,NotTracked,NotTracked,
0.9301758,0.3085938,0.222168,0.9575195,-0.246582,0.1069336,1,2,5,0,0,-1,0,-1,0,1,1,1,3,0,1,1,3.625,3.625,3.625,0.8125,0.8125,0.8125,6.637832,3.078409,2.202064,3.049759,2.93135,6.346807,-0.1585679,-0.4432163,1.691265,0.2761953,-0.4627771,1.579128,0.05747938,0.3456883,1.688969,-0.1338301,-0.430245,1.668431,0.3108326,-0.4670825,1.5856,0.06216944,-0.0741422,1.730125,0.05954477,-0.3597445,1.719392,-0.1059962,0.0968585,1.72756,-0.01857618,-0.3544494,1.696173,-0.1437777,-0.1556067,1.753244,0.2845653,-0.1644654,1.706793,NA,NA,NotTracked,NotTracked,
0.8989258,0.3051758,0.2275391,0.9575195,-0.246582,0.1069336,-2,-2,-4,1,0,0,0,-1,0,1,1,1,3,0,1,1,4.5,4.5,4.5,0.8125,0.8125,0.8125,6.599292,3.097544,2.246417,3.049759,2.93135,6.346807,-0.1578094,-0.4424812,1.690994,0.2728815,-0.455702,1.575453,0.05754002,0.3456811,1.688991,-0.1310892,-0.431324,1.669391,0.3033411,-0.4604286,1.570642,0.06228106,-0.07416032,1.73017,0.05975902,-0.3597316,1.719479,-0.1059606,0.09686565,1.727555,-0.01834531,-0.35443,1.696178,-0.1438071,-0.1577967,1.753536,0.2846823,-0.1613913,1.708008,NA,NA,NotTracked,NotTracked,
0.9013672,0.3105469,0.2456055,0.9575195,-0.246582,0.1069336,0,0,2,-4,-2,-1,-1,-1,0,1,1,1,3,0,1,1,3.3125,3.3125,3.3125,0.8125,0.8125,0.8125,6.560699,3.11869,2.291552,3.049759,2.93135,6.346807,-0.1577936,-0.4436452,1.692102,0.2703962,-0.453421,1.571211,0.05756252,0.3456863,1.688989,-0.1359639,-0.4288294,1.667338,0.3013577,-0.458995,1.567142,0.0623614,-0.07416877,1.730188,0.05995963,-0.3597229,1.719541,-0.1059434,0.09681506,1.727541,-0.01815356,-0.3544267,1.696192,-0.1437762,-0.1577554,1.753514,0.2846657,-0.1598879,1.708636,NA,NA,NotTracked,NotTracked,
0.8989258,0.3168945,0.2509766,0.9575195,-0.246582,0.1069336,0,-1,-1,-1,0,0,0,-1,0,1,1,1,3,0,1,1,3.75,3.75,3.75,0.8125,0.8125,0.8125,6.540802,3.129647,2.314816,3.049759,2.93135,6.346807,-0.1574789,-0.4437956,1.691552,0.2673714,-0.4529268,1.566415,0.05759689,0.3456637,1.688974,-0.1355892,-0.4296124,1.666291,0.2909384,-0.4576259,1.546128,0.06239238,-0.0741735,1.730201,0.06001696,-0.3597263,1.719579,-0.1059118,0.09681774,1.727495,-0.01809372,-0.354415,1.696186,-0.1437117,-0.1580084,1.753536,0.2847645,-0.1588704,1.70906,NA,NA,NotTracked,NotTracked,
0.875,0.3168945,0.2709961,0.9575195,-0.246582,0.1069336,-2,1,15,2,-1,0,-1,-1,0,1,1,1,3,0,1,1,3.375,3.375,3.375,0.8125,0.8125,0.8125,6.488649,3.161684,2.376645,3.049759,2.93135,6.346807,-0.1580018,-0.4456622,1.691988,0.265379,-0.4523544,1.563853,0.0577041,0.3456262,1.689019,-0.1364361,-0.4295398,1.665556,0.2880897,-0.4460667,1.541132,0.06252282,-0.07420671,1.730303,0.06012282,-0.3597326,1.719739,-0.1059005,0.09682495,1.727506,-0.01797807,-0.3543937,1.696255,-0.1436928,-0.1579436,1.753589,0.2846946,-0.1578803,1.70993,NA,NA,NotTracked,NotTracked,
0.862793,0.3212891,0.2749023,0.9575195,-0.246582,0.1069336,-2,-6,-3,1,1,0,-1,1,0,1,1,1,3,0,1,1,2.8125,2.8125,2.8125,0.8125,0.8125,0.8125,6.464663,3.178869,2.405999,3.049759,2.93135,6.346807,-0.159217,-0.4416155,1.693537,0.2630585,-0.4500941,1.559921,0.05774682,0.3456202,1.689016,-0.1339951,-0.428577,1.669462,0.2918186,-0.4656385,1.552182,0.06264713,-0.07425179,1.730364,0.06033147,-0.3597808,1.719832,-0.1058831,0.09680826,1.727498,-0.01776521,-0.3544627,1.696276,-0.1436828,-0.1579434,1.753592,0.2845932,-0.1573162,1.71035,NA,NA,NotTracked,NotTracked,
0.8564453,0.3295898,0.2709961,0.9575195,-0.246582,0.1069336,-1,-1,0,-1,1,-1,1,1,0,1,1,1,3,0,1,1,1.25,1.25,1.25,0.8125,0.8125,0.8125,6.448697,3.191493,2.424538,3.049759,2.93135,6.346807,-0.1504215,-0.4636809,1.681912,0.2604761,-0.4464734,1.555043,0.05790239,0.3455698,1.688973,-0.1550678,-0.4684338,1.644482,0.2824595,-0.4395537,1.530314,0.06282583,-0.07432295,1.730371,0.06059758,-0.3598766,1.719886,-0.1057484,0.0967923,1.727352,-0.01747459,-0.3546086,1.696253,-0.1435361,-0.1576476,1.753619,0.2843027,-0.1548416,1.710975,NA,NA,NotTracked,Unknown,
0.8706055,0.3222656,0.2749023,0.9575195,-0.246582,0.1069336,-2,-4,-4,-3,-1,0,-1,-1,0,1,1,1,3,0,1,1,1.1875,1.1875,1.1875,0.8125,0.8125,0.8125,6.439244,3.196591,2.435644,3.049759,2.93135,6.346807,-0.1581511,-0.4456917,1.691016,0.2600104,-0.4454896,1.554438,0.0579611,0.3455411,1.688989,-0.1348799,-0.4296449,1.667806,0.2834731,-0.4447484,1.53215,0.06289167,-0.07434043,1.730427,0.06083191,-0.3599189,1.720014,-0.1057443,0.09679929,1.727349,-0.01725027,-0.3546535,1.696274,-0.1434179,-0.157578,1.75363,0.2842241,-0.1542946,1.711251,NA,NA,NotTracked,Unknown,
0.8725586,0.3183594,0.2612305,0.9575195,-0.246582,0.1069336,-2,-1,1,0,-2,-1,-3,1,0,1,1,1,3,0,1,1,0.75,0.75,0.75,0.8125,0.8125,0.8125,6.438703,3.19691,2.436195,3.049759,2.93135,6.346807,-0.157474,-0.4462728,1.692416,0.2592705,-0.4455155,1.553886,0.05813093,0.3455962,1.688926,-0.1398552,-0.430239,1.664187,0.2866318,-0.4414707,1.538272,0.06308082,-0.07435192,1.73043,0.06095732,-0.3599116,1.720072,-0.1056317,0.09686083,1.727286,-0.01712021,-0.3546445,1.696289,-0.1433519,-0.1588461,1.753349,0.283925,-0.1537201,1.711395,NA,NA,NotTracked,Unknown,
0.9047852,0.3222656,0.2563477,0.9575195,-0.246582,0.1069336,0,-6,-2,-1,0,-1,-1,0,0,1,1,1,3,0,1,1,0.5,0.5,0.5,0.8125,0.8125,0.8125,6.440222,3.193747,2.43506,3.049759,2.93135,6.346807,-0.1572144,-0.4474527,1.692288,0.2587813,-0.4469232,1.553577,0.05823275,0.3455821,1.688948,-0.1372289,-0.4308255,1.666078,0.2792282,-0.44959,1.52716,0.06315516,-0.07438269,1.730498,0.06111129,-0.3599579,1.7202,-0.1056202,0.09686271,1.727302,-0.016976,-0.3546866,1.696359,-0.1433203,-0.1588041,1.753477,0.2837862,-0.1535546,1.711469,NA,NA,NotTracked,Unknown,
0.8955078,0.3232422,0.269043,0.9575195,-0.246582,0.1069336,-1,1,-6,0,-1,-1,0,-1,0,1,1,1,3,0,1,1,1.5625,1.5625,1.5625,0.8125,0.8125,0.8125,6.441074,3.192591,2.435214,3.049759,2.93135,6.346807,-0.157148,-0.4460665,1.692635,0.2586271,-0.4470578,1.552382,0.05833792,0.3456037,1.688947,-0.1361705,-0.4303687,1.666723,0.2817904,-0.4459744,1.530449,0.06326741,-0.07438319,1.730497,0.06126122,-0.3599469,1.720251,-0.1055841,0.0968756,1.727297,-0.01680508,-0.354677,1.696396,-0.1432257,-0.1584963,1.753506,0.283728,-0.1532003,1.711391,NA,NA,NotTracked,Unknown,
0.902832,0.3251953,0.277832,0.9575195,-0.246582,0.1069336,-4,-10,-4,0,-1,0,0,0,0,1,1,1,3,0,1,1,2.0625,2.0625,2.0625,0.8125,0.8125,0.8125,6.440121,3.194402,2.438764,3.049759,2.93135,6.346807,-0.1588885,-0.4447813,1.692831,0.2583496,-0.4463041,1.553463,0.05862502,0.3456463,1.688994,-0.1365684,-0.4309814,1.666505,0.2905964,-0.44757,1.547692,0.06341762,-0.07438431,1.730487,0.06162242,-0.359964,1.720276,-0.1055036,0.09688701,1.727311,-0.01641949,-0.3546647,1.696331,-0.1432443,-0.1585884,1.753659,0.2835634,-0.1526085,1.711577,NA,NA,NotTracked,Unknown,
0.9042969,0.324707,0.2875977,0.9575195,-0.246582,0.1069336,-1,0,3,-5,-4,0,-1,-1,0,1,1,1,3,0,1,1,-3.375,-3.375,-3.375,0.8125,0.8125,0.8125,6.429165,3.199666,2.447567,3.049759,2.93135,6.346807,-0.1603622,-0.4469165,1.693309,0.2581725,-0.4455832,1.552128,0.05882742,0.3456883,1.688989,-0.1362782,-0.431099,1.666966,0.2782277,-0.4474251,1.523911,0.06359011,-0.07440648,1.730514,0.06178814,-0.360019,1.720325,-0.1054663,0.09687126,1.727306,-0.01624797,-0.3547057,1.696373,-0.1433598,-0.1592441,1.75379,0.2835525,-0.152491,1.711623,NA,NA,NotTracked,Unknown,
0.9262695,0.3364258,0.3217773,0.9575195,-0.246582,0.1069336,0,0,-8,-8,2,1,-1,0,0,1,1,1,3,0,1,1,2.6875,2.6875,2.6875,0.8125,0.8125,0.8125,6.411727,3.21405,2.465498,3.049759,2.93135,6.346807,-0.1596834,-0.446288,1.693794,0.2574759,-0.4438221,1.551532,0.05901439,0.3457273,1.689077,-0.1367353,-0.4300934,1.666969,0.2848328,-0.4510641,1.536228,0.06364962,-0.07442448,1.73055,0.061869,-0.3600505,1.72036,-0.1054133,0.09691034,1.727299,-0.01616682,-0.354729,1.69638,-0.1433717,-0.1591953,1.753881,0.2835388,-0.1522781,1.711681,NA,NA,NotTracked,Unknown,
0.9399414,0.359375,0.3291016,0.9575195,-0.246582,0.1069336,-4,3,0,-4,-3,2,-1,-1,0,1,1,1,3,0,1,1,3.6875,3.6875,3.6875,0.8125,0.8125,0.8125,6.386604,3.241157,2.49791,3.049759,2.93135,6.346807,-0.1601856,-0.4452156,1.693078,0.2553682,-0.4409723,1.547054,0.05904718,0.345726,1.689074,-0.1377822,-0.4299093,1.666025,0.2747568,-0.4408783,1.518726,0.06375732,-0.07445137,1.730421,0.06204055,-0.3601305,1.720258,-0.1053326,0.09689981,1.727189,-0.01594198,-0.3548368,1.696164,-0.14332,-0.1593234,1.753878,0.2835448,-0.1516237,1.71189,NA,NA,NotTracked,Unknown,
0.9697266,0.3657227,0.3525391,0.9575195,-0.246582,0.1069336,5,7,12,-12,3,21,18,2,0,1,1,1,3,0,1,1,8.3125,8.3125,8.3125,0.8125,0.8125,0.8125,6.341989,3.289914,2.558964,3.049759,2.93135,6.346807,-0.1606221,-0.4451606,1.693417,0.2530557,-0.4335769,1.54538,0.05937273,0.3457832,1.68918,-0.1371573,-0.4300202,1.66707,0.2711122,-0.4291044,1.513572,0.06378064,-0.07444882,1.730429,0.06207957,-0.3601241,1.720272,-0.1052945,0.09695671,1.727148,-0.01587509,-0.3548046,1.696142,-0.1433228,-0.1592023,1.753926,0.283508,-0.1504695,1.712835,NA,NA,NotTracked,Unknown,
0.9726563,0.394043,0.4291992,0.9575195,-0.246582,0.1069336,4,2,5,-8,-39,-9,-1,3,0,1,1,1,3,0,1,1,6.9375,6.9375,6.9375,0.8125,0.8125,0.8125,6.309875,3.327156,2.599061,3.049759,2.93135,6.346807,-0.160315,-0.4437315,1.693053,0.2405222,-0.4058191,1.530751,0.05994892,0.3459359,1.689213,-0.1382078,-0.4291104,1.66718,0.2542725,-0.4039264,1.493297,0.06384498,-0.07437885,1.730282,0.0619217,-0.3599883,1.720253,-0.1050303,0.0971152,1.726823,-0.01608451,-0.3545928,1.695992,-0.1432853,-0.1585729,1.753868,0.2838462,-0.14495,1.715961,NA,NA,NotTracked,Unknown,
0.9091797,0.4619141,0.534668,0.9575195,-0.246582,0.1069336,2,0,-26,-14,3,2,-3,-2,0,1,1,1,3,0,1,1,45.5,45.5,45.5,0.8125,0.8125,0.8125,6.218887,3.47996,2.774518,3.049759,2.93135,6.346807,-0.1534621,-0.4620865,1.686335,0.2282822,-0.3883383,1.522302,0.06027208,0.3460612,1.689187,-0.1348144,-0.4435728,1.659223,0.2439298,-0.3847446,1.482632,0.06383918,-0.07427174,1.730168,0.06166945,-0.3597027,1.720109,-0.1048594,0.09722548,1.726628,-0.01644985,-0.354169,1.695676,-0.1432332,-0.1585258,1.753867,0.2846233,-0.1412532,1.717779,NA,NA,NotTracked,Unknown,
0.8110352,0.5180664,0.6464844,0.9575195,-0.246582,0.1069336,1,-8,-23,-39,-23,-22,-5,-3,0,1,1,1,3,0,1,1,32.625,32.625,32.625,0.8125,0.8125,0.8125,6.144779,3.622061,2.918382,3.049759,2.93135,6.346807,-0.1611966,-0.444699,1.694753,0.2159737,-0.3639967,1.515556,0.06052132,0.3460523,1.689169,-0.1398241,-0.426469,1.668146,0.2262836,-0.3546856,1.47363,0.06364919,-0.07410646,1.729989,0.06037948,-0.3592698,1.719745,-0.1047558,0.09730561,1.72637,-0.01830822,-0.3534013,1.695089,-0.1431269,-0.1575235,1.753433,0.2861462,-0.1350508,1.720147,NA,NA,NotTracked,Unknown,
0.6918945,0.4960938,0.7011719,0.9575195,-0.246582,0.1069336,-9,-9,-22,6,3,-8,0,3,0,1,1,1,3,0,1,1,36.0625,36.0625,36.0625,0.8125,0.8125,0.8125,6.074898,3.793731,3.064085,3.049759,2.93135,6.346807,-0.1605204,-0.4441317,1.694267,0.1936063,-0.3430051,1.504024,0.06084307,0.3460833,1.689148,-0.1348895,-0.4295639,1.669664,0.2103337,-0.3297323,1.465083,0.0629412,-0.07383995,1.729813,0.05616752,-0.3582476,1.719328,-0.1045197,0.09754443,1.726075,-0.02330751,-0.3515978,1.694393,-0.1428489,-0.1565893,1.753627,0.2872286,-0.1317545,1.720453,NA,NA,NotTracked,Unknown,
0.5239258,0.5395508,0.6982422,0.9575195,-0.246582,0.1069336,9,5,-13,-15,-27,15,5,-1,0,1,1,1,3,0,1,1,35.6875,35.6875,35.6875,0.8125,0.8125,0.8125,6.022001,3.983601,3.208551,3.049759,2.93135,6.346807,-0.1598457,-0.444464,1.694222,0.1642614,-0.3143537,1.501217,0.06147283,0.346082,1.689014,-0.1403704,-0.4269941,1.666565,0.1684861,-0.3061586,1.440643,0.06235378,-0.07371135,1.729509,0.05341923,-0.3580018,1.718894,-0.1042067,0.09775259,1.725522,-0.02600459,-0.3508269,1.693804,-0.1428249,-0.1560271,1.753323,0.2891032,-0.1234609,1.719205,NA,NA,NotTracked,Unknown,
0.371582,0.5146484,0.7392578,0.9575195,-0.246582,0.1069336,-9,8,16,-20,16,17,10,1,0,1,1,1,3,0,1,1,28.6875,28.6875,28.6875,0.8125,0.8125,0.8125,5.981411,4.185215,3.346375,3.049759,2.93135,6.346807,-0.1599669,-0.4430037,1.692845,0.1226971,-0.2439933,1.492944,0.06319677,0.345983,1.689047,-0.1392316,-0.4275858,1.666469,0.1157098,-0.3040602,1.534917,0.06232733,-0.07366818,1.729535,0.05333094,-0.3579713,1.71917,-0.1032126,0.09848648,1.724476,-0.02577307,-0.3507512,1.694136,-0.1427092,-0.1538967,1.752785,0.2911935,-0.1126992,1.710659,NA,NA,NotTracked,Closed,
0.2949219,0.5205078,0.7895508,0.9575195,-0.246582,0.1069336,6,2,0,17,-16,37,8,1,0,1,1,1,3,0,1,1,31.4375,31.4375,31.4375,0.8125,0.8125,0.8125,5.958881,4.389761,3.47984,3.049759,2.93135,6.346807,-0.1599593,-0.4440229,1.691299,0.1014176,-0.2060407,1.489067,0.06393619,0.3459467,1.688972,-0.1393154,-0.4242889,1.665687,0.1004468,-0.2633546,1.534875,0.06240658,-0.07362485,1.729514,0.05361805,-0.3578863,1.719254,-0.1027305,0.098603,1.723986,-0.02519548,-0.35072,1.69429,-0.1424272,-0.1529456,1.752372,0.2921795,-0.1124431,1.704815,NA,NA,NotTracked,Closed,
0.2456055,0.5322266,0.7822266,0.9575195,-0.246582,0.1069336,-18,-34,9,4,6,10,-9,-10,0,1,1,1,3,0,1,1,33.4375,33.4375,33.4375,0.8125,0.8125,0.8125,5.954428,4.491837,3.5464,3.049759,2.93135,6.346807,-0.1577108,-0.4415333,1.693604,0.09364603,-0.1709415,1.491207,0.06475821,0.3459437,1.689024,-0.1437714,-0.4241951,1.664171,0.08861371,-0.2263259,1.5448,0.06260706,-0.07343218,1.729619,0.05390213,-0.3573686,1.719571,-0.1018997,0.09884367,1.723299,-0.02480986,-0.3503365,1.694571,-0.1422818,-0.1524462,1.752222,0.2922681,-0.1130248,1.695887,NA,NA,NotTracked,Unknown,
0.105957,0.5205078,0.8256836,0.9575195,-0.246582,0.1069336,-10,8,10,31,-1,0,-13,-1,0,1,1,1,3,0,1,1,34.3125,34.3125,34.3125,0.8125,0.8125,0.8125,5.962097,4.796219,3.743656,3.049759,2.93135,6.346807,-0.1584103,-0.4415969,1.691833,0.06637673,-0.1326665,1.491705,0.06575216,0.3459737,1.689351,-0.1378572,-0.4266801,1.667252,0.0297114,-0.1496078,1.530555,0.06291306,-0.07300059,1.729951,0.05440534,-0.3561879,1.720246,-0.1013442,0.09903339,1.722953,-0.02421453,-0.3494827,1.69518,-0.1420718,-0.1518094,1.751951,0.2924269,-0.1133642,1.69091,NA,NA,NotTracked,Unknown,
0.04882813,0.5419922,0.8613281,0.9575195,-0.246582,0.1069336,4,10,18,17,29,94,19,4,0,1,1,1,3,0,1,1,27.6875,27.6875,27.6875,0.8125,0.8125,0.8125,5.970407,4.894418,3.81098,3.049759,2.93135,6.346807,-0.1588926,-0.4389057,1.690373,0.05901394,-0.100652,1.497115,0.06714334,0.3460888,1.689761,-0.1378227,-0.4253763,1.664873,0.02705623,-0.09732991,1.537071,0.06313835,-0.07268684,1.730108,0.05454379,-0.3554497,1.720555,-0.1007549,0.0993604,1.722633,-0.02393315,-0.3488128,1.695475,-0.1418248,-0.1514569,1.751646,0.2916933,-0.1139735,1.683783,NA,NA,NotTracked,Open,
-0.07275391,0.5126953,0.8540039,0.9575195,-0.246582,0.1069336,3,10,-5,-29,-10,2,-29,2,0,1,1,1,3,0,1,1,30.9375,30.9375,30.9375,0.8125,0.8125,0.8125,6.001131,5.082514,3.944197,3.049759,2.93135,6.346807,-0.1617396,-0.4397552,1.688482,0.04274543,-0.0413987,1.514315,0.06928261,0.3463038,1.690903,-0.1399356,-0.4203567,1.662985,0.03614696,-0.02388074,1.475849,0.06366685,-0.07191245,1.730789,0.05487951,-0.3538459,1.721516,-0.09877679,0.1001363,1.721897,-0.02331037,-0.3473639,1.696429,-0.1414647,-0.1511447,1.750926,0.2875725,-0.1134958,1.663537,NA,NA,NotTracked,Unknown,
-0.1181641,0.5390625,0.8105469,0.9575195,-0.246582,0.1069336,-8,-5,-8,-5,15,18,2,1,0,1,1,1,3,0,1,1,17.4375,17.4375,17.4375,0.8125,0.8125,0.8125,6.066125,5.326569,4.156794,3.049759,2.93135,6.346807,-0.1511468,-0.4649015,1.67252,0.02865268,-0.01210464,1.529108,0.07025879,0.3463527,1.691095,-0.1538634,-0.4678985,1.631778,-0.0001978522,-0.03970654,1.575778,0.06386053,-0.07165165,1.731016,0.05495771,-0.3534595,1.721764,-0.09765163,0.1000021,1.720487,-0.02309874,-0.34683,1.697086,-0.1411568,-0.1503368,1.750194,0.2841074,-0.1125662,1.654374,NA,NA,NotTracked,Unknown,
-0.2226563,0.5351563,0.7744141,0.9575195,-0.246582,0.1069336,-7,-4,0,-5,-14,-56,-13,-1,0,1,1,1,3,0,1,1,7.25,7.25,7.25,0.8125,0.8125,0.8125,6.085268,5.398877,4.226872,3.049759,2.93135,6.346807,-0.1513406,-0.4651715,1.670655,0.04209068,-0.01446175,1.531319,0.07132939,0.3463804,1.691057,-0.153157,-0.4711336,1.63028,-0.008697525,-0.01682188,1.5184,0.06407179,-0.07142688,1.731064,0.05502132,-0.3532728,1.721756,-0.09629219,0.09989204,1.718539,-0.02303054,-0.346735,1.697196,-0.1407049,-0.1491762,1.748841,0.2830542,-0.1111084,1.647543,NA,NA,NotTracked,Unknown,
-0.1650391,0.5268555,0.7426758,0.9575195,-0.246582,0.1069336,-24,-50,-8,3,-47,-59,6,4,0,1,1,1,3,0,1,1,11.125,11.125,11.125,0.8125,0.8125,0.8125,6.139843,5.519197,4.370478,3.049759,2.93135,6.346807,-0.1519711,-0.46519,1.668971,0.05002751,-0.003838283,1.541832,0.0722117,0.3463987,1.691352,-0.1538462,-0.4699263,1.630345,0.01123142,-0.0006657979,1.5235,0.06413261,-0.0713117,1.731102,0.05500335,-0.3531449,1.721718,-0.09581648,0.1000008,1.718425,-0.0230508,-0.3466499,1.697283,-0.1406403,-0.1493457,1.748162,0.2809821,-0.109469,1.640202,NA,NA,NotTracked,Unknown,
-0.2641602,0.4921875,0.7285156,0.9575195,-0.246582,0.1069336,-9,3,7,14,22,-39,6,1,0,1,1,1,3,0,1,1,-11.0625,-11.0625,-11.0625,0.8125,0.8125,0.8125,6.200039,5.647304,4.582252,3.049759,2.93135,6.346807,-0.1512062,-0.4651956,1.669383,0.05562424,0.002599302,1.552406,0.07319434,0.3465666,1.691928,-0.1544103,-0.4739047,1.629125,0.03670907,-0.007005408,1.545667,0.06436344,-0.07124004,1.731238,0.05501221,-0.3531069,1.721734,-0.09312619,0.100151,1.716076,-0.02306205,-0.346611,1.697423,-0.1404696,-0.1491569,1.748079,0.2789179,-0.1082137,1.63548,NA,NA,NotTracked,Unknown,
-0.3955078,0.5766602,0.6914063,0.9575195,-0.246582,0.1069336,-16,-38,-25,-17,-110,-123,-1,-12,0,1,1,1,3,0,1,1,-15.9375,-15.9375,-15.9375,0.8125,0.8125,0.8125,6.235358,5.702551,4.709542,3.049759,2.93135,6.346807,-0.1453563,-0.4749081,1.666694,0.0543932,0.01002516,1.569446,0.07418175,0.346443,1.69227,-0.1782257,-0.4844351,1.665214,0.0478162,0.005872754,1.540163,0.06459757,-0.07111452,1.731233,0.05497792,-0.352958,1.721457,-0.0914408,0.1001877,1.714873,-0.02314377,-0.3465147,1.697346,-0.1402317,-0.1486786,1.747836,0.2732048,-0.1055473,1.625189,NA,NA,NotTracked,Unknown,
-0.3242188,0.4335938,0.8056641,0.9575195,-0.246582,0.1069336,-6,8,14,-115,108,-66,-34,12,0,1,1,1,3,0,1,1,-22.4375,-22.4375,-22.4375,0.8125,0.8125,0.8125,6.276887,5.740678,4.856964,3.049759,2.93135,6.346807,-0.1453946,-0.4750841,1.666673,0.0193749,-0.02968428,1.461336,0.07452186,0.3464823,1.692489,-0.1772848,-0.4776379,1.662895,0.01325673,-0.03326394,1.432046,0.06463709,-0.07099523,1.731246,0.05475908,-0.352682,1.721277,-0.09100626,0.1007495,1.715055,-0.02337099,-0.3462933,1.697316,-0.1401348,-0.1480105,1.747625,0.2716298,-0.1046451,1.623067,NA,NA,NotTracked,Unknown,
-0.3251953,0.5732422,0.4648438,0.9575195,-0.246582,0.1069336,16,6,-37,127,119,61,26,1,0,1,1,1,3,0,1,1,25.8125,25.8125,25.8125,0.8125,0.8125,0.8125,6.281321,5.744038,4.885674,3.049759,2.93135,6.346807,-0.1446093,-0.4758926,1.667832,0.01693719,-0.02451016,1.461682,0.07472492,0.3465278,1.692608,-0.1775484,-0.4783066,1.662784,0.01190059,-0.03038548,1.43224,0.06468102,-0.07089676,1.731237,0.05462582,-0.3524979,1.721151,-0.091029,0.1012889,1.716071,-0.02347097,-0.3461837,1.697324,-0.1400055,-0.1478711,1.747588,0.269429,-0.1039293,1.620817,NA,NA,NotTracked,Unknown,
-0.2231445,0.6494141,0.5649414,0.9575195,-0.246582,0.1069336,-25,-4,7,-21,-14,-49,-21,-13,0,1,1,1,3,0,1,1,8.125,8.125,8.125,0.8125,0.8125,0.8125,6.277848,5.736098,4.864397,3.049759,2.93135,6.346807,-0.1452226,-0.4750209,1.667354,0.0704227,0.007678104,1.607621,0.07479525,0.3465274,1.692634,-0.1767517,-0.4805495,1.662008,0.02510538,-0.04773983,1.604288,0.06472561,-0.07080491,1.731192,0.0545187,-0.3521946,1.720849,-0.09068464,0.1015986,1.716419,-0.02360255,-0.3458612,1.697109,-0.1399152,-0.1477368,1.747611,0.2674341,-0.1035108,1.619495,NA,NA,NotTracked,Unknown,
-0.4624023,0.5292969,0.7045898,0.9575195,-0.246582,0.1069336,0,3,0,-8,-11,-43,13,-2,0,1,1,1,3,0,1,1,39.75,39.75,39.75,0.8125,0.8125,0.8125,6.306036,5.728959,4.844125,3.049759,2.93135,6.346807,-0.1460692,-0.4754551,1.668123,0.0694388,0.007615825,1.606439,0.07486665,0.346538,1.692706,-0.1777326,-0.4817168,1.66649,0.02535525,-0.04769088,1.604331,0.06482233,-0.07066011,1.731129,0.05465951,-0.3519771,1.720435,-0.09048711,0.1017219,1.716655,-0.02350452,-0.3457612,1.696947,-0.1397063,-0.1494592,1.74768,0.2667063,-0.1030204,1.618559,NA,NA,NotTracked,Unknown,
-0.4067383,0.6679688,0.6425781,0.9575195,-0.246582,0.1069336,6,30,-5,-24,-9,-5,-5,3,0,1,1,1,3,0,1,1,40.0625,40.0625,40.0625,0.8125,0.8125,0.8125,6.332975,5.74863,4.795606,3.049759,2.93135,6.346807,-0.1472022,-0.4752116,1.673665,0.02642798,0.04367322,1.597114,0.07492563,0.3465063,1.692808,-0.1820674,-0.4663967,1.68025,0.02236036,-0.01301114,1.608826,0.06508967,-0.07062683,1.730919,0.05516776,-0.3519174,1.719659,-0.09027488,0.1018025,1.716671,-0.02301414,-0.3458578,1.696451,-0.1392763,-0.1503489,1.748372,0.2650908,-0.1021935,1.617373,NA,NA,NotTracked,Unknown,
-0.484375,0.5649414,0.6899414,0.9575195,-0.246582,0.1069336,11,-31,-1,-40,-16,39,27,2,0,1,1,1,3,0,1,1,8.375,8.375,8.375,0.8125,0.8125,0.8125,6.331509,5.756183,4.771874,3.049759,2.93135,6.346807,-0.147942,-0.4751203,1.675285,0.04197317,0.02347339,1.603208,0.07493167,0.346518,1.69283,-0.1786756,-0.4821789,1.672801,0.008951012,-0.0241796,1.610299,0.0651782,-0.07061974,1.730887,0.05522744,-0.3519384,1.719567,-0.09035481,0.1019361,1.716968,-0.02290063,-0.3459415,1.69631,-0.1391052,-0.1515315,1.748462,0.2649178,-0.1021684,1.616422,NA,NA,NotTracked,Unknown,
-0.4536133,0.5581055,0.6386719,0.9575195,-0.246582,0.1069336,47,19,-1,-6,-11,-23,-30,16,0,1,1,1,3,0,1,1,2.1875,2.1875,2.1875,0.8125,0.8125,0.8125,6.321777,5.758134,4.754731,3.049759,2.93135,6.346807,-0.155232,-0.4614881,1.679673,0.03976584,0.02414071,1.601375,0.07491598,0.3465046,1.69284,-0.184897,-0.4661627,1.686636,0.007982792,-0.02591442,1.610457,0.06524669,-0.07060226,1.730836,0.05535414,-0.3519585,1.719366,-0.09006346,0.1020641,1.716492,-0.02278938,-0.3460023,1.696089,-0.1391069,-0.1514989,1.748514,0.2644304,-0.101956,1.616045,NA,NA,NotTracked,Unknown,
-0.4580078,0.6523438,0.5805664,0.9575195,-0.246582,0.1069336,16,-11,-3,-9,8,18,-14,3,0,1,1,1,3,0,1,1,-0.625,-0.625,-0.625,0.8125,0.8125,0.8125,6.31514,5.756445,4.740006,3.049759,2.93135,6.346807,-0.1562584,-0.4644677,1.681112,0.03822057,0.02661977,1.598334,0.07498232,0.3464456,1.692937,-0.1832293,-0.4688565,1.681651,0.01151478,-0.0242463,1.610011,0.06527503,-0.07062232,1.730864,0.05536351,-0.3520055,1.719354,-0.08903246,0.102003,1.714688,-0.02278714,-0.3460215,1.696077,-0.139183,-0.1512436,1.748476,0.2643608,-0.1016437,1.615948,NA,NA,NotTracked,Unknown,
-0.3984375,0.5825195,0.7504883,0.9575195,-0.246582,0.1069336,28,5,7,-3,-17,108,38,-1,0,1,1,1,3,0,1,1,-9.125,-9.125,-9.125,0.8125,0.8125,0.8125,6.255027,5.72778,4.669636,3.049759,2.93135,6.346807,-0.1560926,-0.4612419,1.680533,0.03634378,0.02799935,1.594412,0.0749692,0.3464139,1.693155,-0.1852006,-0.4616581,1.689923,0.01268024,-0.02438077,1.609705,0.0653924,-0.07063408,1.73085,0.05545907,-0.3520336,1.719257,-0.08754648,0.1014532,1.712306,-0.0226796,-0.3460289,1.695915,-0.1391827,-0.1512434,1.748471,0.2641936,-0.1014675,1.6158,NA,NA,NotTracked,Unknown,
-0.3984375,0.5825195,0.7504883,0.9575195,-0.246582,0.1069336,28,5,7,-3,-17,108,38,-1,0,1,1,1,3,0,1,1,-9.125,-9.125,-9.125,0.8125,0.8125,0.8125,6.255027,5.72778,4.669636,3.049759,2.93135,6.346807,-0.1555655,-0.4626205,1.67875,-0.008245828,0.06827945,1.59631,0.07504079,0.3463583,1.693359,-0.184604,-0.4587401,1.6877,-0.01850588,0.01646711,1.619617,0.06545065,-0.07059327,1.730822,0.055507,-0.3519533,1.719098,-0.08755536,0.1014612,1.712363,-0.02261802,-0.3459503,1.695614,-0.1391411,-0.151144,1.748449,0.264092,-0.1012235,1.615779,NA,NA,NotTracked,Unknown,
-0.4604492,0.6787109,0.7182617,0.9575195,-0.246582,0.1069336,-30,23,43,9,-34,70,42,6,0,1,1,1,3,0,1,1,-21.75,-21.75,-21.75,0.8125,0.8125,0.8125,6.226574,5.699352,4.646269,3.049759,2.93135,6.346807,-0.1557571,-0.4622643,1.678118,-0.009561791,0.06940321,1.597899,0.07495061,0.346444,1.693607,-0.185944,-0.4711937,1.68538,-0.0186631,0.01670239,1.619764,0.06551448,-0.07055183,1.730812,0.05554738,-0.3518903,1.718952,-0.08769989,0.1014961,1.712586,-0.02258302,-0.3458919,1.695467,-0.1391368,-0.1511419,1.748443,0.2639109,-0.1011814,1.615952,NA,NA,NotTracked,Unknown,
-0.3803711,0.565918,0.7680664,0.9575195,-0.246582,0.1069336,4,8,36,15,116,91,-22,3,0,1,1,1,3,0,1,1,-19.375,-19.375,-19.375,0.8125,0.8125,0.8125,6.206736,5.678494,4.66937,3.049759,2.93135,6.346807,-0.1560679,-0.4603243,1.676769,-0.009878646,0.06783672,1.602548,0.07479711,0.3464946,1.693838,-0.1831444,-0.4558127,1.6868,-0.01993331,0.01757201,1.619143,0.06550305,-0.07053093,1.73076,0.05545904,-0.3518697,1.71875,-0.08820365,0.1015531,1.713273,-0.02264463,-0.345897,1.695196,-0.139162,-0.1510955,1.748428,0.264015,-0.1009796,1.61592,NA,NA,NotTracked,Unknown,
-0.4492188,0.6450195,0.8105469,0.9575195,-0.246582,0.1069336,10,-11,-12,-34,67,-6,-48,6,0,1,1,1,3,0,1,1,-30.1875,-30.1875,-30.1875,0.8125,0.8125,0.8125,6.196764,5.659904,4.75199,3.049759,2.93135,6.346807,-0.1500652,-0.4760936,1.672871,-0.01546274,0.07042641,1.621852,0.07469317,0.3465019,1.694024,-0.1857032,-0.4811625,1.6814,-0.04103933,0.0318487,1.615405,0.06548416,-0.07051336,1.730717,0.05539918,-0.3518459,1.718484,-0.08860378,0.1015851,1.713586,-0.02270686,-0.3459056,1.694942,-0.1391979,-0.1511044,1.748484,0.2642705,-0.1007635,1.615745,NA,NA,NotTracked,NotTracked,
-0.5751953,0.6806641,0.543457,0.9575195,-0.246582,0.1069336,-12,-16,15,-38,27,56,-11,11,0,1,1,1,3,0,1,1,-111.75,-111.75,-111.75,0.8125,0.8125,0.8125,6.178308,5.625544,4.907936,3.049759,2.93135,6.346807,-0.1494298,-0.4765223,1.671828,-0.01403946,0.06874705,1.637548,0.07453681,0.346536,1.69421,-0.1790779,-0.4698083,1.664905,-0.04181409,0.02785444,1.628643,0.06545229,-0.07048704,1.730674,0.055327,-0.3518468,1.718269,-0.08976524,0.1015677,1.714814,-0.0227534,-0.3459568,1.694832,-0.139658,-0.1532917,1.748581,0.2643656,-0.1007058,1.615763,NA,NA,NotTracked,NotTracked,
0.1196289,0.3730469,0.8149414,0.9575195,-0.246582,0.1069336,6,72,56,80,26,-47,-4,17,0,1,1,1,3,0,1,1,-7.1875,-7.1875,-7.1875,0.8125,0.8125,0.8125,6.151531,5.615539,4.831775,3.049759,2.93135,6.346807,-0.1536651,-0.4674186,1.669072,-0.01445078,0.06874643,1.639093,0.07415837,0.3464518,1.694246,-0.1833325,-0.4660594,1.680605,-0.04128557,0.02705292,1.626935,0.06528914,-0.07042195,1.730506,0.0551256,-0.3517959,1.717767,-0.09136472,0.101901,1.716603,-0.02286967,-0.3459553,1.694533,-0.140525,-0.1521732,1.747459,0.2644176,-0.1005774,1.615888,NA,NA,NotTracked,NotTracked,
-0.4443359,0.7514648,0.7055664,0.9575195,-0.246582,0.1069336,-22,16,0,22,-69,8,-2,-3,0,1,1,1,3,0,1,1,-1.6875,-1.6875,-1.6875,0.8125,0.8125,0.8125,6.184112,5.616359,4.843376,3.049759,2.93135,6.346807,-0.1557179,-0.4638121,1.666658,-0.01427688,0.06945669,1.640175,0.07384636,0.3463821,1.694368,-0.1835953,-0.46382,1.673482,-0.04015574,0.02712383,1.627776,0.06526094,-0.07043625,1.730493,0.0550876,-0.3518281,1.717715,-0.0920892,0.1020051,1.717663,-0.02289204,-0.3459891,1.694512,-0.140623,-0.1517135,1.74732,0.2642957,-0.1006035,1.616123,NA,NA,NotTracked,NotTracked,
-0.4462891,0.5498047,0.6518555,0.9575195,-0.246582,0.1069336,24,38,13,-21,-46,3,-8,-4,0,1,1,1,3,0,1,1,20.875,20.875,20.875,0.8125,0.8125,0.8125,6.189499,5.625295,4.832806,3.049759,2.93135,6.346807,-0.1564102,-0.4619141,1.665959,-0.01570017,0.06987456,1.640881,0.07343508,0.3463247,1.694361,-0.1638251,-0.4945292,1.684444,-0.04030043,0.02631494,1.628024,0.06525172,-0.07042648,1.730484,0.05509579,-0.3518181,1.717674,-0.09252936,0.101915,1.718055,-0.02287298,-0.3459921,1.694415,-0.1406916,-0.1531312,1.746933,0.2643122,-0.1006651,1.616518,NA,NA,NotTracked,NotTracked,
-0.3676758,0.6381836,0.6401367,0.9575195,-0.246582,0.1069336,-7,-16,-30,3,-13,13,-10,-2,0,1,1,1,3,0,1,1,15.6875,15.6875,15.6875,0.8125,0.8125,0.8125,6.205684,5.633771,4.810914,3.049759,2.93135,6.346807,-0.1562015,-0.4626657,1.664636,-0.01761906,0.07033657,1.640176,0.07313299,0.3462793,1.694392,-0.1843619,-0.4652328,1.669133,-0.03785283,0.0259928,1.624834,0.06520692,-0.07043254,1.730453,0.05511846,-0.3518415,1.717634,-0.09282293,0.1021058,1.718499,-0.02283086,-0.3460582,1.694279,-0.1407663,-0.1531142,1.746895,0.2643242,-0.1008291,1.617097,NA,NA,NotTracked,NotTracked,
-0.3369141,0.6152344,0.6865234,0.9575195,-0.246582,0.1069336,-22,-9,-21,-14,-1,-1,-15,-5,0,1,1,1,3,0,1,1,11.75,11.75,11.75,0.8125,0.8125,0.8125,6.200547,5.63801,4.775285,3.049759,2.93135,6.346807,-0.1570479,-0.464949,1.663668,0.05279182,0.008656234,1.608809,0.07236779,0.3463301,1.694543,-0.1853988,-0.4529841,1.677,0.01242452,-0.04791735,1.606019,0.06515604,-0.07044436,1.730433,0.05513514,-0.351854,1.717619,-0.09316303,0.1020826,1.718495,-0.02282283,-0.3460846,1.694133,-0.1410534,-0.153164,1.746605,0.2649743,-0.1012737,1.61878,NA,NA,NotTracked,Unknown,
-0.3520508,0.6206055,0.722168,0.9575195,-0.246582,0.1069336,-6,14,-4,-18,-19,-39,13,-2,0,1,1,1,3,0,1,1,1.5,1.5,1.5,0.8125,0.8125,0.8125,6.183776,5.639679,4.71971,3.049759,2.93135,6.346807,-0.1539637,-0.4791868,1.659925,0.05199301,0.009863173,1.607245,0.07193393,0.3462596,1.694704,-0.1836759,-0.4790859,1.660235,0.01247901,-0.04785401,1.605992,0.06508665,-0.07041972,1.730421,0.0551883,-0.3518432,1.717582,-0.09348246,0.1018742,1.718303,-0.02275883,-0.3460702,1.694036,-0.1411788,-0.1533769,1.746491,0.2661177,-0.1016785,1.620305,NA,NA,NotTracked,Unknown,
-0.3540039,0.5917969,0.7387695,0.9575195,-0.246582,0.1069336,5,-3,-8,8,-2,3,-7,-3,0,1,1,1,3,0,1,1,-3.0625,-3.0625,-3.0625,0.8125,0.8125,0.8125,6.147529,5.629238,4.640469,3.049759,2.93135,6.346807,-0.157047,-0.4631085,1.663454,0.05128787,0.01160781,1.604338,0.0713834,0.3462698,1.694864,-0.1440961,-0.504837,1.696667,0.01241612,-0.04780342,1.606167,0.064998,-0.07040596,1.730389,0.05516025,-0.3518516,1.717611,-0.09412631,0.1017796,1.718082,-0.02278258,-0.3460711,1.694038,-0.1416227,-0.1539267,1.745721,0.2675994,-0.1022329,1.622387,NA,NA,NotTracked,Unknown,
-0.3574219,0.6323242,0.6723633,0.9575195,-0.246582,0.1069336,1,10,8,1,5,24,-2,-2,0,1,1,1,3,0,1,1,5.8125,5.8125,5.8125,0.8125,0.8125,0.8125,6.112095,5.603667,4.53102,3.049759,2.93135,6.346807,-0.1563535,-0.4652326,1.662439,0.04622877,0.01744984,1.57091,0.07079037,0.3463632,1.694906,-0.1207059,-0.4838305,1.652,0.03191659,0.004853171,1.5592,0.06479937,-0.07037304,1.730359,0.0551549,-0.3518514,1.717618,-0.09435643,0.1018156,1.71835,-0.02278888,-0.346075,1.694039,-0.1421841,-0.1547493,1.745181,0.26934,-0.1029083,1.625052,NA,NA,NotTracked,Unknown,
-0.3012695,0.5722656,0.7177734,0.9575195,-0.246582,0.1069336,-2,-5,1,4,27,0,-3,-4,0,1,1,1,3,0,1,1,10.5,10.5,10.5,0.8125,0.8125,0.8125,6.077619,5.554946,4.40383,3.049759,2.93135,6.346807,-0.155526,-0.462368,1.661825,0.04573511,0.01670735,1.563552,0.07001449,0.3464901,1.694949,-0.1251352,-0.4765596,1.640046,0.02202358,0.005672789,1.5515,0.06471817,-0.07035642,1.730339,0.05508392,-0.3518628,1.717677,-0.09429808,0.1014681,1.717596,-0.02286493,-0.3460795,1.694103,-0.1428103,-0.1552586,1.74477,0.2719936,-0.1038721,1.629239,NA,NA,NotTracked,Unknown,
-0.2568359,0.5307617,0.769043,0.9575195,-0.246582,0.1069336,-1,1,1,-1,17,-14,-6,-2,0,1,1,1,3,0,1,1,17.9375,17.9375,17.9375,0.8125,0.8125,0.8125,6.048829,5.487222,4.256601,3.049759,2.93135,6.346807,-0.1536177,-0.4564206,1.661215,0.03825617,0.01729045,1.548364,0.06816702,0.346757,1.694834,-0.1186749,-0.4693691,1.650909,0.01543738,0.00216423,1.520939,0.06415733,-0.07009763,1.730197,0.05497607,-0.3517182,1.717678,-0.09463538,0.1012136,1.717398,-0.02294771,-0.3459927,1.694101,-0.143624,-0.1535198,1.744843,0.2766062,-0.1050836,1.635872,NA,NA,NotTracked,Unknown,
-0.2583008,0.4887695,0.8193359,0.9575195,-0.246582,0.1069336,1,0,-1,1,19,-4,4,1,0,1,1,1,3,0,1,1,19.3125,19.3125,19.3125,0.8125,0.8125,0.8125,6.025645,5.40062,4.100388,3.049759,2.93135,6.346807,-0.1527046,-0.457393,1.662787,0.07498366,-0.01513538,1.556708,0.06677105,0.3470137,1.694743,-0.117595,-0.4714717,1.648121,0.1051296,-0.01378118,1.513064,0.06384514,-0.06990392,1.729979,0.05495381,-0.3515713,1.717633,-0.09508828,0.1012636,1.717905,-0.02294849,-0.3459496,1.694103,-0.1438662,-0.1532081,1.744861,0.2782444,-0.1061743,1.64101,NA,NA,NotTracked,Unknown,
-0.2597656,0.515625,0.8286133,0.9575195,-0.246582,0.1069336,0,-1,-3,-1,2,-9,3,0,0,1,1,1,3,0,1,1,15.9375,15.9375,15.9375,0.8125,0.8125,0.8125,6.013486,5.278448,3.950384,3.049759,2.93135,6.346807,-0.1515911,-0.4611761,1.662401,0.04244116,-0.01472418,1.529635,0.06545851,0.3472303,1.694351,-0.1235666,-0.4628628,1.636774,0.03663804,-0.04045261,1.495229,0.06339668,-0.06971996,1.72976,0.05486721,-0.3514822,1.717596,-0.09559955,0.1012676,1.718351,-0.02300011,-0.345911,1.694072,-0.144147,-0.1532855,1.744951,0.2833107,-0.1070506,1.648382,NA,NA,NotTracked,Unknown,
-0.1845703,0.5102539,0.8369141,0.9575195,-0.246582,0.1069336,-2,0,4,1,-9,30,-6,-1,0,1,1,1,3,0,1,1,16.1875,16.1875,16.1875,0.8125,0.8125,0.8125,6.013081,5.121962,3.812557,3.049759,2.93135,6.346807,-0.1507201,-0.4614823,1.66302,0.04699649,-0.04112266,1.521319,0.06397224,0.3475696,1.694338,-0.1216556,-0.4658647,1.640286,0.02041877,-0.07534367,1.5426,0.0630073,-0.06939556,1.72946,0.05486491,-0.3511321,1.717557,-0.09775547,0.1008071,1.718348,-0.02294178,-0.3457189,1.693959,-0.1442423,-0.1531337,1.744957,0.286599,-0.1075819,1.653727,NA,NA,NotTracked,Unknown,
-0.1577148,0.5307617,0.7436523,0.9575195,-0.246582,0.1069336,-2,3,0,-2,-6,0,-3,-1,0,1,1,1,3,0,1,1,22,22,22,0.8125,0.8125,0.8125,6.034617,4.940243,3.690379,3.049759,2.93135,6.346807,-0.1427118,-0.4709062,1.667428,0.08851931,-0.1142542,1.504796,0.06108939,0.3480862,1.693798,-0.09669633,-0.4506342,1.6575,0.06348009,-0.06884199,1.565588,0.06180351,-0.0689922,1.729069,0.0544533,-0.35089,1.717964,-0.1007697,0.1004245,1.718488,-0.02326067,-0.3457068,1.694042,-0.145107,-0.1522695,1.745283,0.2955959,-0.1073704,1.670658,NA,NA,NotTracked,Unknown,
