ALX,ALY,ALZ,ARX,ARY,ARZ,EMG0L,EMG1L,EMG2L,EMG3L,EMG4L,EMG5L,EMG6L,EMG7L,EMG0R,EMG1R,EMG2R,EMG3R,EMG4R,EMG5R,EMG6R,EMG7R,GLX,GLY,GLZ,GRX,GRY,GRZ,ORL,OPL,OYL,ORR,OPR,OYR,LHNX,LHNY,LHNZ,RHNX,RHNY,RHNZ,HX,HY,HZ,LTX,LTY,LTZ,RTX,RTY,RTZ,SpineMidX,SpineMidY,SpineMidZ,SpineBaseX,SpineBaseY,SpineBaseZ,ShoulderLeftX,ShoulderLeftY,ShoulderLeftZ,ShoulderRightX,ShoulderRightY,ShoulderRightZ,ElbowLeftX,ElbowLeftY,ElbowLeftZ,ElbowRightX,ElbowRightY,ElbowRightZ,Myo_Pose_left,Myo_Pose_Right,Kinect_pose_left,Kinect_pose_right
0.9936523,0.3320313,0.1206055,1.027832,-0.2358398,0.08105469,1,-2,8,-11,-1,0,-2,1,-2,-2,-3,-17,-29,-4,-2,0,-22.6875,-22.6875,-22.6875,-8.5625,-8.5625,-8.5625,6.712127,3.013875,8.522617,3.171878,2.928571,6.713585,-0.1321825,-0.4843904,1.674836,0.2617536,-0.4904167,1.606827,0.04041569,0.3462152,1.717689,-0.08684362,-0.4535616,1.650216,0.264304,-0.4879758,1.56917,0.05007247,-0.1018688,1.752906,0.05249176,-0.4123335,1.742385,-0.1189921,0.08626772,1.747836,-0.02654029,-0.4076441,1.718757,-0.1474949,-0.1744356,1.752973,0.2566645,-0.1612902,1.716521,NA,NA,NotTracked,NotTracked,
1.056152,0.3061523,0.112793,1.041016,-0.28125,0.1333008,-1,-9,-14,-4,4,-1,-2,0,0,3,29,-12,-3,-4,-1,-1,-32,-32,-32,-26.0625,-26.0625,-26.0625,6.629783,3.045645,8.570118,3.251791,2.946175,6.605405,-0.1310173,-0.4833783,1.672928,0.2589906,-0.4860905,1.601435,0.04044029,0.3462284,1.717659,-0.08509968,-0.5062256,1.637429,0.2774237,-0.4698997,1.567262,0.05003002,-0.1018678,1.752867,0.05245556,-0.4123174,1.742337,-0.1197679,0.08569825,1.74808,-0.02657784,-0.4076064,1.71871,-0.1475805,-0.1750768,1.7532,0.2568496,-0.1611607,1.716838,NA,NA,NotTracked,NotTracked,
1.096191,0.4057617,0.2661133,1.03125,-0.3413086,0.2050781,-4,-2,5,-40,-5,2,0,-1,-2,-1,0,-17,6,1,-1,-1,-0.75,-0.75,-0.75,-31.4375,-31.4375,-31.4375,6.514538,3.123858,8.684959,3.389909,2.98428,6.425007,-0.1299828,-0.4813766,1.67214,0.2571205,-0.4756381,1.590684,0.04045989,0.3462042,1.717608,-0.0852819,-0.4552211,1.649481,0.2641623,-0.4847817,1.546182,0.05003075,-0.101867,1.752867,0.05258048,-0.4123256,1.742299,-0.1205774,0.08510856,1.748438,-0.02643164,-0.4076575,1.718644,-0.1477083,-0.175736,1.75353,0.2572851,-0.1609369,1.717726,NA,NA,NotTracked,NotTracked,
1.102539,0.4160156,0.3896484,1.016113,-0.2641602,0.3061523,-2,6,28,-8,8,-1,12,3,-2,-2,-11,5,3,-2,-1,-3,9.125,9.125,9.125,-46.1875,-46.1875,-46.1875,6.44413,3.18332,8.767522,3.570539,3.045783,6.189997,-0.1280305,-0.4742854,1.66766,0.2514115,-0.4517163,1.576573,0.04049796,0.3461877,1.717623,-0.08483584,-0.4564328,1.646897,0.2702967,-0.4510141,1.536952,0.05001565,-0.1018494,1.752862,0.05262011,-0.4121758,1.742221,-0.1213632,0.08483016,1.748857,-0.02639612,-0.4075108,1.718573,-0.1489051,-0.1758463,1.755177,0.2580109,-0.160495,1.719704,NA,NA,NotTracked,Unknown,
1.106934,0.4790039,0.46875,0.9804688,-0.3452148,0.4155273,-1,-10,-17,15,119,11,2,4,1,1,-1,4,17,2,-1,-2,15.5625,15.5625,15.5625,-101.4375,-101.4375,-101.4375,6.384883,3.264058,8.842807,3.677466,3.140569,5.972197,-0.1211493,-0.4712903,1.658296,0.2434049,-0.4315903,1.548444,0.04050496,0.3461834,1.71763,-0.07815874,-0.4422708,1.642333,0.258141,-0.4288885,1.502086,0.05001495,-0.1017989,1.752828,0.05268237,-0.4119169,1.741982,-0.1217542,0.08493196,1.749118,-0.02636989,-0.4072933,1.718241,-0.1507128,-0.1754563,1.756695,0.2585561,-0.1599531,1.72242,NA,NA,NotTracked,Unknown,
1.055664,0.6577148,0.7841797,0.8999023,-0.4707031,0.519043,1,-3,16,53,-2,-5,-6,-2,-3,-4,6,15,33,9,2,0,-20.5625,-20.5625,-20.5625,-96.0625,-96.0625,-96.0625,6.209258,3.634761,9.04258,3.767646,3.331253,5.673792,-0.1075407,-0.4469382,1.636792,0.2320381,-0.3282132,1.493131,0.04070439,0.3460994,1.717683,-0.06398407,-0.4248798,1.631867,0.2420789,-0.3252488,1.446317,0.04993042,-0.101326,1.752835,0.05176525,-0.4106417,1.740652,-0.122456,0.08532508,1.749554,-0.02810367,-0.405599,1.716135,-0.1553963,-0.1743908,1.7588,0.2610475,-0.1601724,1.730433,NA,NA,NotTracked,Unknown,
0.5385742,0.7387695,0.875,0.8569336,-0.4291992,0.5092773,-1,10,27,-3,-24,3,5,-4,0,-1,9,16,-1,-7,-9,4,-15.375,-15.375,-15.375,-98,-98,-98,6.103517,4.176137,9.165533,3.79943,3.406307,5.573311,-0.09369765,-0.433264,1.619852,0.2324722,-0.2561326,1.46905,0.04088403,0.3460001,1.717776,-0.05495618,-0.4018093,1.6305,0.2452583,-0.2598867,1.43325,0.05006629,-0.1010638,1.752844,0.05196331,-0.4099944,1.739955,-0.1227214,0.08562055,1.749737,-0.02804868,-0.4051483,1.715433,-0.1564763,-0.1739487,1.759339,0.2623807,-0.1533113,1.732521,NA,NA,NotTracked,Unknown,
0.1245117,0.6396484,0.7739258,0.71875,-0.515625,0.6069336,-5,-19,-37,-83,-17,-2,4,-4,0,-4,-15,9,-27,-17,0,-5,-43,-43,-43,-156.6875,-156.6875,-156.6875,6.045505,4.599224,9.21054,3.78794,3.667727,5.29143,-0.07955105,-0.4116542,1.603143,0.2062138,-0.1920009,1.423298,0.0414222,0.3459305,1.71837,-0.04414688,-0.4012021,1.594257,0.2429477,-0.1911683,1.431282,0.05122235,-0.1003319,1.753013,0.05507812,-0.4083521,1.738928,-0.122805,0.08601644,1.749903,-0.02570079,-0.4041046,1.714026,-0.1590341,-0.1731815,1.759746,0.2641317,-0.120497,1.730376,NA,NA,Unknown,Unknown,
0.1245117,0.6396484,0.7739258,0.6074219,-0.6079102,0.6411133,4,11,42,60,27,-6,7,-3,2,-2,-32,-4,18,8,-1,2,-43,-43,-43,-133.4375,-133.4375,-133.4375,6.045505,4.599224,9.21054,3.748287,3.86462,5.124934,-0.06494875,-0.3885177,1.584944,0.2050206,-0.1171481,1.416804,0.04222612,0.3457951,1.71922,-0.03454172,-0.3743874,1.550344,0.185064,-0.1391812,1.36025,0.05298661,-0.09957666,1.752801,0.05949572,-0.4069189,1.736786,-0.1228753,0.0864452,1.749964,-0.02234202,-0.4042357,1.711761,-0.1625095,-0.1658625,1.757548,0.2681773,-0.1447942,1.60787,NA,NA,Unknown,Unknown,
-0.2329102,0.4379883,0.6923828,0.5786133,-0.5888672,0.6455078,-1,11,31,-6,-59,-2,-5,0,0,-1,-39,-2,0,-25,-6,-3,-14.3125,-14.3125,-14.3125,-123.8125,-123.8125,-123.8125,5.990583,5.268414,9.24413,3.729731,3.962764,5.045789,-0.01153022,-0.3223268,1.585925,0.20389,0.03845748,1.438903,0.04486361,0.3454321,1.721558,-0.06285691,-0.3840038,1.638986,0.2131003,0.01636834,1.403898,0.05290648,-0.09963171,1.754124,0.058005,-0.4071267,1.739174,-0.1202064,0.08975597,1.74868,-0.02303738,-0.4047028,1.713365,-0.1702746,-0.1458683,1.747379,0.2802829,-0.151653,1.675222,NA,NA,Unknown,Unknown,
-0.4760742,0.4658203,0.6835938,0.4257813,-0.6621094,0.6000977,2,8,1,-3,-26,-2,1,0,0,-1,-2,4,-8,15,0,8,-12.75,-12.75,-12.75,-133.125,-133.125,-133.125,5.976729,5.896677,9.243033,3.638581,4.251403,4.824768,0.007712901,-0.2952451,1.579077,0.2110933,0.09803119,1.454533,0.04578877,0.3454909,1.723287,-0.050244,-0.3597784,1.629229,0.2046166,0.07868145,1.4124,0.05243605,-0.09975167,1.755175,0.05517263,-0.4082663,1.741231,-0.1206648,0.08988393,1.74898,-0.02463687,-0.405067,1.714621,-0.174958,-0.1357089,1.739968,0.2797993,-0.1535479,1.666606,NA,NA,Unknown,Unknown,
-0.5166016,0.4223633,0.6845703,0.3540039,-0.7514648,0.621582,2,-5,-3,5,-8,-5,0,1,-1,-2,-14,0,6,-21,-13,-13,-15,-15,-15,-120.8125,-120.8125,-120.8125,5.967824,6.078986,9.242734,3.549672,4.429372,4.695582,-0.0001807969,-0.2516863,1.590154,0.2148266,0.147884,1.47641,0.04674319,0.3453095,1.725455,-0.009312966,-0.3221763,1.613033,0.2058045,0.2105723,1.537,0.05203557,-0.09956923,1.7563,0.05382842,-0.4079708,1.742464,-0.1209263,0.09027438,1.749515,-0.02568748,-0.40418,1.715592,-0.1764772,-0.1284905,1.735475,0.2722002,-0.1283216,1.619542,NA,NA,Unknown,Unknown,
-0.5913086,0.3647461,0.6201172,0.2636719,-0.7138672,0.5424805,-3,-2,-4,34,-4,-1,2,1,-5,-2,56,12,-10,-36,-18,-2,-7.3125,-7.3125,-7.3125,-101.375,-101.375,-101.375,5.95075,6.542768,9.232898,3.471381,4.584885,4.577601,0.01892892,-0.2466102,1.586572,0.2190027,0.1789763,1.498209,0.04723767,0.3451102,1.727622,0.01529844,-0.3149011,1.604747,0.1721362,0.1979354,1.5419,0.05171005,-0.09913195,1.756898,0.05254258,-0.4068362,1.74285,-0.1207805,0.09077697,1.749727,-0.02712145,-0.4020047,1.715539,-0.1797219,-0.1165532,1.726621,0.2731625,-0.1179786,1.604535,NA,NA,Unknown,Unknown,
-0.6337891,0.3051758,0.4956055,0.246582,-0.7587891,0.5249023,1,3,2,9,8,-2,-10,-11,-2,-1,-12,38,3,23,3,3,-6.875,-6.875,-6.875,-98.75,-98.75,-98.75,5.92322,6.774782,9.209913,3.383461,4.713401,4.474258,0.07369262,-0.1952369,1.572992,0.224606,0.2236799,1.535847,0.0484685,0.345068,1.733281,0.1039961,-0.2080772,1.605302,0.1898485,0.2111769,1.575889,0.05135751,-0.09823183,1.757946,0.0510427,-0.404806,1.743092,-0.1198745,0.09189066,1.749915,-0.02876212,-0.3991158,1.714903,-0.1795116,-0.1064864,1.705033,0.2648489,-0.04549361,1.57162,NA,NA,Unknown,Unknown,
-0.6362305,0.1796875,0.3862305,0.1943359,-0.8193359,0.4760742,-4,5,0,19,12,5,0,0,-1,-3,-20,-14,-2,-1,-7,0,-31.4375,-31.4375,-31.4375,-82.875,-82.875,-82.875,5.79297,7.044906,9.119248,3.30069,4.81262,4.384493,0.1052572,-0.1707239,1.554482,0.2287215,0.2330863,1.552229,0.04886777,0.3451777,1.735844,0.1035805,-0.2039043,1.605074,0.1892093,0.2384394,1.57875,0.05132209,-0.09758583,1.758445,0.05067792,-0.4034116,1.743068,-0.1182959,0.09314747,1.749657,-0.02915758,-0.3972952,1.714521,-0.1737798,-0.1177045,1.641609,0.2651404,-0.03495217,1.563014,NA,NA,Unknown,Unknown,
-0.7709961,0.1157227,0.293457,0.2021484,-0.7861328,0.4638672,4,16,7,-3,-1,-2,-2,1,-2,-5,-24,-8,20,-9,-12,0,-18.9375,-18.9375,-18.9375,-70.875,-70.875,-70.875,5.566341,7.175766,8.912589,3.232446,4.881303,4.312055,0.09259815,-0.1575851,1.565073,0.2325991,0.2386517,1.565151,0.04891108,0.3451611,1.739023,0.1030709,-0.1936334,1.603725,0.1958423,0.2374175,1.59525,0.05128152,-0.09722234,1.758623,0.05015547,-0.402384,1.742679,-0.1165772,0.09460106,1.748797,-0.02960804,-0.3959205,1.713804,-0.1718459,-0.102144,1.661342,0.2630953,-0.03012552,1.561358,NA,NA,Unknown,Unknown,
-0.8520508,0.09863281,0.2177734,0.1459961,-0.8876953,0.4414063,-2,1,8,-11,0,0,-3,1,-1,-5,-36,-2,-14,-11,4,-7,-19.125,-19.125,-19.125,-67.375,-67.375,-67.375,5.396763,7.224604,8.750315,3.162956,4.93374,4.247965,0.08361791,-0.146846,1.56966,0.2342875,0.2467783,1.578174,0.04885078,0.3449551,1.740814,0.1079515,-0.1754994,1.603222,0.2005886,0.2476188,1.624833,0.05114445,-0.09634142,1.759042,0.04966456,-0.4004031,1.742454,-0.1152672,0.0955338,1.748036,-0.02991708,-0.3943018,1.713138,-0.171495,-0.1006638,1.661409,0.2558326,-0.03330337,1.562746,NA,NA,Unknown,Unknown,
-0.7426758,0.09863281,0.1972656,0.07861328,-0.9018555,0.4370117,1,-14,0,10,-2,-1,5,1,-2,0,-5,9,1,-3,-4,2,-14.625,-14.625,-14.625,-51.9375,-51.9375,-51.9375,5.199583,7.262486,8.55809,3.107403,4.973393,4.1909,0.09630687,-0.1180936,1.556838,0.2430956,0.2406661,1.594422,0.04829948,0.3447684,1.744491,0.09965277,-0.1608359,1.598159,0.2102972,0.2433957,1.646,0.05092662,-0.09570187,1.759486,0.04929767,-0.3995886,1.74214,-0.1126742,0.09691752,1.745643,-0.03034847,-0.3934678,1.712603,-0.169622,-0.09154611,1.648019,0.2503578,-0.03067259,1.559701,NA,NA,Unknown,Closed,
-0.8681641,-0.005371094,0.1523438,0.07080078,-0.8666992,0.2475586,-4,5,-4,0,-17,-1,-4,-4,3,1,6,-2,4,76,26,8,-18.25,-18.25,-18.25,-31.6875,-31.6875,-31.6875,4.656426,7.312426,8.030051,3.067772,4.999801,4.143742,0.09441376,-0.1102888,1.559327,0.2450776,0.2404719,1.601938,0.04817815,0.3447726,1.746066,0.09604076,-0.1535593,1.599907,0.2078346,0.2488318,1.643538,0.05072208,-0.09544322,1.760901,0.04915684,-0.3993424,1.74214,-0.1116204,0.09751032,1.744606,-0.03043997,-0.3931988,1.712506,-0.169166,-0.08756795,1.644142,0.2469464,-0.02790858,1.555801,NA,NA,Unknown,Closed,
-0.9916992,0.002929688,0.07958984,0.07275391,-0.8276367,0.2817383,-1,-4,-2,9,13,2,-8,-8,0,-1,-30,19,18,-6,13,2,-13.75,-13.75,-13.75,-49.1875,-49.1875,-49.1875,3.997804,7.317875,7.382979,3.016594,4.99215,4.120074,0.09481864,-0.09954941,1.556014,0.2453788,0.2376857,1.603263,0.04811044,0.3446131,1.747609,0.08558603,-0.1432027,1.604949,0.2108678,0.239393,1.629895,0.05065297,-0.09524459,1.760972,0.04901433,-0.3990109,1.742011,-0.1107863,0.09782393,1.743685,-0.03065332,-0.3928533,1.712161,-0.1689187,-0.08415627,1.640446,0.2455026,-0.02678731,1.55529,NA,NA,Unknown,Unknown,
-1.213379,-0.04541016,0.06005859,-0.0009765625,-0.8818359,0.3320313,1,3,-1,14,-7,-3,-4,0,-1,-1,12,21,5,-31,-1,0,-46.1875,-46.1875,-46.1875,-31.75,-31.75,-31.75,3.995703,7.330778,7.425848,2.984862,4.964736,4.116858,0.03139345,-0.08959044,1.551168,0.2445692,0.2395166,1.60137,0.0480339,0.3447512,1.749125,0.0404584,-0.1093829,1.611946,0.209101,0.2470484,1.624734,0.05057224,-0.09480581,1.761237,0.04878571,-0.3983377,1.742066,-0.1105366,0.09831121,1.743228,-0.03074736,-0.3922183,1.711927,-0.1667723,-0.08033265,1.631765,0.2441387,-0.02627501,1.555094,NA,NA,Unknown,Unknown,
-0.9658203,-0.2446289,0.04003906,-0.04589844,-0.9150391,0.440918,-2,1,-1,-11,-2,-4,-5,-2,-2,2,69,7,13,35,2,7,-29.5,-29.5,-29.5,-32.6875,-32.6875,-32.6875,4.309421,7.316348,7.781021,2.959024,4.941827,4.103414,0.1097155,-0.08936983,1.534792,0.2304963,0.2455239,1.587485,0.04802583,0.344657,1.750936,0.08107781,-0.09612214,1.61,0.1956295,0.2392592,1.617312,0.05047942,-0.09442476,1.762435,0.04860165,-0.3978692,1.742128,-0.1091571,0.09906938,1.742108,-0.03097741,-0.3914062,1.711522,-0.1681532,-0.07649431,1.626219,0.240925,-0.02598936,1.554224,NA,NA,Unknown,Unknown,
-0.9213867,-0.1254883,0.1352539,-0.01611328,-0.9697266,0.3798828,1,-1,-1,0,11,15,-9,-4,-5,-5,-32,-5,-26,-29,-17,0,-49.75,-49.75,-49.75,-17.0625,-17.0625,-17.0625,4.917104,7.276042,8.444612,2.945304,4.927615,4.086136,0.1119817,-0.0889306,1.534941,0.218246,0.2469746,1.573489,0.04794577,0.3449818,1.752192,0.08063286,-0.09434229,1.609833,0.1855806,0.2226767,1.610273,0.05050248,-0.09441532,1.762454,0.04845059,-0.3977255,1.742264,-0.1089437,0.09909773,1.741705,-0.03113794,-0.3912775,1.711515,-0.1685533,-0.074015,1.623734,0.2370915,-0.02769169,1.553645,NA,NA,Unknown,Unknown,
-1.099121,0.007324219,0.1176758,0.04492188,-0.9472656,0.2524414,2,3,2,-2,26,25,-6,-14,0,-6,-17,9,3,-35,-25,-4,-84,-84,-84,-8,-8,-8,5.787999,7.132354,9.461398,2.935542,4.902899,4.06029,0.1160025,-0.08765861,1.536373,0.1978687,0.2462384,1.555998,0.04798662,0.344998,1.752814,0.1129272,-0.126063,1.585091,0.1635516,0.2321087,1.618572,0.05050113,-0.0943962,1.762488,0.04837971,-0.3977264,1.742314,-0.1083507,0.09914134,1.741078,-0.03124607,-0.3912848,1.71148,-0.1690356,-0.07131889,1.620229,0.234171,-0.02797021,1.552301,NA,NA,Unknown,Unknown,
-1.118652,-0.01806641,0.2490234,-0.03564453,-0.9863281,0.3105469,1,-41,-6,-3,-1,43,10,-1,0,-1,0,10,13,-6,15,15,-86.6875,-86.6875,-86.6875,-8.5625,-8.5625,-8.5625,6.112535,6.948072,9.89806,2.928626,4.88924,4.041168,0.1103232,-0.0873084,1.538693,0.1317512,0.2422891,1.513282,0.04802877,0.3448836,1.753104,0.109971,-0.1250108,1.581272,0.09668622,0.2706345,1.582,0.05060323,-0.09425302,1.76254,0.04813727,-0.397949,1.742429,-0.1052207,0.09846392,1.739961,-0.03157228,-0.391447,1.712262,-0.169882,-0.06105035,1.620067,0.2190396,-0.03984207,1.554867,NA,NA,Unknown,Unknown,
-0.40625,0.2631836,0.3701172,0.01757813,-1.103027,0.2368164,-3,8,4,0,74,-20,11,3,-10,-6,9,11,13,35,-46,-11,-111.8125,-111.8125,-111.8125,11.625,11.625,11.625,6.38263,6.513695,0.3932267,2.933018,4.884215,4.020295,0.06458661,-0.08857618,1.534749,0.08948459,0.2091049,1.495112,0.04502517,0.3525597,1.75137,0.06474862,-0.1147829,1.599,0.04865638,0.2390197,1.545857,0.05013445,-0.09454924,1.762408,0.04835895,-0.3993062,1.74284,-0.1052749,0.09820058,1.739698,-0.03135351,-0.3932317,1.713798,-0.1695754,-0.06104886,1.619256,0.215611,-0.03989873,1.553368,NA,NA,Unknown,Unknown,
-1.282715,0.1469727,0.1787109,0.02539063,-1.039063,0.1464844,-6,-2,-3,-8,6,7,6,17,18,5,-74,-20,-26,79,8,7,18.25,18.25,18.25,4.9375,4.9375,4.9375,6.527557,6.177106,0.5965881,2.931838,4.893388,4.010291,0.08888511,-0.09129983,1.558671,0.04219063,0.1755928,1.481946,0.04665312,0.3546282,1.752733,0.08312123,-0.06213396,1.620933,0.03121993,0.1608037,1.5038,0.04995689,-0.09629621,1.762327,0.04825609,-0.4001161,1.743245,-0.1050149,0.0989833,1.739585,-0.03152459,-0.3939781,1.714265,-0.167852,-0.05439857,1.620534,0.211681,-0.04080212,1.552216,NA,NA,Unknown,Unknown,
0.3164063,0.8598633,0.6020508,0.171875,-0.9013672,0.175293,-8,4,5,20,52,-40,22,-31,1,-6,-78,-7,-11,64,105,44,14.1875,14.1875,14.1875,-18.3125,-18.3125,-18.3125,6.662465,5.804061,0.7791795,2.91363,4.891846,4.011461,0.150733,-0.03947429,1.524889,-0.04955294,0.09669342,1.480222,0.05108691,0.3492571,1.755905,0.190591,-0.09196545,1.546833,-0.05094928,0.07005776,1.496727,0.0509625,-0.09638963,1.76257,0.04906522,-0.4009312,1.743477,-0.1049333,0.09195305,1.733919,-0.0299581,-0.3958633,1.711337,-0.1688054,-0.05953795,1.614265,0.201904,-0.04887574,1.55109,NA,NA,NotTracked,NotTracked,
-0.2753906,0.6635742,0.4785156,0.2973633,-0.9360352,0.3076172,-7,-25,-14,-11,-9,9,43,25,1,-2,14,21,-14,-20,-32,3,4.5,4.5,4.5,5.5,5.5,5.5,6.728813,5.488921,0.8853504,2.898003,4.83428,4.016663,0.1276476,-0.02985517,1.512528,-0.06775364,0.04908448,1.49266,0.0526818,0.3479224,1.75727,0.1329713,-0.08434953,1.502288,-0.1130605,0.02632734,1.5225,0.05141721,-0.09514016,1.763278,0.04946914,-0.3974291,1.744621,-0.1033843,0.0966126,1.734834,-0.02900359,-0.3912798,1.71084,-0.1504709,-0.06291017,1.600651,0.2005009,-0.04989029,1.550953,NA,NA,NotTracked,NotTracked,
-0.5107422,0.7260742,0.5014648,0.2568359,-0.8862305,0.293457,-35,-23,-25,-34,-16,97,4,24,-2,16,32,16,11,70,36,-3,99.9375,99.9375,99.9375,-15.5625,-15.5625,-15.5625,6.861938,5.23486,1.022912,2.895082,4.781219,4.029911,0.129854,-0.03476094,1.513763,-0.05123568,0.002834101,1.507061,0.05329137,0.3476549,1.757687,0.1411867,-0.08223009,1.488328,-0.06824753,-0.0509907,1.535355,0.05181818,-0.09372604,1.763834,0.05000125,-0.3935363,1.745376,-0.1027423,0.1010455,1.736025,-0.02798978,-0.3873977,1.710483,-0.142376,-0.06056667,1.585518,0.1982207,-0.05133314,1.548742,NA,NA,NotTracked,NotTracked,
-0.3110352,1.153809,-0.2827148,0.2485352,-1.506836,-0.4960938,7,19,2,37,48,-29,-35,11,-2,-9,-48,-24,-32,2,1,71,86.625,86.625,86.625,151.375,151.375,151.375,7.032856,5.069462,1.21487,2.824587,4.75054,4.072578,0.1125074,-0.04734262,1.519286,-0.1086536,-0.05053557,1.542022,0.05444138,0.346874,1.758639,0.1168128,-0.09558776,1.498145,-0.1233868,0.0156603,1.5985,0.05220579,-0.09209031,1.764494,0.05033133,-0.3905046,1.746024,-0.102946,0.1030927,1.736632,-0.0271614,-0.3846871,1.711542,-0.1470948,-0.06322563,1.583683,0.1842366,-0.06989646,1.553817,NA,NA,NotTracked,NotTracked,
0.4926758,0.8886719,0.1948242,-0.8085938,-0.9838867,-0.6577148,-1,4,0,8,-2,-12,28,11,4,0,15,-13,-19,0,-63,28,-57.3125,-57.3125,-57.3125,33.25,33.25,33.25,7.067345,5.071802,1.196737,2.85201,4.738376,4.064172,0.1464156,-0.04470113,1.524077,-0.1096584,-0.05999329,1.549115,0.0546736,0.3467721,1.758949,0.1827457,-0.09373723,1.501029,-0.0455396,-0.1311728,1.621667,0.05228711,-0.09141904,1.764763,0.0504068,-0.3895325,1.746357,-0.1031179,0.1037161,1.737084,-0.02692968,-0.3838628,1.712151,-0.1487866,-0.06383949,1.584046,0.1821146,-0.07137753,1.553922,NA,NA,NotTracked,NotTracked,
-0.1411133,0.8530273,0.1181641,-0.262207,-1.305664,0.171875,11,-12,-1,-5,-14,-22,8,23,1,0,11,0,-3,-12,11,-3,-10.625,-10.625,-10.625,92.375,92.375,92.375,6.959634,5.066925,1.232442,2.920243,4.697065,4.052778,0.1140994,-0.05024603,1.519767,-0.1107057,-0.05850386,1.547264,0.05475931,0.3466796,1.759044,0.1309478,-0.09423345,1.493576,-0.133928,-0.1236751,1.598857,0.05234299,-0.09099276,1.764849,0.05045167,-0.3887777,1.746407,-0.1033181,0.1041017,1.737414,-0.02677887,-0.3830449,1.712481,-0.1489973,-0.06415717,1.584185,0.1815201,-0.07075772,1.555759,NA,NA,NotTracked,NotTracked,
0.1542969,0.8769531,0.4501953,0.3813477,-0.6269531,0.3505859,8,4,4,-2,-3,4,30,26,2,2,8,11,10,-2,23,5,-49.125,-49.125,-49.125,-68.75,-68.75,-68.75,6.930522,5.052242,1.212778,2.877206,4.70212,4.07388,0.10292,-0.05320415,1.520784,-0.1176883,-0.05622284,1.547227,0.05480742,0.3465807,1.759206,0.1054884,-0.1187734,1.539591,-0.1395412,-0.1209096,1.594288,0.05232673,-0.0906027,1.765084,0.05028288,-0.388133,1.746666,-0.1035805,0.1044796,1.737839,-0.026922,-0.3822693,1.71342,-0.1543293,-0.06761861,1.587662,0.1799234,-0.06989013,1.553544,NA,NA,NotTracked,NotTracked,
0.003417969,0.9394531,0.3666992,0.01269531,-1.040039,0.2822266,-5,-16,-12,-10,30,6,0,7,-4,-3,18,-12,-11,-19,15,-2,41.75,41.75,41.75,15.375,15.375,15.375,6.935077,5.054233,1.218356,2.874256,4.71327,4.071413,0.09963927,-0.05355484,1.520666,-0.1149301,-0.05790849,1.548555,0.05485595,0.3464972,1.759498,0.09515134,-0.1191929,1.552481,-0.1133018,-0.1134113,1.5924,0.05218907,-0.09005352,1.765359,0.0499057,-0.3873062,1.746864,-0.1039201,0.1050898,1.738407,-0.02720239,-0.3815863,1.713876,-0.1550865,-0.06779391,1.587475,0.1778795,-0.07165553,1.55324,NA,NA,NotTracked,NotTracked,
-0.06738281,0.8652344,0.4233398,0.1650391,-0.9174805,0.3549805,7,12,11,2,1,25,7,-7,-2,-1,1,-9,-15,49,7,2,10.1875,10.1875,10.1875,9.1875,9.1875,9.1875,6.955273,5.068445,1.211003,2.909887,4.711097,4.057226,0.09917873,-0.05427442,1.520864,-0.1173362,-0.05814029,1.549838,0.05487744,0.3464349,1.759925,0.1055474,-0.1177273,1.529826,-0.130724,-0.1199898,1.586417,0.05208556,-0.08976699,1.765631,0.04966312,-0.3870443,1.747187,-0.1040412,0.10534,1.738705,-0.02740614,-0.3814128,1.714277,-0.1552788,-0.0678279,1.587417,0.1770704,-0.0736101,1.554079,NA,NA,NotTracked,NotTracked,
0.1533203,0.9711914,0.2924805,0.246582,-0.8725586,0.3374023,-2,0,-1,-4,0,9,7,-4,2,-4,-20,-4,-5,50,15,2,-25.8125,-25.8125,-25.8125,11.0625,11.0625,11.0625,6.951968,5.057674,1.18635,2.922542,4.701014,4.042511,0.09830643,-0.05519338,1.521905,-0.11378,-0.06178914,1.551836,0.0549352,0.3463942,1.76028,0.103351,-0.1177188,1.527348,-0.1363306,-0.1255632,1.597833,0.05215152,-0.08933844,1.767336,0.04927958,-0.3861488,1.747638,-0.1056526,0.1081432,1.740292,-0.02759978,-0.3806247,1.714655,-0.1552851,-0.06797621,1.587547,0.1768808,-0.07542308,1.555345,NA,NA,NotTracked,NotTracked,
0.1479492,0.8037109,0.3867188,0.1152344,-0.6660156,0.3671875,0,-11,-4,4,13,3,0,-8,2,5,63,2,-2,3,2,2,-77.625,-77.625,-77.625,52.3125,52.3125,52.3125,6.874814,5.073772,1.152025,2.996686,4.658766,4.017394,0.1079577,-0.05884207,1.525081,-0.05221745,-0.05217975,1.535267,0.05468561,0.3464508,1.761086,0.1196247,-0.1103122,1.503659,-0.05812923,-0.1000574,1.530689,0.05190242,-0.08901243,1.7673,0.04866141,-0.3856883,1.747787,-0.1063641,0.109111,1.740734,-0.02816436,-0.3801855,1.715159,-0.1553214,-0.0688336,1.58874,0.1806652,-0.07465947,1.565363,NA,NA,NotTracked,NotTracked,
0.2353516,0.7709961,0.418457,0.2856445,-0.6831055,0.3720703,-1,9,2,6,10,0,-3,-2,-2,-4,-33,-9,-2,6,2,-3,-79.5625,-79.5625,-79.5625,51.9375,51.9375,51.9375,6.826475,5.086093,1.125331,3.030057,4.644688,4.020235,0.1033905,-0.06159626,1.525934,-0.04825288,-0.04327045,1.528149,0.05444136,0.3464762,1.76146,0.1249134,-0.1102454,1.511238,-0.03303192,-0.1060065,1.53258,0.05168077,-0.08888637,1.767248,0.04816555,-0.3856337,1.747804,-0.1063912,0.1090454,1.740734,-0.02866882,-0.3800685,1.71534,-0.155208,-0.07206479,1.593184,0.1806955,-0.08013138,1.56687,NA,NA,NotTracked,NotTracked,
0.04931641,0.6303711,0.3994141,0.2851563,-0.8295898,0.394043,3,-1,0,-3,-3,-1,-5,1,1,2,49,2,-2,2,0,-3,-65.3125,-65.3125,-65.3125,59.875,59.875,59.875,6.698924,5.177258,0.9969944,3.091732,4.603179,4.030931,0.1042588,-0.06682759,1.526949,-0.0385166,-0.04134811,1.523219,0.05405139,0.3465498,1.76171,0.1149314,-0.1146106,1.532463,-0.02719176,-0.1095348,1.540414,0.05153057,-0.08876452,1.767139,0.04797344,-0.3856143,1.747721,-0.1064719,0.1089134,1.740791,-0.0288733,-0.3800419,1.715226,-0.1564196,-0.08049116,1.60329,0.1864513,-0.08277138,1.575442,NA,NA,NotTracked,NotTracked,
0.1499023,0.722168,0.7583008,0.1977539,-0.7900391,0.3613281,-1,-4,-5,-2,-10,-2,15,1,1,0,7,-2,-3,1,-1,0,-102.5625,-102.5625,-102.5625,138.4375,138.4375,138.4375,6.549202,5.09698,0.7960556,3.272175,4.515458,4.104441,0.1042801,-0.08085719,1.527575,-0.01480929,-0.05073699,1.507147,0.05321223,0.3467971,1.761908,0.1367275,-0.1228269,1.537783,-0.04796202,-0.0756431,1.513111,0.05138006,-0.08874904,1.767027,0.04764111,-0.386074,1.747629,-0.1072502,0.1073792,1.740989,-0.02909821,-0.3804743,1.715147,-0.1638637,-0.1011587,1.631014,0.2148475,-0.08164088,1.602707,NA,NA,NotTracked,NotTracked,
-0.06542969,0.6088867,0.7070313,0.1972656,-0.7358398,0.409668,-1,-3,-2,7,0,7,-3,-1,-3,-3,-12,-5,-4,-1,-1,-11,-110.375,-110.375,-110.375,129.4375,129.4375,129.4375,6.409477,5.058581,0.6481091,3.376047,4.421422,4.219885,0.1001174,-0.09126622,1.52552,-0.0206989,-0.0778425,1.511624,0.05253732,0.3470748,1.761701,0.1096162,-0.119934,1.539048,-0.007202197,-0.1516762,1.560261,0.05124998,-0.08884545,1.766796,0.0475939,-0.3867296,1.747332,-0.1078123,0.1060284,1.741282,-0.029184,-0.3810143,1.715007,-0.1642809,-0.1064674,1.641705,0.2331094,-0.07444225,1.621542,NA,NA,NotTracked,NotTracked,
-0.08203125,0.5556641,0.7548828,0.4794922,-0.7988281,0.4995117,-1,0,2,-1,83,6,-4,-1,-1,3,38,5,3,0,0,-2,-70.9375,-70.9375,-70.9375,84.5625,84.5625,84.5625,6.318685,4.941977,0.4895651,3.461053,4.228935,4.439656,-0.01488997,-0.09190883,1.491609,-0.01313817,-0.09227935,1.491633,0.05156827,0.3475688,1.761329,0.009277489,-0.1228319,1.503857,-0.03294498,-0.1225366,1.502714,0.0510782,-0.08887923,1.766534,0.04742851,-0.3870568,1.747185,-0.1082193,0.1051416,1.741858,-0.02932313,-0.3813379,1.715251,-0.1681723,-0.112743,1.659601,0.2519303,-0.07728322,1.639871,NA,NA,NotTracked,NotTracked,
-0.07128906,0.6103516,0.8095703,0.4033203,-0.8999023,0.4760742,-2,1,-2,0,-8,-51,-4,-2,0,0,-4,0,8,3,0,-1,-78.1875,-78.1875,-78.1875,105.125,105.125,105.125,6.278693,4.862232,0.4085091,3.483284,4.153592,4.511681,-0.01815697,-0.1287183,1.486918,0.01544457,-0.1278986,1.489481,0.0506921,0.3481249,1.760704,0.02018104,-0.1509772,1.4974,0.009263563,-0.1633781,1.505211,0.05082715,-0.08911445,1.766044,0.04704551,-0.3883873,1.746495,-0.1089068,0.1039483,1.742704,-0.02981128,-0.3823193,1.715059,-0.1757001,-0.1128162,1.680517,0.2597985,-0.08219321,1.65248,NA,NA,NotTracked,NotTracked,
-0.06201172,0.6323242,0.8251953,0.6196289,-0.6186523,0.5864258,-2,0,-1,-9,19,2,-5,-2,-1,-6,-7,-5,-7,-4,1,-6,-92.75,-92.75,-92.75,131.125,131.125,131.125,6.235297,4.774601,0.3271053,3.560627,3.904668,4.785206,0.03136851,-0.2194007,1.490637,0.05841989,-0.2116657,1.488594,0.04908826,0.3489383,1.759545,0.01955153,-0.2680542,1.521696,0.04950239,-0.2549421,1.5024,0.05034454,-0.09092441,1.764997,0.04694392,-0.3957435,1.745608,-0.1160164,0.09881044,1.749407,-0.03030236,-0.390588,1.715783,-0.1775174,-0.1222026,1.70595,0.2714261,-0.09593462,1.676193,NA,NA,NotTracked,NotTracked,
0.08447266,0.6650391,1.017578,0.7895508,-0.7143555,0.5966797,-3,-1,-2,8,-9,-7,-4,-1,-1,-2,-10,-1,-7,-1,-1,1,-73.375,-73.375,-73.375,150.375,150.375,150.375,6.150615,4.346133,0.002313927,3.579984,3.747535,4.989827,0.06227357,-0.2688446,1.497549,0.06497344,-0.2626011,1.492194,0.04817635,0.349367,1.75838,0.03427827,-0.2723507,1.442404,0.05089875,-0.3105792,1.505455,0.04985646,-0.09195192,1.76506,0.046213,-0.3987585,1.746189,-0.120234,0.09521508,1.752574,-0.03108218,-0.3936638,1.717056,-0.176518,-0.1280371,1.715492,0.2874857,-0.141886,1.666918,NA,NA,NotTracked,NotTracked,
0.3642578,0.5996094,0.7436523,0.7475586,-0.5727539,0.4667969,0,-1,-2,-3,-4,7,-7,-1,-1,-1,-3,-1,2,-1,0,12,-5.1875,-5.1875,-5.1875,165.25,165.25,165.25,6.205601,4.107364,9.835209,3.60885,3.599443,5.199925,-0.02889114,-0.3260897,1.610308,0.09801732,-0.301535,1.521189,0.04759807,0.3497252,1.757369,-0.07512639,-0.3877541,1.645727,0.06711943,-0.2780255,1.597857,0.04923094,-0.09384773,1.764732,0.04561519,-0.4035655,1.746061,-0.1218648,0.09365791,1.754146,-0.03175739,-0.3954268,1.717423,-0.1731897,-0.1357069,1.723358,0.27235,-0.1153588,1.703245,NA,NA,NotTracked,NotTracked,
0.4321289,0.6894531,0.5571289,0.902832,-0.4414063,0.4482422,-1,0,-1,-2,-1,1,-2,-1,0,0,-5,-2,1,-2,-1,-5,-38.25,-38.25,-38.25,143.8125,143.8125,143.8125,6.308628,3.770635,9.612641,3.589033,3.461129,5.43644,-0.04960832,-0.4092402,1.583678,0.1523767,-0.3751153,1.542726,0.04664774,0.3504648,1.75543,-0.08273585,-0.4418352,1.598609,0.113931,-0.3592168,1.621309,0.04931324,-0.09474971,1.762995,0.04642448,-0.4046904,1.743547,-0.1231425,0.09153144,1.756487,-0.03257324,-0.395212,1.716357,-0.1629089,-0.1560448,1.740217,0.2703915,-0.1200521,1.711027,NA,NA,Unknown,NotTracked,
0.5512695,0.6586914,0.4750977,0.9394531,-0.5229492,0.3945313,0,-1,0,7,-1,-2,2,-1,-1,-2,15,-1,0,-1,-2,6,-48.5,-48.5,-48.5,126.5,126.5,126.5,6.34789,3.649521,9.521914,3.520201,3.34313,5.687731,-0.06787667,-0.4174837,1.596481,0.1850685,-0.4066992,1.540256,0.04604554,0.3505805,1.753893,-0.1038175,-0.4481941,1.586667,0.1700665,-0.3793567,1.5948,0.05004176,-0.09452772,1.761856,0.04938846,-0.4031003,1.741792,-0.123099,0.09129726,1.756719,-0.03149318,-0.3952043,1.715708,-0.159299,-0.162634,1.742344,0.2662182,-0.1322094,1.715701,NA,NA,Unknown,Unknown,
0.9331055,0.659668,0.4208984,1.002441,-0.4179688,0.309082,0,-1,-1,1,-2,-1,-3,-2,0,-1,-5,0,0,0,-1,-5,-104.5625,-104.5625,-104.5625,147.75,147.75,147.75,6.429997,3.41467,9.299545,3.455296,3.237152,5.94192,-0.085743,-0.4345415,1.608457,0.2098362,-0.4318986,1.55954,0.04559631,0.3507101,1.752969,-0.1272415,-0.4551936,1.599687,0.1843583,-0.41437,1.59521,0.05080865,-0.09468725,1.761519,0.05208781,-0.4031948,1.741905,-0.1230634,0.09098789,1.757065,-0.02878837,-0.3966542,1.715977,-0.1575836,-0.1658135,1.744408,0.2629118,-0.1395478,1.718265,NA,NA,Unknown,Unknown,
1.094727,0.3920898,0.3125,0.9907227,-0.2919922,0.2314453,-1,0,1,0,-1,-1,-2,-1,0,-1,12,0,-1,-2,0,1,-132.75,-132.75,-132.75,112.3125,112.3125,112.3125,6.622252,3.125879,8.831852,3.359762,3.143821,6.201746,-0.09928848,-0.4490963,1.620936,0.2303476,-0.4562711,1.581534,0.04537218,0.3506671,1.752422,-0.1430152,-0.4680098,1.6045,0.1868373,-0.4489865,1.609687,0.05114734,-0.0948995,1.76137,0.05301383,-0.4036037,1.742289,-0.1230807,0.09056345,1.757402,-0.02754729,-0.3975271,1.716711,-0.1563734,-0.1705424,1.746474,0.2602507,-0.1490069,1.71904,NA,NA,Unknown,Unknown,
1.18457,0.3144531,0.09277344,0.9838867,-0.2661133,0.2255859,-1,0,0,3,0,1,-1,0,-2,-2,0,0,-2,-2,-2,-4,-118,-118,-118,59.375,59.375,59.375,6.910499,2.996555,8.381615,3.203099,3.068841,6.45492,-0.1226096,-0.4673142,1.644763,0.269847,-0.4974734,1.613625,0.04490229,0.3509114,1.751171,-0.171602,-0.478131,1.64256,0.237405,-0.4999762,1.595333,0.051424,-0.09546097,1.761208,0.05322188,-0.4048092,1.743046,-0.1229289,0.0895524,1.75759,-0.0270408,-0.3995295,1.717906,-0.1541431,-0.1716671,1.750571,0.2563315,-0.160568,1.713575,NA,NA,Unknown,NotTracked,
1.126465,0.2636719,-0.04492188,0.9746094,-0.2832031,0.1772461,-1,-1,0,2,0,1,-3,0,-1,-1,-5,0,-2,-2,-1,0,-99.375,-99.375,-99.375,39.8125,39.8125,39.8125,7.196324,2.931932,7.9638,3.037394,3.015033,6.683581,-0.1327588,-0.4777583,1.654585,0.2824474,-0.5035291,1.629511,0.04477513,0.3509056,1.75087,-0.1821817,-0.4861406,1.657131,0.2900951,-0.4881416,1.589539,0.0513586,-0.09575815,1.761257,0.052123,-0.4059236,1.744352,-0.1229586,0.08909361,1.757763,-0.02795325,-0.4004772,1.719453,-0.1538042,-0.1720886,1.75237,0.2565849,-0.1606099,1.712799,NA,NA,NotTracked,NotTracked,
1.058594,0.2041016,-0.01025391,0.9892578,-0.2416992,0.1411133,0,-1,0,-3,-1,-1,0,-1,-2,-2,3,-1,1,1,-1,-1,-69.1875,-69.1875,-69.1875,15.9375,15.9375,15.9375,7.355865,2.909785,7.709285,2.877431,2.978146,6.881408,-0.1403805,-0.4840832,1.666604,0.2905585,-0.5036985,1.640929,0.04467327,0.3509762,1.750542,-0.1896182,-0.5005864,1.665533,0.2952679,-0.4878591,1.60298,0.05096977,-0.09598915,1.761337,0.05126936,-0.4064099,1.74509,-0.1229255,0.08885305,1.757806,-0.02868181,-0.4008991,1.72034,-0.1541092,-0.1722032,1.753919,0.2566639,-0.160693,1.712807,NA,NA,NotTracked,NotTracked,
0.9985352,0.1728516,0.1157227,1.01123,-0.2856445,0.1342773,-2,-1,-1,-3,-2,-1,0,0,-1,-1,-8,-2,-1,0,-1,0,-30.4375,-30.4375,-30.4375,-2.1875,-2.1875,-2.1875,7.35714,2.907252,7.661733,2.703432,2.947708,7.065072,-0.1570052,-0.4857826,1.677164,0.2933996,-0.5045416,1.644912,0.04457251,0.3510665,1.750186,-0.1659981,-0.4841815,1.633382,0.2891805,-0.4713317,1.610973,0.05060376,-0.09621954,1.761429,0.05029044,-0.4069446,1.746009,-0.1229821,0.08833732,1.757864,-0.0295842,-0.4015681,1.721574,-0.155265,-0.1724758,1.755597,0.2573464,-0.1605411,1.71404,NA,NA,NotTracked,NotTracked,
0.9389648,0.2172852,0.2280273,1.011719,-0.2807617,0.1303711,-1,-1,-1,-1,-1,1,-1,-1,0,1,-4,0,-1,-1,-2,-2,-2.25,-2.25,-2.25,1.375,1.375,1.375,7.249606,2.917141,7.760404,2.680213,2.941592,7.090989,-0.1658517,-0.487094,1.690798,0.2930069,-0.5030817,1.643297,0.04418643,0.3516174,1.748509,-0.2032451,-0.4841259,1.701471,0.2604539,-0.514771,1.621278,0.05003212,-0.09668479,1.761557,0.04873707,-0.4081841,1.747876,-0.1228669,0.08770271,1.757696,-0.03086304,-0.402857,1.723611,-0.1562482,-0.1727127,1.758929,0.2587679,-0.1600522,1.717766,NA,NA,NotTracked,NotTracked,
0.9067383,0.2827148,0.269043,0.965332,-0.2592773,0.1230469,1,-1,-1,-1,1,-1,-2,-2,-2,-2,-5,-2,-6,0,0,0,-3.4375,-3.4375,-3.4375,4.9375,4.9375,4.9375,7.1135,2.937612,7.895484,2.704557,2.9304,7.074963,-0.1667617,-0.4890151,1.694893,0.2912168,-0.5002384,1.638483,0.04386729,0.3517337,1.74762,-0.2024364,-0.4923223,1.7028,0.2806843,-0.4658984,1.609,0.04977693,-0.09693117,1.761602,0.04842082,-0.4084348,1.748508,-0.1228416,0.08739866,1.757596,-0.03113269,-0.4030668,1.724289,-0.1573919,-0.1726932,1.760807,0.259282,-0.1597621,1.719788,NA,NA,NotTracked,NotTracked,
0.9013672,0.3085938,0.2509766,0.949707,-0.2412109,0.1337891,1,-1,-2,-1,1,-2,2,-1,-3,-1,-2,-1,-1,-2,-1,1,-16.4375,-16.4375,-16.4375,7,7,7,6.971762,2.963356,8.025002,2.757318,2.926272,7.030578,-0.1660332,-0.4889099,1.699682,0.2887789,-0.4965422,1.633542,0.04349603,0.35171,1.746436,-0.1545502,-0.5261445,1.73675,0.2871326,-0.4860498,1.6,0.04963887,-0.09716816,1.761656,0.04817171,-0.4088148,1.749124,-0.1230046,0.08677723,1.757348,-0.03133966,-0.4033794,1.724765,-0.1581395,-0.1730847,1.762156,0.2592914,-0.1596016,1.721562,NA,NA,NotTracked,NotTracked,
0.8989258,0.2919922,0.1987305,0.9633789,-0.2436523,0.1254883,-1,0,0,-2,0,0,0,-1,0,1,0,0,-3,-1,-1,-1,-24.125,-24.125,-24.125,0.3125,0.3125,0.3125,6.840241,2.990974,8.132221,2.815069,2.925362,6.974776,-0.1624565,-0.4906209,1.70225,0.2867179,-0.4931495,1.629476,0.04329735,0.3516942,1.745831,-0.1199539,-0.5033732,1.7197,0.2520264,-0.5167079,1.609684,0.04948621,-0.09731236,1.761812,0.04815198,-0.4089833,1.749745,-0.1230654,0.08637271,1.757265,-0.03132166,-0.4035469,1.725367,-0.1584688,-0.1733069,1.763546,0.2591806,-0.1595159,1.722696,NA,NA,NotTracked,NotTracked,
0.9194336,0.2709961,0.1806641,0.9570313,-0.2661133,0.1083984,-1,-1,-1,0,-1,-1,-2,0,0,-1,13,1,2,-2,-2,-2,11.8125,11.8125,11.8125,7.875,7.875,7.875,6.698208,3.023957,8.275754,2.894375,2.93026,6.899176,-0.159399,-0.4846469,1.69808,0.2786979,-0.4857334,1.615599,0.04257212,0.3516083,1.744321,-0.1360532,-0.510643,1.733239,0.2736469,-0.4549523,1.589954,0.04918607,-0.0976667,1.761979,0.04793802,-0.4093492,1.750353,-0.1228898,0.08599444,1.756933,-0.0314519,-0.4038635,1.72588,-0.1583893,-0.1735336,1.764554,0.2582992,-0.1595631,1.723641,NA,NA,NotTracked,NotTracked,
0.9306641,0.3149414,0.1655273,0.9677734,-0.2563477,0.09619141,-1,0,-1,-1,-2,0,-1,-1,-1,-1,2,0,10,2,0,0,24.5625,24.5625,24.5625,14.25,14.25,14.25,6.649113,3.045028,8.35576,2.990091,2.938049,6.815896,-0.1501375,-0.4840636,1.697134,0.2730488,-0.4893803,1.608535,0.04224984,0.3514518,1.743494,-0.1941994,-0.4775524,1.714111,0.2688922,-0.4524637,1.582865,0.04900298,-0.09779724,1.762118,0.04788497,-0.4094258,1.750601,-0.1228703,0.08593414,1.756872,-0.03146248,-0.4039443,1.726118,-0.1582826,-0.173589,1.764655,0.2578708,-0.159618,1.723883,NA,NA,NotTracked,NotTracked,
0.925293,0.3051758,0.1557617,0.9663086,-0.2426758,0.09033203,-1,1,0,-1,-1,-3,0,0,-1,-2,11,-1,1,1,-2,-3,12.5625,12.5625,12.5625,6.9375,6.9375,6.9375,6.602046,3.065243,8.426467,3.086123,2.948786,6.726726,-0.1461519,-0.4833571,1.694126,0.26885,-0.484467,1.603799,0.04197624,0.3514054,1.743189,-0.1886261,-0.4828978,1.707083,0.2727104,-0.4765658,1.565038,0.0487929,-0.09798177,1.762278,0.04790355,-0.4096328,1.750911,-0.1228871,0.08578158,1.756901,-0.03140298,-0.4043202,1.726558,-0.1577524,-0.1737861,1.764978,0.2573387,-0.1596894,1.724235,NA,NA,NotTracked,NotTracked,
0.9086914,0.284668,0.1567383,0.9819336,-0.2504883,0.1015625,-2,-1,-1,1,0,-1,-1,-1,-2,-2,-1,-2,-1,-2,-2,-1,16.3125,16.3125,16.3125,-3.4375,-3.4375,-3.4375,6.559027,3.08216,8.489598,3.172616,2.963645,6.634974,-0.1421612,-0.4796242,1.689158,0.2641912,-0.4825083,1.597733,0.04182032,0.3514118,1.742748,-0.1352621,-0.5189006,1.725,0.2640004,-0.4460374,1.571653,0.0485268,-0.0981873,1.762445,0.04787088,-0.4098502,1.751353,-0.1228642,0.08554942,1.75687,-0.03146064,-0.4045028,1.726982,-0.157838,-0.1739957,1.764993,0.2561936,-0.1598689,1.724373,NA,NA,NotTracked,NotTracked,
0.9121094,0.3032227,0.1625977,0.96875,-0.265625,0.1166992,0,0,0,0,-2,0,-1,-1,-1,-2,1,-2,-2,0,-2,-1,20.5625,20.5625,20.5625,-1.5,-1.5,-1.5,6.536969,3.096064,8.538182,3.246912,2.97978,6.553833,-0.133192,-0.4777534,1.679198,0.2592498,-0.467588,1.594243,0.04131704,0.3513284,1.74202,-0.1721789,-0.4899769,1.6805,0.231578,-0.4619409,1.581817,0.04822097,-0.09842903,1.762569,0.04796536,-0.4099596,1.751486,-0.1228787,0.08544838,1.756921,-0.03136094,-0.4046615,1.727079,-0.157252,-0.1742053,1.764795,0.2553533,-0.1600414,1.724055,NA,NA,NotTracked,NotTracked,
0.8945313,0.3032227,0.184082,0.9370117,-0.2456055,0.1196289,-2,0,0,-2,-1,1,2,-1,-1,-1,-1,-2,-1,2,0,-1,19.5625,19.5625,19.5625,1.8125,1.8125,1.8125,6.524406,3.105676,8.575665,3.341428,3.004072,6.458119,-0.1297731,-0.473677,1.677376,0.2559185,-0.4659224,1.592315,0.04110196,0.3511681,1.74172,-0.1744394,-0.490017,1.691,0.1975981,-0.4474572,1.616667,0.04819001,-0.0984974,1.762635,0.04827879,-0.4100004,1.751533,-0.1229324,0.08533062,1.757001,-0.03101103,-0.4047828,1.727163,-0.1566751,-0.174466,1.764311,0.2546278,-0.1601845,1.723634,NA,NA,NotTracked,Unknown,
0.8979492,0.2978516,0.1748047,0.9389648,-0.2446289,0.1269531,-1,-1,0,1,0,-2,0,-1,-4,0,-2,0,-2,-2,-1,0,20.0625,20.0625,20.0625,-1.75,-1.75,-1.75,6.524384,3.107781,8.600553,3.362468,3.009631,6.434768,-0.1253489,-0.4790011,1.669644,0.2544996,-0.4663726,1.590601,0.04080988,0.3510009,1.741304,-0.1681533,-0.4896733,1.676175,0.2271496,-0.4589275,1.569585,0.04811776,-0.0985738,1.762661,0.04833184,-0.4100083,1.75156,-0.1229961,0.08517748,1.757084,-0.03096943,-0.4047983,1.727205,-0.1560102,-0.1747653,1.763897,0.2543772,-0.1602491,1.723292,NA,NA,NotTracked,Unknown,
0.890625,0.2988281,0.1811523,0.9384766,-0.2612305,0.1416016,0,-1,1,-1,-1,-1,0,-2,-1,-1,-4,-2,-2,-1,-1,1,16.8125,16.8125,16.8125,-4.625,-4.625,-4.625,6.534417,3.104473,8.611333,3.385428,3.018825,6.405021,-0.122476,-0.4779831,1.665987,0.2521858,-0.4661047,1.591387,0.04048299,0.3507688,1.740928,-0.1657468,-0.4989039,1.674364,0.1941448,-0.4331034,1.610286,0.04806567,-0.09861344,1.762643,0.04848785,-0.4099726,1.751539,-0.1231256,0.08499549,1.757252,-0.03087209,-0.4047999,1.727228,-0.1536335,-0.175397,1.762705,0.2542009,-0.1602715,1.723125,NA,NA,NotTracked,Unknown,
0.8945313,0.2939453,0.1875,0.9316406,-0.2558594,0.1411133,-2,0,-2,-2,1,0,-1,0,-2,-1,0,-2,-7,-3,0,0,12.3125,12.3125,12.3125,3.625,3.625,3.625,6.543185,3.100513,8.609441,3.389424,3.022418,6.40226,-0.1199415,-0.477536,1.662006,0.2517151,-0.4685024,1.593533,0.04007094,0.3505689,1.740411,-0.1655615,-0.5030399,1.670778,0.1918987,-0.4581716,1.606,0.0479908,-0.09865604,1.76266,0.0489408,-0.409887,1.751457,-0.1232476,0.08481078,1.757483,-0.03046025,-0.4048095,1.727214,-0.1521057,-0.1758968,1.761621,0.2533934,-0.1603459,1.722967,NA,NA,NotTracked,Unknown,
0.9047852,0.2919922,0.1787109,0.9321289,-0.2514648,0.1464844,-1,0,0,0,-1,0,0,-1,-2,-2,-1,0,-1,0,-2,-2,-2.1875,-2.1875,-2.1875,3.25,3.25,3.25,6.574666,3.082515,8.579654,3.384515,3.020137,6.409413,-0.1195609,-0.4767543,1.660952,0.2518337,-0.4690405,1.595735,0.03987105,0.3504513,1.739924,-0.1669725,-0.494764,1.672886,0.1938605,-0.4471647,1.613889,0.04799823,-0.09871136,1.762577,0.0494361,-0.409921,1.751251,-0.1233101,0.08467742,1.757425,-0.03002218,-0.4049268,1.72704,-0.1517053,-0.1761244,1.761084,0.2530088,-0.1604376,1.722557,NA,NA,NotTracked,Unknown,
0.909668,0.300293,0.1640625,0.9482422,-0.2456055,0.1513672,0,-1,-1,-1,-1,0,-1,-2,-1,-1,-1,-1,-2,-3,0,-1,-3.6875,-3.6875,-3.6875,1.3125,1.3125,1.3125,6.607671,3.066664,8.541129,3.339164,3.007718,6.460764,-0.1198878,-0.477393,1.662025,0.25403,-0.4708249,1.598495,0.03957107,0.3503695,1.739412,-0.1669391,-0.4918058,1.67156,0.1918207,-0.4747844,1.605667,0.04796438,-0.09873882,1.762532,0.04951781,-0.4099208,1.751218,-0.1233823,0.08455508,1.757424,-0.02995319,-0.4049142,1.727018,-0.1511609,-0.1763806,1.760319,0.2527667,-0.1604545,1.722443,NA,NA,NotTracked,Unknown,
0.9350586,0.2910156,0.1572266,0.9541016,-0.246582,0.1411133,-2,-1,0,-1,0,0,0,1,-2,0,-1,1,0,0,-1,-1,-7.9375,-7.9375,-7.9375,3.5,3.5,3.5,6.642582,3.050589,8.495667,3.294273,2.995758,6.51164,-0.1209039,-0.4787051,1.664998,0.2551169,-0.4715638,1.604228,0.03946493,0.3504132,1.739182,-0.1681878,-0.4938912,1.671609,0.1941766,-0.4572003,1.6119,0.04794427,-0.09875957,1.762532,0.04958592,-0.4099199,1.751248,-0.1234179,0.08449801,1.757423,-0.02987278,-0.4049284,1.72706,-0.1512157,-0.1764534,1.760097,0.2526912,-0.1604685,1.722385,NA,NA,NotTracked,Unknown,
