ALX,ALY,ALZ,ARX,ARY,ARZ,EMG0L,EMG1L,EMG2L,EMG3L,EMG4L,EMG5L,EMG6L,EMG7L,EMG0R,EMG1R,EMG2R,EMG3R,EMG4R,EMG5R,EMG6R,EMG7R,GLX,GLY,GLZ,GRX,GRY,GRZ,ORL,OPL,OYL,ORR,OPR,OYR,LHNX,LHNY,LHNZ,RHNX,RHNY,RHNZ,HX,HY,HZ,LTX,LTY,LTZ,RTX,RTY,RTZ,SpineMidX,SpineMidY,SpineMidZ,SpineBaseX,SpineBaseY,SpineBaseZ,ShoulderLeftX,ShoulderLeftY,ShoulderLeftZ,ShoulderRightX,ShoulderRightY,ShoulderRightZ,ElbowLeftX,ElbowLeftY,ElbowLeftZ,ElbowRightX,ElbowRightY,ElbowRightZ,Myo_Pose_left,Myo_Pose_Right,Kinect_pose_left,Kinect_pose_right
0.9414063,0.277832,0.1767578,0.9453125,-0.2524414,0.08251953,2,4,-2,-1,-1,0,-1,-2,-1,-1,1,1,15,3,-1,-1,-9.1875,-9.1875,-9.1875,-0.5625,-0.5625,-0.5625,6.68091,3.054043,5.077058,3.030167,2.952448,6.293124,-0.1619255,-0.4737248,1.67609,0.2879146,-0.4624867,1.616689,0.05430773,0.3464848,1.702729,-0.1313319,-0.4807927,1.651695,0.3182335,-0.4690907,1.6056,0.06029256,-0.07363836,1.743717,0.05908349,-0.3587883,1.735885,-0.1087923,0.09960051,1.742454,-0.01900952,-0.3545812,1.713097,-0.1522629,-0.1556007,1.769742,0.2810499,-0.1659288,1.733562,NA,NA,NotTracked,NotTracked,
0.918457,0.3227539,0.2182617,0.9394531,-0.2792969,0.1166992,-2,-3,-2,-1,-1,-1,-1,0,-1,-4,-24,-2,3,1,0,-1,2.0625,2.0625,2.0625,-4.4375,-4.4375,-4.4375,6.615088,3.086204,5.147768,3.02492,2.95596,6.285417,-0.1597815,-0.4818656,1.675078,0.2842954,-0.4594094,1.609391,0.05449465,0.3464307,1.70246,-0.1319826,-0.4749183,1.652543,0.3159643,-0.4596058,1.601333,0.06024139,-0.07361667,1.743693,0.05907037,-0.3587857,1.735903,-0.108871,0.0995809,1.742182,-0.01901826,-0.3545676,1.713097,-0.1523341,-0.1553036,1.769608,0.280835,-0.1651842,1.734947,NA,NA,NotTracked,NotTracked,
0.8793945,0.2993164,0.230957,0.9628906,-0.2441406,0.09179688,-2,-3,0,-1,0,0,-1,0,0,0,-6,-3,2,-2,-1,1,-7,-7,-7,3.9375,3.9375,3.9375,6.54026,3.124096,5.216456,3.024867,2.955597,6.292284,-0.1607924,-0.4787432,1.672776,0.2805856,-0.4550293,1.601689,0.05490014,0.3463425,1.701898,-0.1290075,-0.4895219,1.644565,0.3110873,-0.4599984,1.593471,0.06026617,-0.07362685,1.743601,0.05908923,-0.3588002,1.735891,-0.1088369,0.09948605,1.741617,-0.01897514,-0.3545678,1.713028,-0.1524511,-0.1553178,1.769252,0.2804639,-0.1638452,1.736358,NA,NA,NotTracked,NotTracked,
0.8823242,0.3217773,0.2387695,0.9633789,-0.2597656,0.1088867,1,0,-1,-1,-2,-1,-2,0,-1,-1,0,-1,-3,-1,-1,-3,4.75,4.75,4.75,-6.5,-6.5,-6.5,6.497776,3.151561,5.266186,3.01878,2.955025,6.290674,-0.1607781,-0.4796471,1.673871,0.2790197,-0.4494682,1.598755,0.05515378,0.3462098,1.701631,-0.130999,-0.4833587,1.649366,0.3080378,-0.4549198,1.585556,0.06037742,-0.07365251,1.743505,0.0592129,-0.3588133,1.735831,-0.1087329,0.09949451,1.741389,-0.0187945,-0.3545417,1.71281,-0.1526034,-0.1544676,1.768717,0.2802875,-0.1623711,1.737656,NA,NA,NotTracked,NotTracked,
0.8901367,0.2880859,0.2089844,0.953125,-0.2563477,0.09814453,-1,-2,-2,-3,-1,-2,-1,2,0,-1,-2,-2,-3,2,-1,-2,-3,-3,-3,3.3125,3.3125,3.3125,6.476408,3.161749,5.285772,3.027932,2.954677,6.282876,-0.1597448,-0.4790299,1.67162,0.2772942,-0.4506637,1.595229,0.05553808,0.3460332,1.701106,-0.1316674,-0.4747673,1.647917,0.3085341,-0.4496483,1.58553,0.06056152,-0.07367919,1.743264,0.05951808,-0.3588331,1.735596,-0.1086544,0.09942561,1.74092,-0.01840664,-0.3545601,1.712346,-0.1526568,-0.153704,1.767754,0.2799409,-0.1607208,1.738201,NA,NA,NotTracked,NotTracked,
0.9370117,0.3232422,0.1953125,0.9575195,-0.2607422,0.08642578,-5,3,5,-1,-4,-1,0,-4,0,-2,3,1,3,-1,-1,-1,-6.375,-6.375,-6.375,2.3125,2.3125,2.3125,6.474449,3.161664,5.285064,3.031263,2.952669,6.282543,-0.1596141,-0.4783421,1.67232,0.2758255,-0.4526317,1.592536,0.05591706,0.3460132,1.700606,-0.1618235,-0.4805325,1.631355,0.3070524,-0.4623605,1.582125,0.06072254,-0.07367948,1.742933,0.05970237,-0.3588627,1.735267,-0.1085681,0.0994324,1.740418,-0.01816082,-0.3545029,1.711855,-0.1526037,-0.1534588,1.767546,0.2798111,-0.159637,1.738419,NA,NA,NotTracked,NotTracked,
1.039063,0.3876953,0.2797852,0.9648438,-0.2661133,0.09082031,-1,-2,-15,-45,-4,-1,0,-2,-1,-2,-4,3,4,0,-2,-2,-29.3125,-29.3125,-29.3125,-2.1875,-2.1875,-2.1875,6.411,3.219126,5.320882,3.03611,2.95146,6.27742,-0.1612681,-0.4682791,1.674461,0.2795048,-0.4238481,1.590913,0.056245,0.3459267,1.700222,-0.1301946,-0.4648273,1.653333,0.3087974,-0.4445097,1.5845,0.06079204,-0.07371669,1.742736,0.05978232,-0.3588932,1.735168,-0.108376,0.09944849,1.740024,-0.01806254,-0.3545111,1.711659,-0.152693,-0.15427,1.767118,0.2797363,-0.157789,1.739985,NA,NA,NotTracked,NotTracked,
1.035645,0.4770508,0.5214844,0.9570313,-0.2607422,0.1035156,-1,0,6,-25,-4,2,4,1,0,-1,-1,-1,0,5,-2,-1,-2.25,-2.25,-2.25,-10.3125,-10.3125,-10.3125,6.293391,3.37528,5.425028,3.037194,2.951111,6.265655,-0.1612193,-0.4669158,1.675507,0.2673807,-0.4004853,1.549042,0.05657182,0.3458854,1.699746,-0.1639919,-0.4530438,1.644522,0.2858368,-0.3943936,1.518,0.06082096,-0.07370385,1.742613,0.05979754,-0.3588471,1.735108,-0.1083684,0.09943612,1.73992,-0.01805982,-0.3544454,1.711494,-0.1525763,-0.1544615,1.767218,0.2790383,-0.1521393,1.745018,NA,NA,NotTracked,Lasso,
0.9389648,0.5961914,0.7124023,0.9389648,-0.2753906,0.1069336,0,5,-13,-9,-5,1,6,-1,-1,1,0,0,-3,1,-1,-1,-3.25,-3.25,-3.25,-5.875,-5.875,-5.875,6.197937,3.674093,5.531601,3.03089,2.95484,6.257529,-0.1617713,-0.4612893,1.676401,0.260797,-0.3273942,1.496829,0.05758748,0.3455142,1.698087,-0.127299,-0.4753724,1.6576,0.2753641,-0.3262582,1.459981,0.06074075,-0.07358783,1.742332,0.05920673,-0.3583066,1.734679,-0.1082097,0.09953893,1.739495,-0.01888469,-0.3537588,1.710719,-0.1525911,-0.1534497,1.76702,0.2766422,-0.1360055,1.754094,NA,NA,NotTracked,Unknown,
0.4165039,0.6855469,0.7373047,0.9316406,-0.2680664,0.09033203,6,-3,17,29,-9,-14,-4,2,-1,1,0,-3,3,-1,-1,-1,-13.0625,-13.0625,-13.0625,-3.5625,-3.5625,-3.5625,6.134714,4.259678,5.624189,3.0292,2.960198,6.25282,-0.157674,-0.4773116,1.672217,0.2501399,-0.2239419,1.439095,0.05894332,0.3444859,1.69685,-0.1288479,-0.4702743,1.652368,0.2694563,-0.2249092,1.418186,0.06061993,-0.07351615,1.742273,0.05827938,-0.3575874,1.734423,-0.1080278,0.09979287,1.739231,-0.02002432,-0.3529986,1.710214,-0.1524238,-0.1519798,1.766914,0.2720819,-0.1153636,1.757604,NA,NA,NotTracked,Unknown,
0.125,0.6303711,0.7910156,0.9492188,-0.2744141,0.09228516,2,7,4,-50,7,2,0,12,-1,-2,-2,-2,-6,-3,-1,-2,12.3125,12.3125,12.3125,0.6875,0.6875,0.6875,6.11864,4.775434,5.683259,3.032367,2.970808,6.242893,-0.1589074,-0.4757354,1.669388,0.2327372,-0.09851732,1.403918,0.06086253,0.3431108,1.695454,-0.1296958,-0.4731479,1.646242,0.2507954,-0.1168842,1.387412,0.06059214,-0.07349914,1.742329,0.05787131,-0.357106,1.734438,-0.1077511,0.1001527,1.739053,-0.02046511,-0.3525862,1.710079,-0.1524145,-0.1518297,1.766953,0.2757539,-0.1094576,1.747494,NA,NA,NotTracked,Unknown,
-0.2373047,0.6855469,0.6396484,0.9663086,-0.253418,0.09814453,4,-5,-31,41,-8,-16,-5,-3,-1,2,-2,-1,1,-3,1,-1,22.5,22.5,22.5,-1.25,-1.25,-1.25,6.14742,5.318472,5.756423,3.047168,2.978865,6.228378,-0.1610105,-0.4752802,1.670278,0.2263758,0.03239418,1.424587,0.06333315,0.3417393,1.69444,-0.1306988,-0.4761389,1.644543,0.2478588,0.02210329,1.406154,0.06067482,-0.07356434,1.74318,0.05733577,-0.3564338,1.735009,-0.107302,0.1005698,1.739342,-0.02100454,-0.35212,1.710498,-0.1528996,-0.1505005,1.76744,0.3013143,-0.1583554,1.704659,NA,NA,NotTracked,Unknown,
-0.5595703,0.5703125,0.625,0.9326172,-0.2734375,0.1220703,-18,-4,-10,5,-1,-10,2,2,-2,-1,-2,0,-4,0,-1,-1,44.5625,44.5625,44.5625,-3.9375,-3.9375,-3.9375,6.287189,5.983054,5.927606,3.057512,2.982859,6.210734,-0.1621691,-0.4692113,1.669693,0.2148959,0.1423324,1.460992,0.06575344,0.339903,1.692918,-0.1318115,-0.477336,1.642335,0.1962314,0.1430418,1.41795,0.06066534,-0.07385631,1.743841,0.05696652,-0.3564716,1.735595,-0.1068302,0.1009383,1.739943,-0.02163576,-0.352183,1.711006,-0.1529234,-0.1506132,1.767523,0.3078346,-0.1367663,1.664786,NA,NA,NotTracked,Unknown,
-0.6337891,0.487793,0.4716797,0.9506836,-0.2768555,0.09375,-10,11,6,-19,5,3,5,-3,0,0,-2,-1,2,2,-1,-1,42.625,42.625,42.625,9,9,9,6.491621,6.375387,6.139358,3.071422,2.985784,6.20243,-0.1623259,-0.4691443,1.671498,0.1981097,0.2206784,1.500073,0.06741536,0.3384042,1.69217,-0.1333137,-0.4671468,1.646232,0.2189942,0.2065575,1.455143,0.0612438,-0.07293275,1.744078,0.05705648,-0.3538367,1.736369,-0.1042618,0.1014876,1.741106,-0.02266714,-0.349399,1.711635,-0.1530697,-0.1497015,1.768097,0.3057901,-0.07759141,1.595631,NA,NA,NotTracked,Unknown,
-0.6303711,0.4824219,0.2890625,0.9296875,-0.2900391,0.1337891,-14,-27,-6,13,-8,-4,-7,-7,-2,-1,-1,-1,0,3,0,-1,28,28,28,-1.6875,-1.6875,-1.6875,6.941798,6.706441,6.570711,3.088435,2.991416,6.190332,-0.1626919,-0.4680745,1.670411,0.1907521,0.2556165,1.535744,0.06923503,0.3362915,1.691356,-0.1356769,-0.4611123,1.645679,0.2083809,0.2520591,1.486896,0.06338032,-0.07176149,1.744758,0.05634521,-0.3518279,1.736289,-0.09970058,0.102214,1.741907,-0.02471496,-0.3463714,1.711154,-0.1536552,-0.1483718,1.768624,0.3109015,-0.06187698,1.572657,NA,NA,NotTracked,Unknown,
-0.7167969,0.4033203,0.2456055,1.005371,-0.2866211,0.140625,4,7,-13,-1,-1,-8,2,7,-4,-1,8,1,4,3,-8,-6,25.625,25.625,25.625,5.875,5.875,5.875,7.196661,6.793939,6.826873,3.147788,3.009199,6.140553,-0.1645611,-0.4637189,1.67257,0.1587876,0.3084783,1.576411,0.07158811,0.3347388,1.691254,-0.1385723,-0.453177,1.647875,0.1851959,0.3145419,1.533067,0.06520855,-0.07025486,1.745845,0.05590453,-0.3504648,1.73657,-0.09623098,0.1033811,1.742739,-0.02561023,-0.3446686,1.711302,-0.1540523,-0.1474762,1.769577,0.31767,-0.04188673,1.553949,NA,NA,NotTracked,Unknown,
-0.7246094,0.3994141,0.1450195,1.006348,-0.4047852,0.1713867,-4,6,16,-2,8,4,-6,10,2,0,-1,1,-1,5,-54,-14,3.375,3.375,3.375,4.375,4.375,4.375,7.497058,6.845284,7.138022,3.265295,3.050847,6.022835,-0.1636183,-0.4638346,1.667414,0.1584447,0.3049574,1.585225,0.07317305,0.3337744,1.691153,-0.1352745,-0.4601883,1.644845,0.1182591,0.2722825,1.615489,0.06669821,-0.06940563,1.746974,0.05507973,-0.3490341,1.736856,-0.09509382,0.1037071,1.743512,-0.02693623,-0.3428922,1.711427,-0.154489,-0.1466855,1.770504,0.3219522,0.003946057,1.521971,NA,NA,NotTracked,Unknown,
-0.7456055,0.4125977,-0.02148438,1.171387,-0.2915039,0.3139648,7,-26,-21,-22,-21,20,-4,36,-2,-3,-10,-14,-2,-5,-1,4,-20.0625,-20.0625,-20.0625,39.25,39.25,39.25,7.751318,6.857051,7.425824,3.551236,3.186232,5.789097,-0.1621942,-0.453222,1.650364,0.1667936,0.2936333,1.588949,0.0744119,0.3327206,1.690723,-0.1335957,-0.4441625,1.627822,0.1339822,0.2527464,1.6235,0.06711846,-0.06887753,1.747284,0.05419806,-0.3480704,1.737014,-0.09476064,0.1039026,1.743815,-0.02810723,-0.3415221,1.711312,-0.1549687,-0.1462088,1.772284,0.3220832,0.004341646,1.521419,NA,NA,NotTracked,Unknown,
-0.815918,0.3588867,-0.109375,1.009766,-0.5488281,0.6914063,-3,13,31,3,7,-2,6,7,0,3,15,-20,-5,-15,-31,3,-24.375,-24.375,-24.375,-18.125,-18.125,-18.125,7.745856,6.864127,7.433618,3.698585,3.461625,5.595719,-0.1626888,-0.3982602,1.617775,0.1635687,0.3055114,1.59282,0.0750863,0.3322221,1.69091,-0.1324649,-0.3936145,1.593815,0.1216522,0.2697506,1.620018,0.06684724,-0.06846377,1.747265,0.05401105,-0.347294,1.736945,-0.09384125,0.1046502,1.743919,-0.02837355,-0.3407461,1.711128,-0.1560135,-0.1343682,1.781464,0.3224388,0.005198102,1.520879,NA,NA,NotTracked,Unknown,
-0.8066406,0.3300781,0.04541016,0.6831055,-0.5527344,0.7324219,-31,13,-13,6,29,-14,-1,10,2,2,83,-1,-16,-8,-15,-16,-29,-29,-29,-23.375,-23.375,-23.375,7.557025,6.842917,7.230823,3.828522,3.996951,5.427785,-0.1552543,-0.3194585,1.569184,0.1773582,0.2973966,1.594103,0.07506917,0.3320317,1.691707,-0.1297503,-0.3211289,1.538241,0.1289657,0.2728698,1.624773,0.06694451,-0.06788781,1.747107,0.05435015,-0.3461507,1.736748,-0.09245914,0.1058493,1.744724,-0.02816172,-0.3397472,1.710826,-0.154469,-0.1245294,1.78796,0.3274194,-0.03417295,1.551619,NA,NA,Unknown,Unknown,
-0.6831055,0.3969727,0.1430664,0.2958984,-0.6040039,0.5830078,21,-2,0,-25,-1,-6,-3,17,6,-4,4,-17,-8,4,-9,-4,-21.875,-21.875,-21.875,6.4375,6.4375,6.4375,7.27187,6.759758,6.976536,3.850297,4.464295,5.328713,-0.1512821,-0.2262206,1.491746,0.1851977,0.2817445,1.582335,0.07416944,0.3320862,1.692402,-0.114356,-0.223727,1.46395,0.1296789,0.2717858,1.623722,0.06764769,-0.06741504,1.747266,0.05599837,-0.3446389,1.735888,-0.09231993,0.1064661,1.74541,-0.02684466,-0.33863,1.709772,-0.1509112,-0.1070701,1.790343,0.3255719,-0.04494946,1.560816,NA,NA,Unknown,Closed,
-0.7060547,0.4267578,0.2207031,0.06640625,-0.434082,0.5141602,-15,-5,5,10,-21,51,-9,41,18,-11,8,13,10,41,38,-2,-51.8125,-51.8125,-51.8125,-48.25,-48.25,-48.25,7.076733,6.659761,6.81775,3.835988,4.880362,5.219522,-0.1394731,-0.1140972,1.459114,0.1977774,0.2333,1.554605,0.0695607,0.3337262,1.693671,-0.1079304,-0.1122937,1.449243,0.1671591,0.223134,1.589652,0.06739102,-0.06697923,1.746806,0.05674177,-0.3437423,1.735471,-0.09348938,0.1068939,1.746475,-0.02625865,-0.3380379,1.709377,-0.1769918,-0.09944252,1.786642,0.319881,-0.06482873,1.580447,NA,NA,Unknown,Unknown,
-0.6162109,0.5356445,0.3266602,-0.0546875,-0.3901367,0.4814453,2,3,8,10,6,-27,-3,5,-8,-1,1,6,-5,-77,-21,-6,-48.625,-48.625,-48.625,-21,-21,-21,6.709053,6.360145,6.4821,3.784307,5.16849,5.110117,-0.123012,-0.04930277,1.491923,0.2028144,0.1775272,1.523191,0.06581836,0.3354901,1.695677,-0.08037455,-0.04699775,1.460688,0.1868098,0.1923636,1.57,0.06601658,-0.0669327,1.746068,0.05688154,-0.3435715,1.735341,-0.09747128,0.1085528,1.747855,-0.02599657,-0.3380634,1.709385,-0.1401652,-0.1411767,1.70077,0.3064786,-0.08959794,1.612271,NA,NA,Unknown,Unknown,
-0.6933594,0.5512695,0.4052734,-0.2587891,-0.4287109,0.4174805,-59,-31,7,6,13,-57,27,20,25,-7,-7,-1,-14,-30,-36,-11,-49.625,-49.625,-49.625,-16.125,-16.125,-16.125,6.471447,6.029932,6.305037,3.725873,5.246506,5.010172,-0.109657,-0.02810303,1.482176,0.2026624,0.102777,1.488438,0.06257354,0.3366302,1.697731,-0.06775816,-0.03161304,1.446125,0.1709736,0.1092804,1.500774,0.06382362,-0.06873216,1.746008,0.05655516,-0.3465802,1.734574,-0.1017819,0.1105662,1.74777,-0.02521034,-0.3410755,1.708654,-0.1448874,-0.131393,1.700154,0.3011,-0.108091,1.620159,NA,NA,Closed,Open,
-0.6186523,0.6679688,0.4643555,-0.4648438,-0.5092773,0.2202148,89,19,-15,-3,-1,14,23,38,-7,4,6,-23,-40,-27,32,-2,-76.4375,-76.4375,-76.4375,-23.8125,-23.8125,-23.8125,6.314103,5.632844,6.193332,3.692584,4.90635,5.015148,-0.1058335,-0.06911479,1.454256,0.2019233,-0.002092271,1.455362,0.06095012,0.3383326,1.701199,-0.06602525,-0.07652555,1.419143,0.1536497,0.005492373,1.50475,0.063401,-0.06921937,1.746275,0.05719346,-0.3474398,1.734026,-0.1035629,0.1112481,1.747228,-0.02342014,-0.3425916,1.707549,-0.1566803,-0.1102431,1.698042,0.2816237,-0.1076176,1.654045,NA,NA,Closed,Unknown,
-0.7299805,0.703125,0.2045898,2.008789,-0.9360352,1.146484,85,-2,2,-97,-32,-19,-33,21,61,3,38,-26,1,1,-14,22,33.8125,33.8125,33.8125,9.125,9.125,9.125,6.309458,5.167418,6.077682,3.654408,4.582255,5.092904,-0.1118383,-0.1606636,1.401514,0.2107282,-0.1269061,1.408175,0.06011662,0.3401072,1.705846,-0.07585955,-0.1779405,1.378619,0.1646703,-0.1265194,1.393778,0.06320364,-0.06958061,1.746421,0.05814717,-0.3487943,1.73274,-0.1053961,0.1092082,1.746613,-0.0218886,-0.3444609,1.706151,-0.1681417,-0.1140055,1.713101,0.3119806,-0.10298,1.708962,NA,NA,Unknown,Unknown,
1.322266,1.247559,1.333008,0.4926758,-0.8720703,0.7592773,-31,26,-9,127,-26,-10,-36,22,29,-5,6,-9,-21,-12,-17,26,52.75,52.75,52.75,41.6875,41.6875,41.6875,6.264467,4.515915,5.952457,3.731508,4.467499,5.070209,-0.1179067,-0.2034975,1.395434,0.2099728,-0.1911471,1.39928,0.06010621,0.341476,1.711072,-0.07953426,-0.2244021,1.376219,0.1706957,-0.1991612,1.394394,0.06295481,-0.07009107,1.746499,0.05887829,-0.3509722,1.73072,-0.1079307,0.105799,1.744973,-0.02056152,-0.3470393,1.703652,-0.1652068,-0.1216133,1.710186,0.3040242,-0.1133139,1.700492,NA,NA,Unknown,Unknown,
0.1962891,0.6108398,0.5620117,0.1064453,-0.5776367,0.5380859,-17,-7,-1,-11,4,-29,-18,36,-9,0,35,-7,15,30,28,-3,-19.4375,-19.4375,-19.4375,6.0625,6.0625,6.0625,6.226156,4.452634,5.961446,3.747576,4.455498,5.041264,-0.1130474,-0.2073408,1.404885,0.2100373,-0.2003437,1.400768,0.06031904,0.3426763,1.712585,-0.07622819,-0.228331,1.382167,0.1663813,-0.2123141,1.399125,0.06274344,-0.07015943,1.746171,0.05918851,-0.3514839,1.729557,-0.1088718,0.1051995,1.743355,-0.01994528,-0.3477799,1.7024,-0.165707,-0.1220861,1.709604,0.3017863,-0.1212896,1.694382,NA,NA,Unknown,Unknown,
0.2192383,0.699707,0.6879883,0.3828125,-0.6347656,0.7485352,29,25,-14,-9,-2,14,1,3,-2,-12,-2,-9,6,-16,1,5,-4,-4,-4,6.9375,6.9375,6.9375,6.227423,4.470974,5.962726,3.729102,4.432508,5.050435,-0.1157418,-0.2125854,1.409514,0.2102427,-0.1985377,1.403924,0.06048207,0.3436012,1.712828,-0.07813262,-0.2324361,1.392536,0.1670004,-0.2057329,1.399594,0.06255947,-0.07018282,1.745333,0.0593826,-0.351894,1.72842,-0.1093789,0.1048293,1.741961,-0.01954383,-0.3482074,1.701327,-0.1663173,-0.1223193,1.71079,0.3025657,-0.1219237,1.697442,NA,NA,Unknown,Unknown,
0.3139648,0.6772461,0.7255859,0.4487305,-0.640625,0.7197266,-17,-3,-12,11,11,19,-11,2,10,12,31,-1,-14,-7,1,-2,-3.4375,-3.4375,-3.4375,-3.25,-3.25,-3.25,6.225064,4.491352,5.968372,3.734191,4.414161,5.056149,-0.1198191,-0.218698,1.409134,0.2097587,-0.1972203,1.400122,0.0604554,0.3439592,1.712785,-0.08185873,-0.2369426,1.395516,0.1665529,-0.2047273,1.398902,0.06247429,-0.07031741,1.744206,0.05951982,-0.3523859,1.726963,-0.1098365,0.1040966,1.740979,-0.01926337,-0.3487117,1.700164,-0.1665668,-0.1232334,1.712449,0.3020661,-0.1228027,1.697457,NA,NA,Unknown,Unknown,
0.309082,0.6547852,0.6391602,0.387207,-0.5322266,0.6235352,-20,16,21,19,-1,6,-3,-12,-14,2,-23,-2,7,11,4,-1,3.5625,3.5625,3.5625,6.0625,6.0625,6.0625,6.227873,4.491508,5.967668,3.744257,4.394245,5.069231,-0.1234713,-0.2203128,1.408551,0.2106177,-0.1967372,1.396101,0.06047683,0.3449251,1.712547,-0.08309706,-0.238984,1.395436,0.1670637,-0.2037627,1.398776,0.06239469,-0.07037425,1.742682,0.05979683,-0.352679,1.725391,-0.1100107,0.103418,1.740045,-0.0189938,-0.3489781,1.699251,-0.1660817,-0.1291109,1.712897,0.3001301,-0.1260115,1.686632,NA,NA,Unknown,Unknown,
0.3422852,0.59375,0.6201172,0.3818359,-0.5292969,0.4951172,-1,-2,1,-10,-3,-4,-1,-7,-10,9,19,-5,-29,2,17,-8,18.75,18.75,18.75,22.0625,22.0625,22.0625,6.259076,4.443503,5.947805,3.741566,4.317843,5.112744,-0.127648,-0.2306558,1.41108,0.2179108,-0.2098117,1.387872,0.06034224,0.3455896,1.712425,-0.08744007,-0.2475826,1.401633,0.177086,-0.2110362,1.405655,0.06237374,-0.07027962,1.741568,0.05992128,-0.3527964,1.724309,-0.1101981,0.1031984,1.73961,-0.01881697,-0.3490878,1.698607,-0.1650296,-0.1289867,1.717184,0.3000481,-0.1265689,1.688263,NA,NA,Unknown,Unknown,
0.3754883,0.6606445,0.5693359,0.4887695,-0.4887695,0.5375977,-9,14,-6,5,-2,1,0,-1,-1,-5,1,1,-5,-11,-4,-2,-26.5625,-26.5625,-26.5625,-12.3125,-12.3125,-12.3125,6.266841,4.338243,5.927494,3.712266,4.187954,5.168704,-0.1305048,-0.2576631,1.423269,0.2174722,-0.2445166,1.39687,0.06003175,0.3462429,1.711999,-0.08888227,-0.2685554,1.416129,0.1745113,-0.2445576,1.410368,0.06238678,-0.07021332,1.739472,0.06002042,-0.3528745,1.722492,-0.1102852,0.1028605,1.739138,-0.01867438,-0.349141,1.697405,-0.1641716,-0.1286829,1.722993,0.2993047,-0.1323527,1.684381,NA,NA,Unknown,Unknown,
0.4375,0.5283203,0.5395508,0.6640625,-0.534668,0.5654297,-6,-2,0,2,1,1,-2,7,0,0,-8,-5,-25,-6,-27,0,-13.9375,-13.9375,-13.9375,14.125,14.125,14.125,6.232243,4.184581,5.910336,3.675981,3.946294,5.234657,-0.1287672,-0.3012715,1.443609,0.2193918,-0.2933426,1.41835,0.05967334,0.3469214,1.711281,-0.0919361,-0.2991754,1.438489,0.1811073,-0.2826612,1.427281,0.06203055,-0.06986733,1.736123,0.0595079,-0.3530133,1.718742,-0.1102689,0.102409,1.73793,-0.01915671,-0.3491795,1.694337,-0.1609582,-0.1219346,1.72915,0.2842535,-0.1166876,1.703064,NA,NA,Unknown,Unknown,
0.5361328,0.5683594,0.5717773,0.6523438,-0.5131836,0.4682617,-1,2,2,-2,0,-1,-3,-1,1,1,7,-1,-3,-2,4,3,6.5625,6.5625,6.5625,11.4375,11.4375,11.4375,6.251681,3.998366,5.882515,3.675466,3.724374,5.279851,-0.1316898,-0.3473774,1.481453,0.2288278,-0.3407988,1.45273,0.05919042,0.3476992,1.710693,-0.09274972,-0.341948,1.475588,0.191012,-0.3318481,1.452222,0.06197151,-0.06978653,1.733655,0.05989554,-0.3536143,1.716587,-0.1103253,0.1019439,1.736407,-0.01871045,-0.3497227,1.692107,-0.1582938,-0.1262903,1.731173,0.2833976,-0.1204969,1.705557,NA,NA,Unknown,Unknown,
0.7871094,0.4819336,0.4731445,0.7558594,-0.5175781,0.418457,1,7,2,-5,-1,0,4,1,-3,0,20,-3,1,-2,-6,-4,-40.3125,-40.3125,-40.3125,52.25,52.25,52.25,6.279306,3.633317,5.771449,3.644309,3.495704,5.398877,-0.1370152,-0.3838342,1.528913,0.2428563,-0.3797434,1.487857,0.05868476,0.3486242,1.709958,-0.1015064,-0.3834939,1.505774,0.2024198,-0.3791974,1.47975,0.06245724,-0.06986266,1.731353,0.06099956,-0.3544387,1.715086,-0.1102225,0.101611,1.733963,-0.01741314,-0.3503049,1.690663,-0.1562736,-0.1359852,1.732508,0.2825906,-0.1313228,1.70664,NA,NA,Unknown,Unknown,
0.7807617,0.4887695,0.440918,0.9326172,-0.3525391,0.355957,-1,0,0,0,1,0,1,0,-2,-2,0,-5,-23,-6,-2,1,-16.4375,-16.4375,-16.4375,38.375,38.375,38.375,6.339893,3.396203,5.648594,3.530843,3.264437,5.623282,-0.1447936,-0.4221443,1.566864,0.259259,-0.4221437,1.523628,0.0583676,0.3494213,1.709042,-0.1022461,-0.4266896,1.561273,0.2188212,-0.4219672,1.52419,0.06263201,-0.07018046,1.729644,0.06148388,-0.3555897,1.714105,-0.1101795,0.101426,1.731852,-0.01668117,-0.3512963,1.689638,-0.1548054,-0.1421252,1.733333,0.2824555,-0.1404647,1.70656,NA,NA,Unknown,Unknown,
0.9741211,0.3808594,0.2587891,1.060059,-0.2753906,0.1669922,0,-1,0,10,0,-1,-1,-2,-3,-2,-9,-1,-8,-6,-1,-3,-56.1875,-56.1875,-56.1875,35.9375,35.9375,35.9375,6.463184,3.159528,5.424164,3.0814,3.009968,6.20656,-0.1565352,-0.4566575,1.60906,0.2784417,-0.4606959,1.560612,0.05812363,0.3499537,1.708179,-0.123943,-0.4634469,1.583372,0.2408316,-0.4655973,1.54548,0.0626278,-0.0704731,1.728488,0.06140686,-0.3564462,1.713537,-0.1103212,0.1013287,1.730998,-0.01659654,-0.3519727,1.68924,-0.1539689,-0.1526171,1.733183,0.2817105,-0.1523218,1.702384,NA,NA,Unknown,Unknown,
1.071289,0.3178711,0.06787109,1.136719,-0.3203125,-0.01953125,0,-3,-2,4,-1,0,0,-2,0,0,9,-1,-5,8,7,4,-10.1875,-10.1875,-10.1875,36,36,36,6.788301,2.98038,5.03956,2.545326,2.929152,6.823363,-0.1685188,-0.4893895,1.644022,0.2941189,-0.4870819,1.597417,0.05778546,0.3504086,1.707132,-0.131743,-0.4984166,1.62275,0.2592098,-0.504661,1.574044,0.06237524,-0.07058951,1.727663,0.06093131,-0.3568338,1.713261,-0.1103339,0.1012235,1.73028,-0.01689894,-0.3522806,1.689117,-0.1515415,-0.16169,1.731994,0.2802321,-0.1582246,1.698207,NA,NA,NotTracked,NotTracked,
1.083008,0.203125,-0.03710938,1.037598,-0.2475586,-0.08837891,0,-1,-1,-5,-1,-1,-1,-1,-2,-6,-51,-1,6,-1,-18,-4,-35.125,-35.125,-35.125,40.5,40.5,40.5,7.269237,2.872681,4.453734,2.311741,2.907939,7.139666,-0.1767198,-0.4940397,1.670879,0.3050734,-0.4928067,1.620711,0.05740291,0.3508604,1.704996,-0.1429891,-0.5001468,1.646667,0.2709612,-0.4991801,1.605379,0.06164077,-0.0707131,1.72644,0.05958663,-0.3572718,1.712874,-0.1105426,0.1011277,1.729573,-0.01808634,-0.3526132,1.689112,-0.1494648,-0.1649123,1.732519,0.2798536,-0.1611132,1.696459,NA,NA,NotTracked,NotTracked,
0.9790039,0.2558594,0.04638672,0.9741211,-0.3251953,0.1318359,0,-1,-1,-5,1,-1,-2,-1,-2,-2,2,1,-3,-1,-2,-2,-4,-4,-4,-32.9375,-32.9375,-32.9375,7.377608,2.862417,4.330186,2.409992,2.897526,7.000416,-0.1755133,-0.494121,1.678955,0.3082392,-0.491373,1.628525,0.05705735,0.3513224,1.703169,-0.1406092,-0.5080054,1.651126,0.2752125,-0.4963094,1.61325,0.06078387,-0.07070269,1.725852,0.05796631,-0.3575281,1.713324,-0.1105974,0.1011167,1.729294,-0.01980281,-0.3528794,1.690131,-0.1483202,-0.1653918,1.73608,0.2808114,-0.1644362,1.697097,NA,NA,NotTracked,NotTracked,
0.9311523,0.2617188,0.15625,0.9526367,-0.293457,0.1586914,-1,-1,-1,-2,0,-1,-2,0,-1,-3,3,-1,-2,11,15,1,-3.3125,-3.3125,-3.3125,-2.3125,-2.3125,-2.3125,7.216185,2.886434,4.486115,2.675185,2.920546,6.711808,-0.1716351,-0.4904159,1.676627,0.3071394,-0.4872309,1.622866,0.0566075,0.3515729,1.700664,-0.1372672,-0.5097244,1.646677,0.2718793,-0.4999288,1.60558,0.06015909,-0.07075137,1.725022,0.05733626,-0.3577169,1.713392,-0.1069259,0.1029653,1.731825,-0.02039691,-0.3530618,1.690395,-0.1482911,-0.1666074,1.741583,0.2818658,-0.1656442,1.698908,NA,NA,NotTracked,NotTracked,
0.9169922,0.2998047,0.1635742,0.9326172,-0.2441406,0.06982422,-1,0,-3,-1,-1,-2,0,0,1,-1,-10,0,3,-4,-5,-3,-6.5,-6.5,-6.5,-9.1875,-9.1875,-9.1875,7.016596,2.930182,4.683771,2.863013,2.943399,6.50806,-0.1671418,-0.485531,1.669007,0.3042006,-0.4789455,1.608791,0.05625708,0.3514383,1.697686,-0.1319823,-0.5024001,1.6365,0.2690471,-0.5082653,1.587714,0.05997839,-0.07082821,1.724573,0.05706485,-0.3578269,1.713647,-0.1064115,0.1027851,1.730961,-0.02069895,-0.3531832,1.690812,-0.1485509,-0.1665374,1.744843,0.2825325,-0.1648203,1.702159,NA,NA,NotTracked,NotTracked,
0.9038086,0.2641602,0.1655273,0.9594727,-0.2827148,0.09570313,-2,0,1,-1,-1,0,-1,-1,-2,-2,-11,-3,1,1,0,0,-11.5625,-11.5625,-11.5625,-15.3125,-15.3125,-15.3125,6.779974,2.996898,4.890508,3.026489,2.976079,6.2974,-0.1640578,-0.4811467,1.659176,0.3003888,-0.4703975,1.596631,0.05579854,0.3511751,1.695666,-0.131057,-0.4952247,1.627087,0.3278488,-0.4752051,1.583583,0.05985411,-0.07092419,1.724325,0.05685626,-0.3580249,1.714104,-0.1077071,0.1018918,1.728529,-0.02093284,-0.3534088,1.691307,-0.1491617,-0.1653521,1.745828,0.282757,-0.1643665,1.704337,NA,NA,NotTracked,NotTracked,
0.8999023,0.2856445,0.1464844,0.9365234,-0.2338867,0.08691406,1,0,-2,-1,-1,-1,0,-1,-1,-1,-7,-2,-2,-1,1,-2,0.375,0.375,0.375,-0.25,-0.25,-0.25,6.68026,3.039465,4.992069,3.150209,2.999889,6.165599,-0.1586062,-0.4819706,1.649326,0.2940051,-0.4736057,1.586962,0.0556292,0.3511683,1.693946,-0.1280912,-0.4764163,1.625946,0.3293285,-0.4699459,1.586375,0.05977185,-0.07100569,1.724247,0.05668292,-0.3582014,1.715021,-0.108504,0.1014403,1.727304,-0.02115198,-0.3535641,1.692212,-0.1499097,-0.1636195,1.746475,0.2826792,-0.1646982,1.70538,NA,NA,NotTracked,NotTracked,
