ALX,ALY,ALZ,ARX,ARY,ARZ,EMG0L,EMG1L,EMG2L,EMG3L,EMG4L,EMG5L,EMG6L,EMG7L,EMG0R,EMG1R,EMG2R,EMG3R,EMG4R,EMG5R,EMG6R,EMG7R,GLX,GLY,GLZ,GRX,GRY,GRZ,ORL,OPL,OYL,ORR,OPR,OYR,LHNX,LHNY,LHNZ,RHNX,RHNY,RHNZ,HX,HY,HZ,LTX,LTY,LTZ,RTX,RTY,RTZ,SpineMidX,SpineMidY,SpineMidZ,SpineBaseX,SpineBaseY,SpineBaseZ,ShoulderLeftX,ShoulderLeftY,ShoulderLeftZ,ShoulderRightX,ShoulderRightY,ShoulderRightZ,ElbowLeftX,ElbowLeftY,ElbowLeftZ,ElbowRightX,ElbowRightY,ElbowRightZ,Myo_Pose_left,Myo_Pose_Right,Kinect_pose_left,Kinect_pose_right
0.9233398,0.2607422,0.1459961,0.9560547,-0.2265625,0.1005859,0,-2,-1,1,-1,-1,1,-1,0,0,-1,-4,-3,-2,-1,1,-0.125,-0.125,-0.125,0.375,0.375,0.375,6.726399,3.000825,3.342181,3.111606,2.911506,6.060743,-0.141941,-0.4769244,1.681141,0.2789237,-0.4729618,1.616299,0.04965176,0.3450763,1.691462,-0.1766578,-0.4773881,1.6795,0.2482286,-0.4717639,1.595801,0.05499367,-0.07417632,1.737897,0.05267893,-0.3592584,1.730507,-0.1111659,0.09752537,1.737633,-0.02504592,-0.354709,1.70883,-0.1497179,-0.1582385,1.761789,0.2704204,-0.1602467,1.72409,NA,NA,NotTracked,NotTracked,
0.9257813,0.277832,0.1489258,0.9609375,-0.2353516,0.1137695,-1,-2,-1,0,-1,-1,-1,1,-2,-2,-1,-2,-6,0,-2,-1,-0.9375,-0.9375,-0.9375,-2.3125,-2.3125,-2.3125,6.727708,3.000133,3.340315,3.107516,2.909796,6.061678,-0.1577215,-0.4482551,1.692842,0.2789633,-0.4733291,1.617518,0.04965384,0.3450747,1.691446,-0.1796657,-0.4678048,1.694,0.2481049,-0.4723869,1.596476,0.05499087,-0.07418964,1.73794,0.05265725,-0.3592525,1.730663,-0.1114387,0.09763373,1.737772,-0.02506997,-0.3546897,1.708991,-0.1496928,-0.1580668,1.761861,0.2702996,-0.159932,1.724453,NA,NA,NotTracked,NotTracked,
0.9238281,0.2631836,0.1386719,0.9633789,-0.2280273,0.09277344,-5,1,-3,-3,1,-1,-2,-2,0,-2,-1,-1,-7,-1,-2,0,0.4375,0.4375,0.4375,2.25,2.25,2.25,6.728723,2.997273,3.334841,3.10447,2.907968,6.068273,-0.1574061,-0.4493606,1.694611,0.2792224,-0.4736858,1.618,0.0496862,0.3450624,1.691414,-0.1787868,-0.470732,1.690309,0.2488979,-0.471571,1.595682,0.0549657,-0.07421213,1.738107,0.05262079,-0.3592749,1.730847,-0.1116308,0.09750742,1.737948,-0.02511889,-0.3546963,1.709142,-0.1495791,-0.1578325,1.76224,0.270236,-0.1598105,1.72477,NA,NA,NotTracked,NotTracked,
0.9345703,0.2612305,0.1484375,0.9487305,-0.2333984,0.1083984,4,1,3,-3,0,-1,-1,1,-3,0,-3,-2,-7,-2,-2,-1,-1.9375,-1.9375,-1.9375,0.875,0.875,0.875,6.726529,2.997988,3.335222,3.098871,2.907614,6.072051,-0.1576002,-0.4489686,1.693961,0.2796201,-0.4732407,1.618074,0.04969892,0.3450357,1.691329,-0.179119,-0.4763744,1.687572,0.2488368,-0.4690763,1.598691,0.05495359,-0.07420719,1.738189,0.05262027,-0.3592197,1.730993,-0.1118153,0.0974591,1.73798,-0.02511786,-0.3546273,1.709246,-0.1493861,-0.1572624,1.762573,0.270238,-0.160961,1.725097,NA,NA,NotTracked,NotTracked,
0.9306641,0.2641602,0.1469727,0.9643555,-0.2319336,0.1030273,-2,0,0,-1,0,-1,0,-1,-2,-1,-3,0,1,-2,-2,-1,-1.125,-1.125,-1.125,-1.875,-1.875,-1.875,6.721109,2.99962,3.337314,3.094574,2.90712,6.076062,-0.1564043,-0.4487718,1.696332,0.2796245,-0.4724865,1.618315,0.04973705,0.3450224,1.691322,-0.178805,-0.4720656,1.68899,0.2484684,-0.4711131,1.597429,0.05495092,-0.07423013,1.738276,0.05256308,-0.3592578,1.73123,-0.1119974,0.09744133,1.738161,-0.02518632,-0.3546712,1.709471,-0.1494655,-0.1572343,1.763058,0.2701706,-0.1603556,1.725558,NA,NA,NotTracked,NotTracked,
0.9326172,0.2758789,0.1425781,0.9609375,-0.2358398,0.1020508,-17,-4,0,1,-1,-1,0,-4,-1,-1,-1,-1,-3,-1,-1,0,-1.25,-1.25,-1.25,0.6875,0.6875,0.6875,6.718997,3.001234,3.338731,3.09391,2.907238,6.076098,-0.1471164,-0.4759429,1.685017,0.2796715,-0.4725351,1.617768,0.04975649,0.3449842,1.691349,-0.1444808,-0.5132541,1.719667,0.2486589,-0.4676806,1.600282,0.05494599,-0.07422893,1.738494,0.05258843,-0.3592232,1.731454,-0.1122259,0.09748981,1.738487,-0.02513164,-0.3546349,1.709708,-0.1494767,-0.1567703,1.763569,0.2702492,-0.1602148,1.725864,NA,NA,NotTracked,NotTracked,
0.9355469,0.2573242,0.1455078,0.9594727,-0.2368164,0.1049805,4,-5,4,6,-1,0,0,-2,0,-2,-3,0,9,1,-1,-1,-1.0625,-1.0625,-1.0625,-0.375,-0.375,-0.375,6.709422,3.003488,3.344697,3.094362,2.907742,6.072809,-0.1481769,-0.4722956,1.685168,0.2786407,-0.4720379,1.616179,0.04978317,0.3449655,1.691427,-0.1791195,-0.4838097,1.679625,0.2483837,-0.4706423,1.596691,0.05496632,-0.07421476,1.738667,0.05253934,-0.3591502,1.731703,-0.1124198,0.09747981,1.738785,-0.02516849,-0.3545351,1.709941,-0.1496638,-0.1558703,1.76387,0.2703407,-0.1598025,1.726503,NA,NA,NotTracked,NotTracked,
1.04834,0.3354492,0.1586914,0.9633789,-0.2128906,0.09423828,38,17,-17,-34,2,30,1,5,-1,-3,0,-1,-2,-3,-2,0,-21.3125,-21.3125,-21.3125,0.25,0.25,0.25,6.620914,3.03918,3.405009,3.104506,2.907782,6.067703,-0.1404048,-0.4792978,1.682753,0.2752516,-0.4613027,1.603464,0.0498074,0.344964,1.691452,-0.09548651,-0.449863,1.668923,0.2402306,-0.4787151,1.576278,0.05498622,-0.0742342,1.738836,0.05260953,-0.3591475,1.731854,-0.1126279,0.09744578,1.739004,-0.02510328,-0.3545544,1.710071,-0.1496505,-0.1557021,1.764043,0.2705153,-0.1585743,1.728256,NA,NA,NotTracked,NotTracked,
1.129395,0.3564453,0.3837891,0.9672852,-0.2382813,0.1040039,11,4,-2,15,1,2,-4,-17,0,-2,-1,0,-3,-2,-1,0,-41.0625,-41.0625,-41.0625,-5.0625,-5.0625,-5.0625,6.401317,3.175002,3.561864,3.099801,2.907289,6.059768,-0.1411745,-0.4810106,1.683249,0.2682032,-0.4369275,1.556895,0.04987863,0.3448845,1.691569,-0.09910731,-0.477809,1.662167,0.240123,-0.4275405,1.53546,0.05481355,-0.07420348,1.739166,0.05240204,-0.3590372,1.732255,-0.1129172,0.09741998,1.739402,-0.02530221,-0.3544615,1.710329,-0.1497027,-0.1550812,1.764352,0.2704012,-0.1559326,1.732765,NA,NA,NotTracked,NotTracked,
1.086914,0.4111328,0.449707,0.9526367,-0.2329102,0.09228516,-8,-3,14,32,1,-6,-3,12,-2,-1,-2,-1,-2,-2,-1,0,-13.375,-13.375,-13.375,-12.25,-12.25,-12.25,6.335695,3.251979,3.626155,3.086095,2.903923,6.059221,-0.1411284,-0.4781933,1.685198,0.2654424,-0.3604454,1.502299,0.05007625,0.3446987,1.691681,-0.09817597,-0.4644805,1.662658,0.2386588,-0.3445922,1.470333,0.0544926,-0.0741429,1.739604,0.05187396,-0.3586651,1.732786,-0.1130406,0.09746873,1.739588,-0.02578995,-0.3542522,1.710579,-0.1500336,-0.1566634,1.764738,0.2697368,-0.1429981,1.743419,NA,NA,NotTracked,Unknown,
0.6464844,0.6357422,0.7436523,0.9448242,-0.2412109,0.1103516,21,8,35,36,-8,-72,-8,-14,-2,-2,-1,-1,-3,1,-2,-2,10.0625,10.0625,10.0625,-5.5,-5.5,-5.5,6.135166,4.007619,3.905588,3.073971,2.907619,6.056592,-0.1416966,-0.4786208,1.686003,0.2555952,-0.2593324,1.43982,0.05055517,0.3442924,1.691917,-0.09818367,-0.4644431,1.667173,0.2302567,-0.2287983,1.423778,0.05395553,-0.0739932,1.740531,0.05045272,-0.3576202,1.73369,-0.1132388,0.09750648,1.739765,-0.0273705,-0.3531815,1.711143,-0.1505953,-0.1549535,1.765059,0.2659542,-0.1201615,1.750479,NA,NA,NotTracked,Unknown,
0.2163086,0.6743164,0.7275391,0.9794922,-0.2329102,0.1132813,-1,-17,-30,-44,-16,5,-10,3,-1,-2,-1,-2,-3,-2,0,0,22,22,22,-1.25,-1.25,-1.25,6.13064,4.499131,3.992647,3.078516,2.917305,6.048569,-0.1506126,-0.4795944,1.683278,0.2395237,-0.1344406,1.405417,0.05126913,0.3436787,1.692348,-0.152734,-0.4842953,1.639842,0.2168629,-0.09114042,1.400769,0.05333563,-0.07387849,1.742009,0.04921365,-0.3567739,1.73497,-0.1134378,0.09759568,1.740202,-0.02870113,-0.3523569,1.712111,-0.1509441,-0.1540033,1.765549,0.2902872,-0.1055924,1.727272,NA,NA,NotTracked,Unknown,
-0.1772461,0.6479492,0.7666016,0.9633789,-0.2255859,0.1083984,-2,-2,24,-2,7,1,-10,-2,-1,-2,-1,-1,-5,-3,-2,0,53.3125,53.3125,53.3125,2.875,2.875,2.875,6.19024,5.180419,4.103943,3.100875,2.92604,6.029567,-0.1496508,-0.4849185,1.682032,0.2279555,-0.007334969,1.437593,0.05274941,0.3426188,1.69328,-0.1012321,-0.4608117,1.672,0.2004226,0.03522727,1.416353,0.05309357,-0.0736782,1.743605,0.04884296,-0.3558908,1.73597,-0.1137274,0.09762838,1.741164,-0.02906321,-0.351828,1.712842,-0.1511005,-0.153234,1.765802,0.2638175,-0.1209184,1.665581,NA,NA,NotTracked,Unknown,
-0.4584961,0.6474609,0.6953125,0.9526367,-0.2431641,0.1049805,-20,13,13,1,28,19,-3,-6,-1,-1,0,0,2,1,-2,0,30.3125,30.3125,30.3125,2.5,2.5,2.5,6.285494,5.679512,4.225083,3.125763,2.933473,6.006513,-0.1552941,-0.4802988,1.680314,0.2110813,0.1228806,1.429226,0.05423201,0.3411937,1.694371,-0.1554078,-0.4799828,1.638342,0.1861912,0.166659,1.459231,0.05293194,-0.0744081,1.745765,0.04872706,-0.3563511,1.736905,-0.1139104,0.09749287,1.742749,-0.02954716,-0.3525551,1.713765,-0.1514212,-0.1521655,1.766505,0.2920203,-0.1378167,1.670797,NA,NA,NotTracked,Closed,
-0.5913086,0.6274414,0.5869141,0.9448242,-0.2426758,0.1220703,-55,8,0,21,-1,12,-11,-11,-2,-1,-7,-1,-1,-4,-2,-1,59.875,59.875,59.875,2.9375,2.9375,2.9375,6.454201,6.112323,4.388457,3.159272,2.941318,5.977028,-0.1566532,-0.4763578,1.682605,0.1993123,0.216746,1.453752,0.05593928,0.3398478,1.696809,-0.1568396,-0.479517,1.639745,0.1688683,0.2396291,1.50625,0.05405957,-0.07412624,1.747997,0.0490873,-0.354906,1.737805,-0.1134756,0.09806915,1.745515,-0.03008182,-0.3511842,1.71466,-0.1514937,-0.1519306,1.767423,0.2955664,-0.06235346,1.579483,NA,NA,NotTracked,Open,
-0.6005859,0.5625,0.4326172,0.9619141,-0.2490234,0.121582,-15,-14,-5,0,-11,-36,8,-23,-1,-1,-5,-3,-5,-1,-1,0,42.125,42.125,42.125,2.5,2.5,2.5,6.693189,6.440147,4.608412,3.172518,2.944558,5.967572,-0.1538153,-0.4867347,1.677329,0.1908826,0.2669711,1.481977,0.05746797,0.3377022,1.698381,-0.156531,-0.4819767,1.636627,0.1586551,0.2658934,1.52412,0.05504512,-0.07223649,1.747975,0.0499575,-0.351517,1.738099,-0.1051392,0.1009109,1.746205,-0.03023577,-0.34784,1.714511,-0.1518052,-0.151794,1.767994,0.2942163,-0.04259524,1.559722,NA,NA,NotTracked,Open,
-0.609375,0.5629883,0.3349609,0.9667969,-0.2368164,0.1113281,-89,-16,-1,3,3,18,-5,9,-1,0,3,0,-1,0,1,-1,28.0625,28.0625,28.0625,1.375,1.375,1.375,6.986668,6.655499,4.886562,3.176416,2.942849,5.968462,-0.1564111,-0.4817137,1.678671,0.1841422,0.281107,1.514781,0.05935133,0.3354645,1.700077,-0.1284758,-0.4825304,1.653019,0.1654836,0.2558443,1.577917,0.05544375,-0.07078622,1.747474,0.04960636,-0.3495283,1.73831,-0.1033523,0.1025012,1.748572,-0.03120828,-0.3452893,1.714641,-0.1526466,-0.1506035,1.768723,0.2902354,0.03432424,1.508749,NA,NA,NotTracked,Unknown,
-0.6860352,0.4086914,0.1152344,0.956543,-0.2480469,0.1152344,77,-5,-13,-5,-10,2,10,-19,0,0,7,-1,11,1,-1,0,15.1875,15.1875,15.1875,-1.125,-1.125,-1.125,7.475705,6.806268,5.370149,3.174355,2.941949,5.969935,-0.1563411,-0.484282,1.679267,0.1783395,0.3046757,1.527997,0.06256301,0.3346995,1.700436,-0.1305127,-0.4774731,1.653503,0.1619828,0.2681313,1.588615,0.05620859,-0.06918619,1.748171,0.04845708,-0.3470506,1.738582,-0.1026272,0.1033785,1.750074,-0.03279089,-0.3424194,1.714925,-0.1544828,-0.1412421,1.771406,0.2891268,0.04132504,1.507764,NA,NA,NotTracked,Unknown,
-0.6577148,0.3432617,0.1147461,0.956543,-0.2480469,0.1152344,19,30,-16,-4,-19,-47,-6,-5,0,0,7,-1,11,1,-1,0,13,13,13,-1.125,-1.125,-1.125,7.548928,6.821625,5.444801,3.174355,2.941949,5.969935,-0.1584872,-0.4813793,1.683171,0.1635492,0.3272423,1.550669,0.06516949,0.3347509,1.70078,-0.1304583,-0.4835779,1.654784,0.14493,0.2843642,1.599231,0.05652551,-0.06759319,1.748628,0.04722954,-0.3453084,1.738959,-0.09984104,0.1040846,1.749058,-0.03389561,-0.3408039,1.715167,-0.1547388,-0.1414442,1.771523,0.2894565,0.05227146,1.50578,NA,NA,NotTracked,Unknown,
-0.78125,0.4160156,-0.01367188,0.956543,-0.2480469,0.1152344,-20,-11,6,9,-9,-13,0,59,0,0,7,-1,11,1,-1,0,4.125,4.125,4.125,-1.125,-1.125,-1.125,7.721419,6.834858,5.612704,3.174355,2.941949,5.969935,-0.1594969,-0.4820476,1.684475,0.1574856,0.3334625,1.563212,0.06752262,0.3348504,1.700481,-0.1306603,-0.4837538,1.656712,0.1419638,0.2869706,1.608737,0.05641326,-0.06709526,1.749372,0.04582765,-0.3441272,1.739314,-0.09992919,0.1046285,1.749792,-0.03527887,-0.3395198,1.715229,-0.1561528,-0.1353236,1.771583,0.2893631,0.05780564,1.505256,NA,NA,NotTracked,Unknown,
-0.777832,0.4736328,-0.06738281,0.956543,-0.2480469,0.1152344,18,8,-8,3,-45,70,-1,-19,0,0,7,-1,11,1,-1,0,5.125,5.125,5.125,-1.125,-1.125,-1.125,7.805759,6.840986,5.681141,3.174355,2.941949,5.969935,-0.159504,-0.4869426,1.684315,0.1597071,0.3323954,1.565038,0.0683678,0.3348839,1.700491,-0.1332142,-0.4759835,1.661,0.1257706,0.2941681,1.604022,0.05633476,-0.06682301,1.749846,0.04492016,-0.343399,1.739188,-0.1001231,0.1047897,1.750015,-0.0362854,-0.3387453,1.714869,-0.1575607,-0.1309068,1.771094,0.2903067,0.06035259,1.504531,NA,NA,NotTracked,Unknown,
-0.9248047,0.453125,-0.08544922,0.956543,-0.2480469,0.1152344,-15,6,3,5,43,-44,1,30,0,0,7,-1,11,1,-1,0,26.25,26.25,26.25,-1.125,-1.125,-1.125,7.802089,6.835946,5.660918,3.174355,2.941949,5.969935,-0.1618128,-0.4854892,1.684541,0.1555595,0.3337391,1.569797,0.06918805,0.3349791,1.700555,-0.136266,-0.4826445,1.657858,0.1191114,0.2942948,1.606776,0.05579578,-0.06509474,1.747982,0.04457445,-0.3424765,1.738562,-0.1001686,0.1050247,1.750036,-0.03672602,-0.3378565,1.713945,-0.1581143,-0.1289113,1.770456,0.2923532,0.06221677,1.503621,NA,NA,NotTracked,Unknown,
-0.9208984,0.4638672,-0.1411133,0.956543,-0.2480469,0.1152344,-12,-5,-4,11,-4,14,-14,-26,0,0,7,-1,11,1,-1,0,20.75,20.75,20.75,-1.125,-1.125,-1.125,7.844483,6.814343,5.68604,3.174355,2.941949,5.969935,-0.1614278,-0.4909178,1.680306,0.1550807,0.3330676,1.57056,0.06992782,0.3350836,1.700672,-0.1357631,-0.4767679,1.659277,0.1282251,0.2893266,1.611292,0.05558272,-0.0642055,1.747242,0.04419675,-0.3419608,1.738399,-0.1002863,0.105186,1.75013,-0.03709171,-0.3373829,1.713582,-0.1586293,-0.1332415,1.768994,0.2939354,0.06482366,1.503438,NA,NA,NotTracked,Unknown,
-0.9082031,0.3476563,-0.07373047,0.956543,-0.2480469,0.1152344,-6,-11,2,3,-2,17,-3,3,0,0,7,-1,11,1,-1,0,7.875,7.875,7.875,-1.125,-1.125,-1.125,7.842321,6.813295,5.679892,3.174355,2.941949,5.969935,-0.1620804,-0.4897442,1.677238,0.1512254,0.3375908,1.573339,0.07027584,0.3350563,1.700748,-0.1638461,-0.4782808,1.638378,0.1215919,0.2943501,1.616263,0.05531769,-0.06377362,1.74681,0.04392523,-0.341716,1.738357,-0.1003473,0.1054058,1.750085,-0.03735294,-0.3371188,1.713334,-0.1590479,-0.1334839,1.768403,0.294255,0.08026694,1.49995,NA,NA,NotTracked,Unknown,
-0.9082031,0.409668,-0.09375,0.956543,-0.2480469,0.1152344,4,28,1,-3,1,23,-31,-26,0,0,7,-1,11,1,-1,0,0,0,0,-1.125,-1.125,-1.125,7.849986,6.810374,5.680665,3.174355,2.941949,5.969935,-0.1622254,-0.4888196,1.674166,0.1533055,0.3344547,1.573233,0.07049443,0.3349615,1.700941,-0.1651314,-0.4834903,1.63297,0.1144232,0.2909327,1.619667,0.05524402,-0.06330443,1.746137,0.04417031,-0.3412868,1.737683,-0.1003921,0.1055367,1.750124,-0.03719079,-0.3369154,1.71239,-0.1598877,-0.1316234,1.767642,0.2961735,0.07768952,1.501252,NA,NA,NotTracked,Unknown,
-0.8950195,0.4165039,-0.05810547,0.956543,-0.2480469,0.1152344,24,0,-7,-6,-3,-15,-14,2,0,0,7,-1,11,1,-1,0,0.8125,0.8125,0.8125,-1.125,-1.125,-1.125,7.85043,6.804795,5.677925,3.174355,2.941949,5.969935,-0.1628232,-0.487391,1.669932,0.156917,0.3316794,1.573002,0.07078186,0.3349766,1.70102,-0.1372045,-0.4670268,1.648263,0.1336657,0.2794223,1.616833,0.05514808,-0.06306289,1.745871,0.04421733,-0.3410791,1.737496,-0.1004606,0.1056377,1.750005,-0.03721594,-0.3368479,1.71209,-0.1607512,-0.128421,1.767787,0.2981495,0.07456595,1.502827,NA,NA,NotTracked,Unknown,
-0.7895508,0.3466797,-0.06347656,0.956543,-0.2480469,0.1152344,4,9,0,-24,0,-25,0,-23,0,0,7,-1,11,1,-1,0,-9.25,-9.25,-9.25,-1.125,-1.125,-1.125,7.761572,6.798411,5.605717,3.174355,2.941949,5.969935,-0.1628287,-0.4875169,1.666822,0.157354,0.3313252,1.570844,0.07071283,0.3349314,1.701071,-0.1370588,-0.4947752,1.666625,0.1570633,0.2736058,1.602467,0.05518188,-0.06305416,1.74618,0.04443843,-0.3409269,1.737191,-0.09842673,0.1053024,1.747555,-0.03713969,-0.3367758,1.711634,-0.1612731,-0.1330941,1.766958,0.3000097,0.07013638,1.504842,NA,NA,NotTracked,Unknown,
-0.7456055,0.4174805,-0.02783203,0.956543,-0.2480469,0.1152344,34,5,-3,-1,-2,18,30,3,0,0,7,-1,11,1,-1,0,-21.75,-21.75,-21.75,-1.125,-1.125,-1.125,7.585722,6.763601,5.447556,3.174355,2.941949,5.969935,-0.1628169,-0.4875987,1.665854,0.1604841,0.3271582,1.563475,0.06950589,0.3343134,1.701683,-0.1382405,-0.4635494,1.650441,0.158563,0.2683175,1.601403,0.05498984,-0.06297136,1.745963,0.04442491,-0.3408576,1.737129,-0.09847119,0.1051337,1.746645,-0.03714424,-0.3367573,1.711509,-0.1608462,-0.1386844,1.765791,0.3026867,0.05663723,1.510192,NA,NA,NotTracked,Unknown,
-0.7729492,0.4072266,0.07519531,0.956543,-0.2480469,0.1152344,-1,-1,12,-5,3,-10,1,14,0,0,7,-1,11,1,-1,0,-17.6875,-17.6875,-17.6875,-1.125,-1.125,-1.125,7.3451,6.698991,5.216163,3.174355,2.941949,5.969935,-0.1652208,-0.4892663,1.663115,0.1835068,0.2837342,1.537705,0.06375575,0.3340736,1.703743,-0.1392525,-0.4790854,1.639429,0.1765896,0.2353757,1.5942,0.05442826,-0.06364837,1.746406,0.04444253,-0.3409112,1.736761,-0.09901129,0.1045799,1.746013,-0.03719871,-0.3369426,1.7111,-0.1596496,-0.1485858,1.764109,0.304729,0.03594318,1.519062,NA,NA,NotTracked,Unknown,
-0.7050781,0.5219727,0.2124023,0.956543,-0.2480469,0.1152344,11,3,2,-5,-1,12,-10,6,0,0,7,-1,11,1,-1,0,-35.1875,-35.1875,-35.1875,-1.125,-1.125,-1.125,6.974608,6.551122,4.865013,3.174355,2.941949,5.969935,-0.1641461,-0.4888684,1.66142,0.1935497,0.268159,1.507384,0.0582718,0.3350475,1.705692,-0.1673081,-0.484172,1.618882,0.166967,0.2828395,1.533957,0.05340222,-0.06466457,1.747493,0.04466193,-0.3410907,1.736497,-0.1020371,0.1033244,1.746572,-0.03704179,-0.337307,1.711053,-0.1580246,-0.1510319,1.763472,0.3063778,-0.03724421,1.575011,NA,NA,NotTracked,Unknown,
-0.730957,0.5039063,0.2841797,0.956543,-0.2480469,0.1152344,-3,-1,0,-5,-4,-10,3,1,0,0,7,-1,11,1,-1,0,-23.1875,-23.1875,-23.1875,-1.125,-1.125,-1.125,6.814644,6.441272,4.707495,3.174355,2.941949,5.969935,-0.1571824,-0.4893221,1.656286,0.2045426,0.2216258,1.485943,0.05497739,0.3366303,1.70602,-0.1322512,-0.4724364,1.635234,0.1820515,0.255769,1.500324,0.05277788,-0.06545017,1.74691,0.04462049,-0.3422887,1.735787,-0.1076614,0.100376,1.747705,-0.03705858,-0.339081,1.711247,-0.1557552,-0.1558055,1.762703,0.3044799,-0.04652107,1.584382,NA,NA,NotTracked,Unknown,
-0.5473633,0.5717773,0.4003906,0.956543,-0.2480469,0.1152344,-4,-10,-9,-2,-4,1,2,14,0,0,7,-1,11,1,-1,0,-49.5625,-49.5625,-49.5625,-1.125,-1.125,-1.125,6.534903,6.138549,4.465846,3.174355,2.941949,5.969935,-0.1521135,-0.4890842,1.6554,0.2192503,0.1563099,1.452769,0.05214338,0.3382831,1.706227,-0.1257024,-0.4742354,1.636636,0.1891139,0.1860327,1.4876,0.05151723,-0.06750208,1.747494,0.0446357,-0.3460029,1.735107,-0.112512,0.09775402,1.749102,-0.03649725,-0.343692,1.712465,-0.1542494,-0.1563709,1.763045,0.2956074,-0.07411098,1.618284,NA,NA,NotTracked,Unknown,
-0.5444336,0.6757813,0.5942383,0.956543,-0.2480469,0.1152344,-3,4,1,6,0,-1,2,-18,0,0,7,-1,11,1,-1,0,-38.0625,-38.0625,-38.0625,-1.125,-1.125,-1.125,6.391782,5.833101,4.328913,3.174355,2.941949,5.969935,-0.1447874,-0.4878833,1.661131,0.2288885,0.07219296,1.414551,0.04980145,0.3398459,1.706875,-0.1106394,-0.4713198,1.64844,0.201294,0.1218849,1.4189,0.04979835,-0.06913623,1.747547,0.04355679,-0.3490977,1.73449,-0.1151322,0.09647563,1.74928,-0.03693748,-0.3468243,1.712865,-0.1532548,-0.1565792,1.763346,0.3029236,-0.1345916,1.664732,NA,NA,NotTracked,Unknown,
-0.5522461,0.7792969,0.6352539,0.956543,-0.2480469,0.1152344,3,4,-1,-6,-4,-1,1,12,0,0,7,-1,11,1,-1,0,-47.25,-47.25,-47.25,-1.125,-1.125,-1.125,6.351528,5.712927,4.298065,3.174355,2.941949,5.969935,-0.1412545,-0.4857571,1.667682,0.2367203,-0.04112494,1.388411,0.04836277,0.3413433,1.707407,-0.1115916,-0.4780913,1.64651,0.2059699,-0.007893445,1.393143,0.04919333,-0.06962678,1.746867,0.04365946,-0.3500104,1.733929,-0.1165364,0.09598596,1.747966,-0.03649083,-0.3479923,1.712473,-0.1527289,-0.1565335,1.762869,0.300198,-0.1477856,1.662964,NA,NA,NotTracked,Unknown,
-0.0625,0.7421875,0.6069336,0.956543,-0.2480469,0.1152344,-18,-6,-4,-7,1,0,-2,-11,0,0,7,-1,11,1,-1,0,-6.3125,-6.3125,-6.3125,-1.125,-1.125,-1.125,6.230424,4.842947,4.085015,3.174355,2.941949,5.969935,-0.1469042,-0.4699771,1.674248,0.2427905,-0.1589389,1.394086,0.0474074,0.3430445,1.707566,-0.1072909,-0.474392,1.685857,0.2186308,-0.1335853,1.404875,0.04898635,-0.06989793,1.746148,0.0437522,-0.3506395,1.733617,-0.1173491,0.09649018,1.746079,-0.03619677,-0.3486486,1.712147,-0.1522725,-0.1563512,1.762618,0.2824283,-0.09717128,1.742022,NA,NA,NotTracked,Closed,
0.2729492,0.7373047,0.625,0.956543,-0.2480469,0.1152344,0,-3,-3,-3,-1,-3,-3,-6,0,0,7,-1,11,1,-1,0,-9.9375,-9.9375,-9.9375,-1.125,-1.125,-1.125,6.262417,4.390966,3.977357,3.174355,2.941949,5.969935,-0.1508503,-0.4763009,1.675238,0.2573951,-0.2662782,1.432516,0.04666054,0.3442672,1.707075,-0.1132528,-0.4881763,1.6825,0.253891,-0.2483786,1.3854,0.04884114,-0.06990757,1.745209,0.04403244,-0.3511986,1.733486,-0.1176821,0.09705396,1.743717,-0.03569734,-0.3491661,1.711973,-0.1521316,-0.1562575,1.762519,0.2957137,-0.1276711,1.717733,NA,NA,NotTracked,Unknown,
0.4697266,0.6484375,0.7250977,0.956543,-0.2480469,0.1152344,0,-4,-2,-3,2,-2,-1,1,0,0,7,-1,11,1,-1,0,-12.8125,-12.8125,-12.8125,-1.125,-1.125,-1.125,6.27933,3.9836,3.914698,3.174355,2.941949,5.969935,-0.1567065,-0.4742309,1.677105,0.2730994,-0.3486446,1.48593,0.04631593,0.3460023,1.705869,-0.187166,-0.4645112,1.693143,0.2867453,-0.3348027,1.451437,0.04888562,-0.06963637,1.743313,0.04504162,-0.3518868,1.732549,-0.1177936,0.09825514,1.741046,-0.03422397,-0.3498755,1.710815,-0.1522391,-0.1561115,1.762555,0.2839087,-0.1195929,1.731397,NA,NA,NotTracked,Unknown,
0.7700195,0.5322266,0.4267578,0.956543,-0.2480469,0.1152344,6,1,-3,5,1,-4,0,-1,0,0,7,-1,11,1,-1,0,3.125,3.125,3.125,-1.125,-1.125,-1.125,6.377381,3.58307,3.780066,3.174355,2.941949,5.969935,-0.1595875,-0.487134,1.680059,0.2843569,-0.4287757,1.539474,0.04630486,0.3472998,1.704381,-0.1926823,-0.473507,1.6935,0.3149542,-0.4410569,1.53,0.04949843,-0.06964246,1.741381,0.04595034,-0.3527038,1.731938,-0.1123187,0.09978158,1.737071,-0.03303732,-0.3504887,1.710017,-0.1523122,-0.1564142,1.762254,0.2820157,-0.1379433,1.728377,NA,NA,NotTracked,Open,
1.27832,0.4204102,0.1352539,0.956543,-0.2480469,0.1152344,5,-1,0,-8,0,-2,-2,0,0,0,7,-1,11,1,-1,0,-13.875,-13.875,-13.875,-1.125,-1.125,-1.125,6.87717,3.011309,3.183233,3.174355,2.941949,5.969935,-0.1654101,-0.4845093,1.683542,0.3015669,-0.4777523,1.603452,0.04662375,0.3480989,1.703457,-0.1976557,-0.4715779,1.6977,0.3295839,-0.4858564,1.594947,0.04986881,-0.06964264,1.740142,0.04666914,-0.3533828,1.731368,-0.1131634,0.1002392,1.735868,-0.0320923,-0.3509522,1.70929,-0.1525239,-0.1569553,1.762124,0.2795653,-0.150382,1.719181,NA,NA,NotTracked,NotTracked,
1.219238,0.2124023,-0.2260742,0.956543,-0.2480469,0.1152344,-3,0,0,14,0,-1,-1,-1,0,0,7,-1,11,1,-1,0,-90.4375,-90.4375,-90.4375,-1.125,-1.125,-1.125,7.509057,2.859557,2.381419,3.174355,2.941949,5.969935,-0.1665148,-0.4874893,1.680456,0.3124648,-0.4978069,1.647604,0.04734068,0.3491837,1.701947,-0.2003586,-0.4811676,1.689,0.3464039,-0.4910315,1.647572,0.05051101,-0.06947555,1.738359,0.04728645,-0.3537255,1.730414,-0.1136863,0.1012123,1.734406,-0.03132055,-0.3509207,1.708326,-0.1525053,-0.1568692,1.761541,0.2782061,-0.1579039,1.71149,NA,NA,NotTracked,NotTracked,
1.083496,0.2895508,-0.1074219,0.956543,-0.2480469,0.1152344,-1,-1,-1,-13,-2,-1,0,-1,0,0,7,-1,11,1,-1,0,13.8125,13.8125,13.8125,-1.125,-1.125,-1.125,7.921331,2.830727,1.941466,3.174355,2.941949,5.969935,-0.1692587,-0.4817984,1.6798,0.3124408,-0.4959029,1.663272,0.04857155,0.3503035,1.700698,-0.187504,-0.494632,1.708833,0.3429581,-0.4917805,1.657182,0.05135815,-0.06934904,1.736368,0.04812582,-0.354072,1.72865,-0.1138404,0.1020788,1.733324,-0.03037602,-0.350769,1.706691,-0.1526199,-0.1561659,1.76146,0.278172,-0.1616421,1.71259,NA,NA,NotTracked,NotTracked,
0.9379883,0.2509766,0.1665039,0.956543,-0.2480469,0.1152344,-2,-2,-1,-8,0,-1,-1,0,0,0,7,-1,11,1,-1,0,2.6875,2.6875,2.6875,-1.125,-1.125,-1.125,7.648355,2.832537,2.225636,3.174355,2.941949,5.969935,-0.1705326,-0.4790927,1.67663,0.3084657,-0.4894292,1.658059,0.05007872,0.3511475,1.699038,-0.2047516,-0.4727834,1.686333,0.3355859,-0.4969073,1.6518,0.05233667,-0.0690309,1.734559,0.04916819,-0.3540919,1.727206,-0.1135982,0.1030085,1.731768,-0.02905366,-0.3503857,1.705103,-0.1528949,-0.156955,1.761081,0.2777851,-0.163094,1.719608,NA,NA,NotTracked,NotTracked,
0.871582,0.3183594,0.2055664,0.956543,-0.2480469,0.1152344,0,1,1,-1,-1,-1,-3,-1,0,0,7,-1,11,1,-1,0,-16.375,-16.375,-16.375,-1.125,-1.125,-1.125,7.116002,2.898461,2.750482,3.174355,2.941949,5.969935,-0.1720253,-0.477731,1.675536,0.3076305,-0.4816391,1.644423,0.05186394,0.3514947,1.697312,-0.2040804,-0.4758863,1.682608,0.3066487,-0.525221,1.683207,0.05389316,-0.0689221,1.732923,0.05059089,-0.3543911,1.72576,-0.1126689,0.1035552,1.729597,-0.0276783,-0.3505206,1.703735,-0.1529935,-0.1563688,1.759729,0.277267,-0.163654,1.725757,NA,NA,NotTracked,NotTracked,
0.9228516,0.3012695,0.1420898,0.956543,-0.2480469,0.1152344,1,-2,-1,0,1,0,-1,-1,0,0,7,-1,11,1,-1,0,-0.1875,-0.1875,-0.1875,-1.125,-1.125,-1.125,6.823921,2.980064,3.038753,3.174355,2.941949,5.969935,-0.1709574,-0.477419,1.672538,0.303922,-0.4737282,1.624511,0.05360557,0.3516527,1.695813,-0.1975186,-0.4831851,1.683066,0.3335819,-0.4773198,1.617154,0.05503668,-0.06899527,1.731681,0.05208607,-0.3546963,1.724452,-0.1118829,0.1039364,1.727524,-0.02593595,-0.3508445,1.701694,-0.1530331,-0.1558448,1.758698,0.2765754,-0.1621628,1.727823,NA,NA,NotTracked,NotTracked,
0.9379883,0.2709961,0.1411133,0.956543,-0.2480469,0.1152344,-3,-1,-1,-1,-2,0,-4,-2,0,0,7,-1,11,1,-1,0,1.9375,1.9375,1.9375,-1.125,-1.125,-1.125,6.695643,3.03276,3.17224,3.174355,2.941949,5.969935,-0.1709306,-0.4738933,1.668074,0.299211,-0.471635,1.605923,0.05544917,0.3510902,1.693594,-0.184401,-0.4864186,1.6869,0.2959106,-0.5175368,1.6365,0.05601946,-0.0692354,1.730664,0.05318962,-0.3549255,1.723564,-0.1113671,0.1039233,1.725853,-0.02484143,-0.3510002,1.700399,-0.1533826,-0.1567086,1.756948,0.276464,-0.1618264,1.727879,NA,NA,NotTracked,NotTracked,
