ALX,ALY,ALZ,ARX,ARY,ARZ,EMG0L,EMG1L,EMG2L,EMG3L,EMG4L,EMG5L,EMG6L,EMG7L,EMG0R,EMG1R,EMG2R,EMG3R,EMG4R,EMG5R,EMG6R,EMG7R,GLX,GLY,GLZ,GRX,GRY,GRZ,ORL,OPL,OYL,ORR,OPR,OYR,LHNX,LHNY,LHNZ,RHNX,RHNY,RHNZ,HX,HY,HZ,LTX,LTY,LTZ,RTX,RTY,RTZ,SpineMidX,SpineMidY,SpineMidZ,SpineBaseX,SpineBaseY,SpineBaseZ,ShoulderLeftX,ShoulderLeftY,ShoulderLeftZ,ShoulderRightX,ShoulderRightY,ShoulderRightZ,ElbowLeftX,ElbowLeftY,ElbowLeftZ,ElbowRightX,ElbowRightY,ElbowRightZ,Myo_Pose_left,Myo_Pose_Right,Kinect_pose_left,Kinect_pose_right
0.9287109,0.2807617,0.1196289,0.9707031,-0.2333984,0.1176758,-1,-1,-2,-1,0,-1,0,-2,-1,-3,-2,-1,-3,-2,1,0,0.625,0.625,0.625,-0.5,-0.5,-0.5,6.877349,3.00422,4.601129,3.185433,2.924991,6.193454,-0.1451973,-0.4889026,1.674333,0.2870511,-0.4874582,1.615454,0.05655995,0.3459248,1.711451,-0.1782099,-0.4849558,1.658348,0.2531625,-0.4913714,1.58979,0.06630538,-0.09819847,1.748639,0.06738539,-0.4039679,1.738384,-0.1132713,0.08329919,1.749898,-0.009552397,-0.3982916,1.713745,-0.1407675,-0.201365,1.775763,0.280565,-0.1791527,1.72242,NA,NA,NotTracked,NotTracked,
0.925293,0.2768555,0.1264648,0.9536133,-0.2324219,0.1142578,-1,0,0,0,-2,0,0,1,0,-1,-2,-2,-1,0,-2,-3,-1.25,-1.25,-1.25,1.4375,1.4375,1.4375,6.872699,3.003334,4.603228,3.188067,2.924698,6.191068,-0.1433667,-0.4891309,1.677199,0.2861748,-0.4883988,1.615576,0.05643281,0.3458353,1.710986,-0.1780151,-0.4793237,1.664423,0.2737049,-0.4788769,1.582312,0.06619015,-0.09820428,1.748542,0.06717142,-0.4039344,1.738329,-0.1132754,0.08329001,1.749827,-0.009804276,-0.398241,1.713721,-0.1408115,-0.2014343,1.775652,0.2806163,-0.1791884,1.722312,NA,NA,NotTracked,NotTracked,
0.9296875,0.2807617,0.1196289,0.9711914,-0.2358398,0.1308594,0,0,-1,0,-1,-2,-1,-2,-2,-2,-1,-3,-1,1,-2,-1,0,0,0,-1.25,-1.25,-1.25,6.872133,3.003777,4.603628,3.187818,2.924287,6.18998,-0.1438329,-0.4882466,1.674858,0.2862647,-0.4875967,1.615049,0.05629516,0.3458227,1.710745,-0.1786325,-0.4815321,1.667187,0.254082,-0.4904475,1.588156,0.0661006,-0.09829984,1.74836,0.06701598,-0.4040217,1.738307,-0.1132779,0.08330081,1.749769,-0.009996687,-0.3983933,1.713716,-0.1407901,-0.2016483,1.775526,0.2806278,-0.1788664,1.722283,NA,NA,NotTracked,NotTracked,
0.934082,0.2788086,0.1191406,0.9516602,-0.237793,0.1030273,0,-1,0,-1,0,-1,0,-1,-2,0,-1,1,-1,-2,-1,2,-0.25,-0.25,-0.25,2.8125,2.8125,2.8125,6.871481,3.003349,4.604455,3.193134,2.925087,6.189791,-0.1432567,-0.4887066,1.674834,0.2854509,-0.4872338,1.613134,0.05615766,0.3456969,1.710288,-0.1762405,-0.4862658,1.660444,0.2636072,-0.50924,1.57732,0.06602342,-0.09838848,1.74809,0.06701503,-0.4040763,1.738243,-0.1133161,0.08321567,1.749626,-0.01000443,-0.3984511,1.713615,-0.1407426,-0.2016423,1.775429,0.2806063,-0.1787912,1.722165,NA,NA,NotTracked,NotTracked,
0.9243164,0.2822266,0.1088867,0.956543,-0.2368164,0.1254883,-2,-2,0,0,-1,0,-1,-1,-1,-1,0,0,-1,1,-1,-1,-0.9375,-0.9375,-0.9375,-0.1875,-0.1875,-0.1875,6.871481,3.003349,4.604455,3.198237,2.926632,6.18209,-0.1437808,-0.4882464,1.67429,0.285473,-0.4871992,1.6129,0.05592723,0.3457002,1.709928,-0.1768766,-0.482972,1.663046,0.2515066,-0.4898352,1.590436,0.06598379,-0.0985183,1.747908,0.06702948,-0.4043381,1.738089,-0.1133224,0.08318304,1.749515,-0.01000343,-0.3984819,1.713482,-0.140729,-0.2018083,1.775201,0.2806924,-0.1788159,1.72193,NA,NA,NotTracked,NotTracked,
0.9287109,0.2675781,0.1210938,0.9614258,-0.2290039,0.1103516,1,-1,0,-1,0,-1,-1,-2,-1,-1,-2,-1,-3,-1,-1,1,0.0625,0.0625,0.0625,0.125,0.125,0.125,6.866992,3.003826,4.606394,3.194654,2.927363,6.187116,-0.1447741,-0.4888532,1.674218,0.2850322,-0.4872793,1.612972,0.05577973,0.3457157,1.709525,-0.1768652,-0.4818671,1.660015,0.243922,-0.5071964,1.586667,0.06587553,-0.09847184,1.747674,0.06679261,-0.4041327,1.737901,-0.1133554,0.08317102,1.749477,-0.01025113,-0.3982889,1.713279,-0.1407192,-0.2018419,1.77512,0.280478,-0.1785276,1.72161,NA,NA,NotTracked,NotTracked,
0.9335938,0.28125,0.1113281,0.9560547,-0.2319336,0.1196289,1,-1,1,0,-1,1,-1,1,0,-1,0,-1,-1,-2,1,2,-2.3125,-2.3125,-2.3125,-0.4375,-0.4375,-0.4375,6.865491,3.00525,4.606922,3.18949,2.92771,6.191317,-0.1439209,-0.4883418,1.674434,0.2848787,-0.4867632,1.611274,0.05560164,0.3457243,1.709077,-0.1762739,-0.4818407,1.657516,0.2518773,-0.4887083,1.58975,0.06580092,-0.09843428,1.747428,0.06675768,-0.4040737,1.737728,-0.1133862,0.08314363,1.749381,-0.01026799,-0.3983155,1.713193,-0.1406613,-0.2018821,1.774912,0.2805225,-0.1787204,1.721205,NA,NA,NotTracked,NotTracked,
0.9282227,0.2661133,0.1088867,0.9619141,-0.2329102,0.1176758,0,-1,-2,-2,1,-1,-1,-2,-2,-3,-19,-3,-2,-3,0,0,4.3125,4.3125,4.3125,-2.0625,-2.0625,-2.0625,6.864897,3.005268,4.608768,3.191376,2.928368,6.186486,-0.1455352,-0.4870013,1.673166,0.2846231,-0.4866642,1.610618,0.0554785,0.3456306,1.70851,-0.1434891,-0.4714772,1.633406,0.2718,-0.4902204,1.575025,0.0657555,-0.09843677,1.747095,0.06669725,-0.4039997,1.73737,-0.1134133,0.08310256,1.749293,-0.01028707,-0.398326,1.712904,-0.1408549,-0.2022846,1.774527,0.2806141,-0.1785484,1.720877,NA,NA,NotTracked,NotTracked,
0.9521484,0.3129883,0.1166992,0.9985352,-0.2421875,0.09863281,2,6,2,-3,-11,-1,9,7,0,-1,9,-1,2,3,3,-3,2.25,2.25,2.25,0.9375,0.9375,0.9375,6.891122,3.008121,4.595222,3.2134,2.930959,6.165522,-0.1453765,-0.48707,1.672824,0.2839312,-0.4855698,1.609865,0.05545861,0.3456318,1.708486,-0.1770627,-0.4905151,1.652423,0.2633599,-0.5044888,1.570852,0.06569907,-0.09854607,1.74702,0.0665368,-0.4043011,1.737238,-0.1128368,0.08290196,1.748889,-0.01050688,-0.3984133,1.712838,-0.1408716,-0.2022802,1.774438,0.280706,-0.1784055,1.7208,NA,NA,NotTracked,NotTracked,
0.9526367,0.2861328,0.09179688,0.9916992,-0.237793,0.1206055,-2,0,0,-3,-21,-1,6,1,0,1,5,-1,-2,4,3,-9,-40,-40,-40,16.1875,16.1875,16.1875,6.876801,3.018977,4.567304,3.31638,2.947859,6.074512,-0.1423484,-0.4805779,1.669408,0.2824324,-0.4814382,1.601766,0.05543588,0.3456361,1.708465,-0.1602164,-0.4633419,1.635245,0.2859329,-0.4497452,1.571519,0.06564071,-0.09859535,1.746939,0.06643021,-0.404422,1.737094,-0.1129426,0.08289231,1.748861,-0.01061068,-0.3984303,1.712672,-0.140746,-0.201855,1.774516,0.2808703,-0.1786012,1.720976,NA,NA,NotTracked,NotTracked,
0.9672852,0.3061523,0.2075195,1.001953,-0.3022461,0.2993164,-5,1,-2,-4,-25,-19,31,-7,2,8,30,-1,1,1,-15,1,-30.125,-30.125,-30.125,7.125,7.125,7.125,6.7452,3.060392,4.62335,3.555086,3.015799,5.829394,-0.1367953,-0.4674456,1.668959,0.2801968,-0.4623425,1.593792,0.05538967,0.3456504,1.708316,-0.164501,-0.4487033,1.629333,0.2758317,-0.4392288,1.5454,0.06559687,-0.09854402,1.746799,0.06637055,-0.4042145,1.736915,-0.1129799,0.08291008,1.748845,-0.01066439,-0.3983468,1.712474,-0.1406154,-0.2012056,1.774849,0.2806611,-0.1779153,1.722118,NA,NA,NotTracked,NotTracked,
0.9804688,0.3076172,0.2788086,0.9472656,-0.2119141,0.3759766,67,-1,2,7,23,-29,11,-8,-1,-5,-26,8,1,4,-2,2,-15,-15,-15,-9.0625,-9.0625,-9.0625,6.567317,3.129531,4.772902,3.806531,3.11035,5.571358,-0.1189744,-0.4711885,1.641194,0.2679805,-0.4451816,1.591899,0.05537646,0.3456084,1.708346,-0.1578101,-0.4310632,1.588929,0.2795987,-0.4186364,1.530981,0.06582148,-0.09844562,1.746652,0.0671262,-0.4036868,1.736518,-0.1130181,0.0829311,1.748842,-0.01001792,-0.3980738,1.712102,-0.1400299,-0.1985728,1.776373,0.2801355,-0.1753304,1.725605,NA,NA,NotTracked,NotTracked,
0.9506836,0.3500977,0.3491211,0.9282227,-0.2485352,0.4731445,-9,-1,-5,-18,-8,-53,-25,2,-2,2,-75,-13,-3,-5,-16,-10,-3.3125,-3.3125,-3.3125,8.4375,8.4375,8.4375,6.362908,3.241123,4.988312,4.055304,3.295799,5.301675,-0.1104794,-0.4411958,1.62078,0.2453408,-0.4198893,1.574442,0.05541142,0.3455577,1.708481,-0.1576471,-0.406052,1.571429,0.2682515,-0.3898843,1.506241,0.06807276,-0.09769587,1.746282,0.0682358,-0.4024755,1.735864,-0.1130451,0.08296937,1.748885,-0.009253703,-0.3971009,1.711313,-0.1397335,-0.1909505,1.777501,0.27922,-0.1725872,1.729499,NA,NA,NotTracked,Unknown,
0.8959961,0.3706055,0.4326172,0.8769531,-0.3222656,0.574707,14,8,-1,-7,-6,-23,19,8,-2,0,-4,8,-4,-5,-12,1,-10.875,-10.875,-10.875,24.1875,24.1875,24.1875,6.220239,3.33451,5.139975,4.217689,3.472561,5.141786,-0.107422,-0.3982227,1.589311,0.242932,-0.3695298,1.558555,0.05544434,0.3455387,1.708683,-0.155513,-0.3705196,1.5472,0.26035,-0.3413323,1.51,0.07031983,-0.09668411,1.745391,0.06951204,-0.4005938,1.734233,-0.1123096,0.08352558,1.748764,-0.008712785,-0.39544,1.709509,-0.1380852,-0.1753288,1.779327,0.2758014,-0.1630945,1.736471,NA,NA,Unknown,Unknown,
0.7670898,0.4526367,0.5488281,0.762207,-0.2880859,0.6015625,3,-2,12,12,-24,-44,-5,2,-3,-15,-64,9,-10,-12,-17,-2,-15.8125,-15.8125,-15.8125,20.25,20.25,20.25,6.00134,3.580956,5.386273,4.346381,3.679298,5.0316,-0.07701873,-0.3632167,1.597552,0.2328316,-0.3236417,1.545003,0.05553265,0.3454227,1.709197,-0.1468071,-0.327024,1.523778,0.2583475,-0.3070575,1.500833,0.07128538,-0.09619196,1.745028,0.06986748,-0.3996341,1.733303,-0.1119909,0.08403427,1.749047,-0.008594086,-0.3947299,1.708333,-0.1381976,-0.1579691,1.782202,0.2741787,-0.151738,1.740453,NA,NA,Unknown,Unknown,
0.7246094,0.4453125,0.637207,0.675293,-0.3037109,0.6533203,-1,1,6,-6,-7,1,6,-3,-2,-12,-36,-5,0,-8,-17,-7,-24.9375,-24.9375,-24.9375,34.125,34.125,34.125,5.890307,3.798054,5.486698,4.436174,3.893328,4.960661,-0.1033788,-0.2987439,1.520543,0.2091079,-0.2813958,1.460951,0.05573894,0.345215,1.710013,-0.1477169,-0.2829495,1.479053,0.2376652,-0.2598158,1.406167,0.07117538,-0.09599411,1.745192,0.06996263,-0.3993582,1.733147,-0.1122104,0.08428583,1.749355,-0.008369561,-0.3942398,1.708041,-0.1339054,-0.1518377,1.777698,0.273029,-0.1494505,1.739371,NA,NA,Unknown,Unknown,
0.5234375,0.3676758,0.6611328,0.5424805,-0.2792969,0.6054688,-32,-7,2,11,10,1,-13,-6,-3,-1,-45,-8,1,33,51,4,-27.125,-27.125,-27.125,28.875,28.875,28.875,5.792026,4.158361,5.49905,4.49925,4.108643,4.936194,-0.1027662,-0.256227,1.483364,0.2284895,-0.2318392,1.44719,0.05591861,0.3449371,1.711082,-0.1543252,-0.2438977,1.453,0.2574289,-0.2071607,1.385643,0.07048377,-0.09579889,1.745703,0.06991813,-0.3991679,1.733204,-0.1118084,0.08490229,1.749894,-0.008356385,-0.3940208,1.708003,-0.1115585,-0.185879,1.728145,0.2710375,-0.1390182,1.73418,NA,NA,Unknown,Open,
0.4291992,0.3911133,0.5605469,0.4873047,-0.1708984,0.6152344,-87,-12,-3,-9,-17,10,6,-5,2,7,-2,12,1,14,8,13,-32.9375,-32.9375,-32.9375,7.375,7.375,7.375,5.77747,4.296598,5.437573,4.525038,4.167665,4.95112,-0.07859872,-0.2305948,1.470757,0.2440351,-0.2049487,1.432342,0.05605681,0.3447569,1.711918,-0.09824236,-0.2358623,1.463182,0.2853086,-0.1821443,1.385414,0.06989725,-0.09579497,1.746244,0.06985097,-0.3990156,1.733313,-0.1109583,0.08552828,1.750283,-0.008310574,-0.3938966,1.708037,-0.1114102,-0.1840011,1.727668,0.2702773,-0.1402002,1.729706,NA,NA,Unknown,Unknown,
0.425293,0.3134766,0.690918,0.4545898,-0.09863281,0.6967773,24,-8,2,-7,3,27,18,-3,2,28,15,9,-1,-3,24,11,-18.125,-18.125,-18.125,16.3125,16.3125,16.3125,5.770968,4.335776,5.355611,4.548889,4.142419,4.965785,-0.1204832,-0.2351626,1.493031,0.2659427,-0.2017902,1.435853,0.0560901,0.3447129,1.71276,-0.1796774,-0.2223842,1.465733,0.312147,-0.1806925,1.391546,0.06988349,-0.09558441,1.746619,0.06967846,-0.3986494,1.733599,-0.1105992,0.08593799,1.75045,-0.00835559,-0.3936082,1.708087,-0.1375008,-0.1516406,1.767567,0.2700917,-0.1400125,1.72874,NA,NA,Unknown,Unknown,
0.418457,0.3168945,0.7631836,0.4526367,-0.2177734,0.9116211,-10,-2,-1,1,25,17,23,11,9,29,-2,-6,-2,-5,-3,4,6.9375,6.9375,6.9375,-8.5,-8.5,-8.5,5.796403,4.252408,5.257607,4.53056,4.041484,4.963593,-0.1340445,-0.252828,1.489969,0.2855106,-0.2161544,1.41854,0.05605057,0.3448134,1.713359,-0.1845899,-0.2400766,1.471118,0.3187261,-0.1929773,1.378167,0.07007303,-0.09539611,1.746658,0.06966789,-0.3984534,1.733657,-0.1099264,0.08675718,1.750537,-0.00833487,-0.393366,1.70813,-0.1156402,-0.1868921,1.749141,0.2704307,-0.1396681,1.729887,NA,NA,Unknown,Unknown,
0.4921875,0.4106445,0.9243164,0.5634766,-0.2011719,0.9370117,8,-10,-6,1,36,-20,1,8,1,9,42,-2,-10,-15,-7,5,42.375,42.375,42.375,-53.0625,-53.0625,-53.0625,5.814298,4.143252,5.295185,4.538153,3.971274,4.883558,-0.1475019,-0.272163,1.489671,0.2732874,-0.2426654,1.45025,0.05593834,0.3450636,1.714109,-0.179726,-0.264184,1.474059,0.2986035,-0.2231072,1.383895,0.07007218,-0.09511203,1.746757,0.06960273,-0.3981756,1.733728,-0.1096023,0.08715475,1.750804,-0.00834732,-0.3930954,1.708207,-0.1182547,-0.1874519,1.749136,0.269642,-0.1380628,1.738227,NA,NA,Lasso,Unknown,
0.3945313,0.3378906,0.972168,0.6762695,-0.2626953,0.9018555,21,-4,-4,-2,-3,17,-4,1,-3,-1,42,5,-4,-19,-35,-4,58.375,58.375,58.375,-24.6875,-24.6875,-24.6875,5.784964,4.076158,5.458277,4.539351,3.95913,4.774263,-0.09670486,-0.2876883,1.489357,0.2241047,-0.2628567,1.46158,0.05588266,0.3450552,1.714096,-0.1546854,-0.2754802,1.471353,0.2556635,-0.2420278,1.402539,0.06948528,-0.09494999,1.746631,0.06955272,-0.3979363,1.733371,-0.1095117,0.08728466,1.750771,-0.00833986,-0.3926444,1.707521,-0.119674,-0.187598,1.73951,0.2699215,-0.1375725,1.740511,NA,NA,Unknown,Unknown,
0.5703125,0.6420898,0.8095703,0.6977539,-0.3339844,0.7807617,26,2,3,3,31,-6,-10,7,-3,-8,-6,-4,-4,7,-12,-6,15.5,15.5,15.5,-16,-16,-16,5.794492,4.099041,5.582344,4.525247,3.997245,4.731205,-0.06807572,-0.2843157,1.57937,0.1945078,-0.2523479,1.454959,0.05586736,0.3451266,1.714169,-0.131891,-0.2637617,1.494518,0.231679,-0.2308651,1.402722,0.06903124,-0.09484144,1.746654,0.06949294,-0.3978079,1.733337,-0.1098427,0.08715548,1.750591,-0.008382606,-0.3925192,1.707347,-0.1485511,-0.147284,1.776071,0.2694,-0.1376825,1.740728,NA,NA,Unknown,Unknown,
0.5805664,0.5610352,0.7148438,0.6166992,-0.253418,0.6201172,-9,-5,-3,4,-18,-1,5,-5,-1,2,-27,-2,0,-7,1,-1,-19.5625,-19.5625,-19.5625,10.25,10.25,10.25,5.770984,4.183123,5.594703,4.510707,4.053529,4.755874,-0.09614333,-0.2561345,1.520381,0.2013819,-0.234078,1.44773,0.05593689,0.3451639,1.714106,-0.1381585,-0.2510188,1.464606,0.2395707,-0.2116862,1.390556,0.06861874,-0.09504972,1.746814,0.06962415,-0.3985914,1.733678,-0.1094819,0.08717554,1.75019,-0.008355415,-0.3924114,1.707372,-0.1476483,-0.1475035,1.774908,0.2681121,-0.1386865,1.73799,NA,NA,Unknown,Open,
0.472168,0.3374023,0.644043,0.5219727,-0.2314453,0.6489258,16,3,1,-1,-3,37,25,3,-5,-8,-10,-7,-5,-13,-17,-7,-24.5,-24.5,-24.5,-6.6875,-6.6875,-6.6875,5.777074,4.268649,5.483928,4.481881,4.049436,4.789847,-0.1072263,-0.2502776,1.510714,0.2314018,-0.2195602,1.44254,0.05612284,0.3452688,1.71395,-0.143382,-0.2421146,1.462303,0.2634649,-0.2007788,1.3965,0.06836183,-0.09517022,1.74687,0.06945421,-0.3988965,1.733892,-0.1102008,0.08702444,1.750023,-0.008418956,-0.3921732,1.707343,-0.1474192,-0.147875,1.774394,0.2691498,-0.1391158,1.73566,NA,NA,Unknown,Unknown,
0.4550781,0.2802734,0.7197266,0.4819336,-0.2050781,0.8105469,-27,-3,-2,-8,40,-52,-1,-6,1,8,66,35,-1,-2,-20,-2,-3.8125,-3.8125,-3.8125,-25.875,-25.875,-25.875,5.792561,4.228709,5.406429,4.442216,3.962327,4.808921,-0.1093034,-0.2632633,1.522062,0.2511648,-0.2295642,1.439623,0.05624441,0.3453012,1.713919,-0.1531116,-0.2536203,1.471343,0.2842778,-0.2079691,1.393593,0.06801049,-0.09533681,1.747021,0.06923658,-0.3992945,1.734195,-0.1103918,0.08707509,1.749979,-0.008548031,-0.39207,1.707461,-0.1475534,-0.1477856,1.774608,0.2739701,-0.1364454,1.741829,NA,NA,Unknown,Unknown,
0.4672852,0.2919922,0.8139648,0.5688477,-0.2280273,0.9345703,-24,-2,-2,-9,-39,-1,-8,-6,-3,-7,-25,-12,-12,-2,-20,-11,19.625,19.625,19.625,-18.875,-18.875,-18.875,5.799345,4.137076,5.386838,4.45424,3.900273,4.763448,-0.005238771,-0.419577,1.414696,0.2450571,-0.2575637,1.455201,0.05634904,0.3453748,1.713803,-0.05485762,-0.4048258,1.355645,0.2784911,-0.2339093,1.388889,0.06753162,-0.09527984,1.74682,0.06885923,-0.3990964,1.734019,-0.1104604,0.08730593,1.749671,-0.008797505,-0.3919148,1.707404,-0.1243155,-0.1881078,1.733008,0.2721785,-0.1366745,1.741378,NA,NA,Unknown,Unknown,
0.515625,0.4462891,0.9462891,0.7568359,-0.355957,0.9716797,7,-2,-12,-12,-21,-29,7,-1,-1,0,24,-15,1,-4,-38,-2,39.25,39.25,39.25,13.6875,13.6875,13.6875,5.795263,4.063177,5.476912,4.476255,3.921375,4.721449,-0.005745576,-0.4193688,1.41385,0.2215879,-0.2708389,1.473369,0.05644678,0.3454304,1.713801,-0.05490771,-0.4048048,1.355561,0.2538102,-0.2517523,1.403571,0.06739487,-0.09522253,1.746657,0.0687274,-0.3987861,1.73375,-0.1105803,0.08735994,1.749535,-0.008856827,-0.3918637,1.70724,-0.1248257,-0.1878965,1.732162,0.2714877,-0.1371635,1.74326,NA,NA,Unknown,Unknown,
0.5732422,0.5693359,0.9033203,0.6298828,-0.3261719,0.6914063,2,5,7,5,7,-16,5,3,-1,7,-53,-13,-5,-2,-6,-3,4.125,4.125,4.125,31.4375,31.4375,31.4375,5.78484,4.084877,5.574991,4.505925,4.0495,4.758453,-0.06081859,-0.2877705,1.587898,0.2088725,-0.2527676,1.455837,0.0565092,0.3454865,1.713787,-0.1248904,-0.2533826,1.530974,0.2394161,-0.2338422,1.402917,0.06728337,-0.09514754,1.746562,0.06861666,-0.3985151,1.733478,-0.110258,0.08763338,1.749242,-0.008925901,-0.3917429,1.706928,-0.1493665,-0.1480498,1.767295,0.2714206,-0.1370113,1.742548,NA,NA,Unknown,Unknown,
0.4902344,0.5058594,0.6674805,0.5097656,-0.2324219,0.5898438,-34,-13,0,9,-2,-8,-4,-14,2,-2,-3,-9,-7,-12,-5,6,-29.6875,-29.6875,-29.6875,17.0625,17.0625,17.0625,5.772441,4.224138,5.524913,4.514988,4.114216,4.806465,-0.08264115,-0.2597509,1.555817,0.2215749,-0.2294627,1.444042,0.05653532,0.345597,1.713881,-0.1466476,-0.2369889,1.479867,0.2574005,-0.2102646,1.391353,0.06707677,-0.09514212,1.746595,0.06845772,-0.3985502,1.733471,-0.1100309,0.08775097,1.748996,-0.009060998,-0.3916683,1.706846,-0.1486083,-0.1480727,1.766749,0.2709478,-0.1371392,1.740507,NA,NA,Unknown,Unknown,
0.487793,0.3798828,0.6181641,0.3530273,-0.1123047,0.7480469,6,6,3,0,-42,-24,-2,0,-1,24,17,12,-3,0,-1,0,-33.25,-33.25,-33.25,-4.9375,-4.9375,-4.9375,5.767796,4.285753,5.437478,4.491455,4.093296,4.84917,-0.09836248,-0.250386,1.533679,0.2468044,-0.2159476,1.438891,0.05662034,0.3456468,1.714119,-0.1638538,-0.2378233,1.469867,0.2839585,-0.2002997,1.396355,0.06700234,-0.09521179,1.746567,0.06846151,-0.3987137,1.733365,-0.1107631,0.08753626,1.748987,-0.009038951,-0.3915782,1.706775,-0.1486306,-0.1484799,1.766246,0.2699344,-0.1376613,1.740165,NA,NA,Unknown,Unknown,
0.3818359,0.1894531,0.7475586,0.5170898,-0.1967773,0.9638672,7,-7,-4,-4,27,-14,2,2,0,-10,-67,-17,-3,22,-23,-10,8.4375,8.4375,8.4375,-21.875,-21.875,-21.875,5.757403,4.242355,5.368949,4.49634,4.04012,4.796533,-0.1367649,-0.2619851,1.471291,0.2657402,-0.2285324,1.44009,0.05673323,0.3458796,1.714707,-0.165768,-0.2499735,1.4457,0.2938303,-0.2080489,1.381044,0.06687982,-0.09510975,1.746541,0.06830842,-0.3983867,1.733218,-0.1102684,0.08816133,1.748716,-0.009140453,-0.3914993,1.706732,-0.1198764,-0.1852636,1.724228,0.2691353,-0.137683,1.739838,NA,NA,Unknown,Unknown,
0.4116211,0.3530273,0.8745117,0.6933594,-0.2724609,0.921875,-13,0,-4,-13,-1,-14,0,19,-2,6,17,11,-12,-11,-11,-6,19.4375,19.4375,19.4375,-22.1875,-22.1875,-22.1875,5.745313,4.165265,5.434937,4.529853,4.016683,4.697664,-0.1024646,-0.2795296,1.480285,0.2398884,-0.2548168,1.459256,0.05671078,0.346087,1.71551,-0.1494316,-0.2671893,1.445529,0.2682417,-0.2378053,1.394235,0.06777982,-0.095028,1.746343,0.06836812,-0.3986907,1.732939,-0.1101473,0.08814476,1.748663,-0.009125984,-0.3914828,1.706661,-0.119537,-0.1855592,1.723183,0.2682057,-0.1378534,1.739411,NA,NA,Unknown,Unknown,
0.652832,0.5205078,0.9111328,0.6850586,-0.3178711,0.715332,9,9,7,5,39,-44,-1,9,3,2,83,49,10,-5,16,6,39.1875,39.1875,39.1875,17.3125,17.3125,17.3125,5.752825,4.119301,5.560347,4.548824,4.022684,4.660162,-0.08608996,-0.2777677,1.474632,0.2157334,-0.2576456,1.459322,0.05665215,0.3462952,1.716166,-0.1338264,-0.2697661,1.44936,0.2452441,-0.2423399,1.398389,0.06749917,-0.09489744,1.746369,0.06814751,-0.3983816,1.732663,-0.1110492,0.08776191,1.748723,-0.009276697,-0.3914693,1.706338,-0.119343,-0.1865057,1.717633,0.2679087,-0.1382229,1.739242,NA,NA,Unknown,Unknown,
0.4985352,0.5307617,0.7617188,0.6386719,-0.2900391,0.6821289,0,0,3,12,61,5,16,10,0,3,-8,-4,3,2,9,-2,-38.875,-38.875,-38.875,1.8125,1.8125,1.8125,5.723265,4.152397,5.576175,4.537427,4.019475,4.701659,-0.04876784,-0.2796231,1.454254,0.2149865,-0.2493795,1.450836,0.05653746,0.3465121,1.716726,-0.04142535,-0.2710232,1.4095,0.2453168,-0.2316341,1.398611,0.06730289,-0.0947881,1.746197,0.06822675,-0.3981484,1.732013,-0.1112485,0.08745603,1.748504,-0.00915439,-0.3915746,1.705671,-0.117674,-0.1858968,1.713926,0.2674692,-0.1385085,1.739057,NA,NA,Unknown,Unknown,
0.5166016,0.5288086,0.6162109,0.6020508,-0.1748047,0.7084961,-5,-4,-3,-2,3,31,4,5,0,5,-12,-5,-12,-7,6,3,-13.6875,-13.6875,-13.6875,-9.0625,-9.0625,-9.0625,5.738132,4.178987,5.516336,4.519773,3.982026,4.729839,-0.09701895,-0.2765583,1.490714,0.2246551,-0.2482586,1.443081,0.05636798,0.3468416,1.717239,-0.1414876,-0.2698186,1.451192,0.2610397,-0.2305654,1.3945,0.06712007,-0.09467039,1.746082,0.06821749,-0.3979485,1.731635,-0.1114274,0.08733144,1.748213,-0.009146625,-0.3915114,1.705271,-0.1426593,-0.1509425,1.75608,0.2671021,-0.1389763,1.737674,NA,NA,Unknown,Unknown,
0.5058594,0.3481445,0.7016602,0.6015625,-0.1665039,0.7016602,-3,1,0,6,-1,10,-1,-3,0,0,-4,2,0,-1,1,1,-1,-1,-1,7.625,7.625,7.625,5.751548,4.160657,5.470289,4.502737,3.918787,4.761134,-0.07177012,-0.2984465,1.467688,0.2401198,-0.2558597,1.451419,0.05625839,0.3470136,1.717783,-0.08019929,-0.2979496,1.463833,0.2708662,-0.2381925,1.395684,0.06778879,-0.09441799,1.74576,0.06811536,-0.397727,1.73139,-0.1113173,0.08733192,1.747764,-0.009252029,-0.391507,1.70505,-0.1187556,-0.185965,1.717102,0.2664231,-0.1383765,1.737269,NA,NA,Unknown,Unknown,
0.5058594,0.309082,0.706543,0.6704102,-0.1894531,0.6870117,-3,-3,0,0,3,3,-5,0,-1,-1,-5,-7,1,0,-4,-1,16.0625,16.0625,16.0625,3.3125,3.3125,3.3125,5.807069,4.044662,5.402192,4.459832,3.7927,4.841883,-0.1074199,-0.3033167,1.520803,0.2494858,-0.2766141,1.468133,0.05615617,0.3471864,1.71794,-0.1525369,-0.2837092,1.460193,0.2788133,-0.2539814,1.398286,0.06814958,-0.09420419,1.745565,0.06802982,-0.3975191,1.731311,-0.1110811,0.08755723,1.747359,-0.009329529,-0.3914878,1.704988,-0.152255,-0.1482618,1.762133,0.267147,-0.1380666,1.73819,NA,NA,Unknown,Unknown,
0.5336914,0.3994141,0.6875,0.6401367,-0.2167969,0.6484375,0,-2,0,-3,-8,5,6,-2,0,1,29,1,-3,-3,9,-2,21.3125,21.3125,21.3125,-13.6875,-13.6875,-13.6875,5.869745,3.937806,5.358633,4.400112,3.674906,4.914116,-0.09005116,-0.3393977,1.575028,0.2493677,-0.3084643,1.518531,0.0559871,0.3473984,1.718388,-0.1466823,-0.3066658,1.473,0.2731824,-0.2835533,1.461313,0.06940421,-0.09416482,1.744999,0.06814291,-0.3975,1.73116,-0.110946,0.0875404,1.747046,-0.00922848,-0.3916189,1.704884,-0.1527364,-0.1479346,1.763398,0.2691083,-0.1377438,1.741265,NA,NA,Unknown,Unknown,
0.5810547,0.3857422,0.5908203,0.75,-0.1953125,0.5878906,1,0,0,0,-2,4,1,0,-1,1,5,-3,-2,-3,1,8,52.5,52.5,52.5,3.5625,3.5625,3.5625,5.969792,3.805009,5.303177,4.340681,3.531386,4.990286,-0.09086315,-0.3677355,1.608759,0.2581969,-0.3530774,1.522985,0.05591728,0.3475018,1.718545,-0.1394031,-0.3316084,1.53525,0.2729727,-0.3213001,1.463462,0.07021948,-0.09405084,1.744722,0.06831147,-0.3974234,1.731107,-0.1108393,0.08769036,1.746898,-0.00915264,-0.3916702,1.704846,-0.1502814,-0.1476814,1.766556,0.271421,-0.142487,1.742545,NA,NA,Unknown,Lasso,
0.6845703,0.3515625,0.5849609,0.8261719,-0.2646484,0.4570313,-1,-2,0,-9,-1,0,-3,-1,0,-1,5,-1,-1,-1,-1,-13,35.6875,35.6875,35.6875,-16.8125,-16.8125,-16.8125,6.07815,3.654114,5.23717,4.189469,3.32577,5.131272,-0.1218839,-0.4151235,1.586942,0.2631834,-0.4041272,1.525652,0.05589668,0.3475411,1.718524,-0.1414394,-0.3868037,1.526227,0.2641894,-0.3685418,1.476667,0.07060045,-0.0940231,1.744569,0.06825021,-0.3974088,1.731134,-0.1111394,0.08735649,1.746968,-0.009371857,-0.391701,1.704977,-0.1494896,-0.1568672,1.766428,0.2742067,-0.1506482,1.740586,NA,NA,Open,Unknown,
0.7075195,0.4125977,0.3969727,0.9008789,-0.159668,0.3149414,-3,-3,-1,1,-2,1,-1,0,-1,0,2,-1,-1,-1,-1,-4,68.625,68.625,68.625,-27.625,-27.625,-27.625,6.274984,3.470664,5.11712,3.963538,3.147986,5.355744,-0.134266,-0.4505792,1.619592,0.2715818,-0.4485511,1.542306,0.05585345,0.3475698,1.71846,-0.1465256,-0.4289745,1.559106,0.2457525,-0.4299648,1.507117,0.07064189,-0.09414764,1.744496,0.06747962,-0.3979949,1.731135,-0.1115295,0.08695486,1.747019,-0.01018913,-0.3925686,1.705178,-0.1486797,-0.1698241,1.764871,0.2773145,-0.1621366,1.73142,NA,NA,Unknown,Unknown,
1.06543,0.3994141,0.2543945,1.121582,-0.293457,0.1967773,0,-1,-1,-1,-1,0,0,0,-2,-2,-2,-1,-4,-5,-1,0,22.25,22.25,22.25,-9.5625,-9.5625,-9.5625,6.577031,3.194577,4.884315,3.496726,2.988367,5.807845,-0.1470654,-0.4774924,1.645546,0.2813158,-0.4768614,1.589145,0.05586496,0.347594,1.718529,-0.1535479,-0.4544746,1.597811,0.2398167,-0.4901898,1.561793,0.06816773,-0.0953474,1.744744,0.06608424,-0.4000044,1.731562,-0.1121911,0.08625289,1.747238,-0.01121894,-0.393852,1.7056,-0.1473662,-0.1788603,1.764051,0.2800449,-0.1733001,1.721851,NA,NA,NotTracked,NotTracked,
1.094238,0.2954102,0.09228516,1.055176,-0.2856445,0.08447266,1,0,0,-6,0,1,-3,-1,0,-1,-3,0,2,-4,-3,-2,-9.625,-9.625,-9.625,29,29,29,6.826614,3.034899,4.617702,2.861303,2.89102,6.497652,-0.1650185,-0.5023908,1.672963,0.2910987,-0.491532,1.621765,0.05584542,0.3476632,1.718621,-0.1955976,-0.5075402,1.658464,0.2520363,-0.5035104,1.600483,0.06732153,-0.09596244,1.744913,0.06568568,-0.4015135,1.731908,-0.1126361,0.08570708,1.747393,-0.01153447,-0.3944097,1.705878,-0.144671,-0.1910761,1.765569,0.280446,-0.1793246,1.716788,NA,NA,NotTracked,NotTracked,
1.019531,0.2749023,-0.05761719,1.03418,-0.2773438,0.03710938,-1,1,0,-1,-1,-1,-1,-2,0,-2,-12,-4,-2,-1,-1,1,-32.1875,-32.1875,-32.1875,7.75,7.75,7.75,7.078617,2.946541,4.310403,2.50257,2.867462,6.898382,-0.1756179,-0.5042394,1.698187,0.2943491,-0.4958198,1.63602,0.05589011,0.347793,1.718585,-0.2078767,-0.5099997,1.6992,0.257248,-0.5068528,1.617182,0.06676871,-0.09617353,1.744766,0.06547584,-0.4019004,1.732019,-0.1127989,0.08549253,1.747449,-0.01176167,-0.3949501,1.706157,-0.1443868,-0.1947171,1.766138,0.2807051,-0.181996,1.714884,NA,NA,NotTracked,NotTracked,
