ALX,ALY,ALZ,ARX,ARY,ARZ,EMG0L,EMG1L,EMG2L,EMG3L,EMG4L,EMG5L,EMG6L,EMG7L,EMG0R,EMG1R,EMG2R,EMG3R,EMG4R,EMG5R,EMG6R,EMG7R,GLX,GLY,GLZ,GRX,GRY,GRZ,ORL,OPL,OYL,ORR,OPR,OYR,LHNX,LHNY,LHNZ,RHNX,RHNY,RHNZ,HX,HY,HZ,LTX,LTY,LTZ,RTX,RTY,RTZ,SpineMidX,SpineMidY,SpineMidZ,SpineBaseX,SpineBaseY,SpineBaseZ,ShoulderLeftX,ShoulderLeftY,ShoulderLeftZ,ShoulderRightX,ShoulderRightY,ShoulderRightZ,ElbowLeftX,ElbowLeftY,ElbowLeftZ,ElbowRightX,ElbowRightY,ElbowRightZ,Myo_Pose_left,Myo_Pose_Right,Kinect_pose_left,Kinect_pose_right
0.940918,0.2231445,-0.1015625,0.9609375,-0.2568359,-0.06152344,-1,-1,-1,-1,-3,-2,-1,1,-2,0,0,-2,-2,-2,-1,0,-1.125,-1.125,-1.125,0.125,0.125,0.125,8.170627,2.916428,3.683777,2.11846,2.916562,4.653135,-0.1746672,-0.5598626,1.657049,0.2392218,-0.55221,1.623904,0.03762124,0.1951307,1.725788,-0.1271232,-0.5238226,1.634842,0.2743794,-0.5476651,1.597493,0.03695861,-0.2175976,1.726913,0.03061529,-0.5141569,1.713751,-0.1168344,-0.04813985,1.710996,-0.04379247,-0.501031,1.683329,-0.1773605,-0.2850348,1.708583,0.2402582,-0.2865635,1.692556,NA,NA,NotTracked,NotTracked,
0.9379883,0.2285156,-0.09472656,0.9633789,-0.2490234,-0.06347656,-1,-1,0,-1,0,0,1,1,-1,-2,-1,-2,-2,-1,-2,-1,1.25,1.25,1.25,-0.3125,-0.3125,-0.3125,8.170052,2.915675,3.685152,2.11846,2.916562,4.653135,-0.1743291,-0.5593694,1.656471,0.2386757,-0.5520198,1.623235,0.03758227,0.1951283,1.725865,-0.1270214,-0.520729,1.634652,0.2737046,-0.5474041,1.596795,0.03664178,-0.2174361,1.727067,0.03044997,-0.5140618,1.713845,-0.1164689,-0.04805112,1.710847,-0.04395791,-0.5009112,1.683418,-0.1773835,-0.2854735,1.708738,0.240267,-0.2865059,1.692575,NA,NA,NotTracked,NotTracked,
0.9389648,0.2231445,-0.1030273,0.9658203,-0.2592773,-0.05761719,-1,0,-1,-2,-2,-3,0,0,-1,0,0,-1,-1,-1,-2,-1,1.5,1.5,1.5,-0.3125,-0.3125,-0.3125,8.171785,2.915004,3.686357,2.118578,2.916332,4.652746,-0.1740774,-0.5592105,1.65755,0.238951,-0.5520374,1.624008,0.03746653,0.1951625,1.725969,-0.1271601,-0.5287183,1.635478,0.2735262,-0.5460902,1.595894,0.03679311,-0.2175291,1.727078,0.03048766,-0.5140789,1.713859,-0.1163025,-0.04817561,1.710772,-0.04391912,-0.5009181,1.683434,-0.1774598,-0.2856461,1.708836,0.2402683,-0.2863888,1.692577,NA,NA,NotTracked,NotTracked,
0.9399414,0.2324219,-0.1025391,0.9599609,-0.2514648,-0.06542969,-1,-3,-1,-2,-1,0,1,-1,-1,-2,-1,-1,-1,-1,-1,-2,1.4375,1.4375,1.4375,1.125,1.125,1.125,8.169895,2.914674,3.690536,2.117778,2.916939,4.654602,-0.1746094,-0.5598589,1.657947,0.2392978,-0.5523049,1.623904,0.03738815,0.195205,1.725981,-0.1271202,-0.5288578,1.635418,0.2737963,-0.5465648,1.596826,0.03675533,-0.2175041,1.727122,0.03045391,-0.5140395,1.713897,-0.1161114,-0.04795758,1.710721,-0.0439527,-0.5008242,1.683467,-0.1774611,-0.2855257,1.708868,0.2402734,-0.2864262,1.692598,NA,NA,NotTracked,NotTracked,
0.9384766,0.230957,-0.1069336,0.9599609,-0.2548828,-0.05419922,-1,0,-2,0,-2,-1,-1,-1,-2,-2,-1,-1,-4,-1,-1,0,-0.25,-0.25,-0.25,-0.4375,-0.4375,-0.4375,8.170514,2.914881,3.690092,2.117874,2.91672,4.654863,-0.175071,-0.5595683,1.657298,0.2390152,-0.5513897,1.622781,0.03734798,0.195186,1.726067,-0.1272969,-0.5282384,1.635433,0.2755904,-0.5473593,1.598719,0.03664025,-0.2174494,1.72717,0.03038746,-0.5140136,1.713966,-0.1159657,-0.0479548,1.710645,-0.04402024,-0.5007923,1.683565,-0.1775261,-0.285363,1.708913,0.2402643,-0.2864425,1.692576,NA,NA,NotTracked,NotTracked,
0.9389648,0.2250977,-0.09814453,0.9614258,-0.2524414,-0.06445313,-2,0,0,0,2,1,0,1,-1,-1,-3,-1,-1,-1,-1,-1,0.3125,0.3125,0.3125,-2,-2,-2,8.170042,2.915104,3.690384,2.116837,2.916273,4.653222,-0.1746986,-0.5598111,1.657038,0.2390307,-0.5514799,1.623212,0.03729673,0.1952211,1.726102,-0.1271747,-0.5363165,1.63547,0.273986,-0.5469707,1.596161,0.03663698,-0.2174508,1.727091,0.03039603,-0.5140045,1.713947,-0.1159419,-0.04797831,1.710632,-0.04402035,-0.5007976,1.683556,-0.177519,-0.2853391,1.708821,0.2402598,-0.2864655,1.692461,NA,NA,NotTracked,NotTracked,
0.9389648,0.2260742,-0.1108398,0.9555664,-0.2470703,-0.06152344,-2,0,0,1,0,0,-2,0,-1,-1,-2,-4,-2,0,-3,-1,0,0,0,-2.5625,-2.5625,-2.5625,8.171535,2.914858,3.689066,2.115824,2.916007,4.649162,-0.1742472,-0.5592343,1.65652,0.2392822,-0.5514538,1.623282,0.0372182,0.1952742,1.72608,-0.1274147,-0.5449323,1.636379,0.276018,-0.5463319,1.599097,0.03633471,-0.2173091,1.727041,0.03042533,-0.5139685,1.713882,-0.1164092,-0.04788719,1.71062,-0.04399455,-0.5007824,1.683494,-0.1775607,-0.2854561,1.708742,0.2402703,-0.286455,1.692449,NA,NA,NotTracked,NotTracked,
0.9384766,0.2275391,-0.1005859,0.9589844,-0.2587891,-0.05712891,-1,-1,0,-2,0,1,-2,1,0,-2,-1,-2,-1,0,0,-2,-0.0625,-0.0625,-0.0625,-0.8125,-0.8125,-0.8125,8.171389,2.914428,3.689218,2.115116,2.91561,4.647676,-0.1741993,-0.5597802,1.656055,0.2386587,-0.5519037,1.623262,0.03712581,0.1952078,1.725953,-0.1271641,-0.5398135,1.636151,0.2735064,-0.5460682,1.596371,0.0364297,-0.2173523,1.72689,0.03049785,-0.5139901,1.713774,-0.1162465,-0.04791316,1.710538,-0.04394883,-0.5008194,1.683427,-0.1774305,-0.2856222,1.70861,0.240279,-0.2863897,1.692339,NA,NA,NotTracked,NotTracked,
0.9526367,0.2294922,-0.1005859,0.965332,-0.2514648,-0.0625,4,1,6,4,-1,1,6,3,-1,-1,-2,-1,-1,-2,-1,-2,0.5,0.5,0.5,1.75,1.75,1.75,8.168121,2.914298,3.69296,2.116798,2.915199,4.647358,-0.1741383,-0.5589687,1.656772,0.2383782,-0.550809,1.621583,0.0370475,0.1952159,1.725881,-0.1270751,-0.5218116,1.634454,0.2752489,-0.5475246,1.598131,0.03660605,-0.2174752,1.726871,0.03032731,-0.513962,1.713927,-0.1161284,-0.04794919,1.710471,-0.04410394,-0.5008087,1.683602,-0.1774872,-0.2855183,1.708564,0.2403073,-0.2862636,1.692361,NA,NA,NotTracked,NotTracked,
1.379883,0.3046875,0.008300781,0.9692383,-0.246582,-0.06884766,-12,-22,10,19,-4,-8,-7,-3,-1,0,-1,0,0,-4,0,-1,-50.625,-50.625,-50.625,4.5625,4.5625,4.5625,7.597701,2.974812,4.197476,2.100024,2.918849,4.672341,-0.1740603,-0.5592661,1.656559,0.227583,-0.5369818,1.598271,0.03702727,0.1952154,1.725832,-0.1271759,-0.5348944,1.6362,0.2514981,-0.5229855,1.561986,0.03646179,-0.2174982,1.726737,0.03025337,-0.5139456,1.713784,-0.1163688,-0.04805683,1.710331,-0.04418299,-0.5007558,1.683492,-0.1774421,-0.2854018,1.708518,0.2410136,-0.2853394,1.695099,NA,NA,NotTracked,NotTracked,
1.125,0.5683594,0.3183594,0.9321289,-0.2539063,-0.06152344,-4,-16,-48,-10,0,2,-1,-1,1,-2,-1,0,-1,0,-2,0,20.3125,20.3125,20.3125,8.0625,8.0625,8.0625,6.922466,3.229109,4.906632,2.093257,2.922336,4.689935,-0.1744228,-0.5585186,1.655107,0.2001511,-0.4791462,1.548448,0.03680235,0.1951422,1.725595,-0.1272783,-0.5282127,1.635646,0.2183194,-0.4603144,1.512119,0.03548381,-0.2171504,1.726348,0.02686538,-0.5129352,1.712803,-0.1162248,-0.0480221,1.710277,-0.0479682,-0.4991468,1.6827,-0.1774427,-0.2850732,1.70861,0.243133,-0.2704896,1.70764,NA,NA,NotTracked,Unknown,
0.8120117,0.9541016,0.5996094,0.9638672,-0.2587891,-0.05126953,12,18,41,81,38,7,5,8,0,0,-1,0,-1,0,0,0,60.875,60.875,60.875,-3.9375,-3.9375,-3.9375,6.671453,3.676428,5.337522,2.117297,2.919122,4.670904,-0.1741442,-0.5595957,1.657124,0.1424077,-0.3826069,1.523009,0.03661735,0.1951808,1.725502,-0.1268278,-0.5366245,1.636,0.1480206,-0.3583024,1.472967,0.03320162,-0.2162135,1.726071,0.02448695,-0.5120526,1.712537,-0.1164792,-0.04800567,1.710373,-0.05002445,-0.498309,1.682681,-0.1774378,-0.2853933,1.708662,0.246908,-0.2520224,1.710719,NA,NA,NotTracked,Unknown,
0.3754883,0.5830078,0.6552734,0.9736328,-0.2475586,-0.06054688,-14,-3,7,4,3,-4,0,0,-1,0,-1,-2,-2,-2,-1,1,33.625,33.625,33.625,-11,-11,-11,6.47338,4.373877,5.764667,2.13504,2.913064,4.63676,-0.1740485,-0.5600346,1.657985,0.09715522,-0.2795734,1.518394,0.03620377,0.1953133,1.725459,-0.1273302,-0.5234556,1.635182,0.1046189,-0.2419174,1.469883,0.03302226,-0.2152742,1.726334,0.0243717,-0.5106047,1.712596,-0.1168732,-0.04796666,1.710516,-0.0499998,-0.4975353,1.682701,-0.1773244,-0.2849004,1.708492,0.2616255,-0.2383884,1.679747,NA,NA,NotTracked,Open,
0.07666016,0.4560547,0.5351563,0.9614258,-0.2543945,-0.05517578,14,1,-7,-7,-6,-4,-1,1,0,-1,-2,-1,-1,-1,-1,-2,84.5625,84.5625,84.5625,-11.75,-11.75,-11.75,6.508939,4.856708,6.077911,2.147749,2.91681,4.601946,-0.173994,-0.5588806,1.655939,0.05452015,-0.1743161,1.528046,0.03609902,0.1955711,1.725845,-0.1268314,-0.515111,1.635177,0.06719999,-0.1457108,1.496107,0.03325065,-0.2147667,1.72662,0.02439896,-0.5090731,1.712942,-0.1173107,-0.04895066,1.710822,-0.04971285,-0.4960309,1.683596,-0.1771965,-0.284392,1.708385,0.2709476,-0.229755,1.64045,NA,NA,NotTracked,Unknown,
-0.002441406,0.4545898,0.421875,0.9619141,-0.2602539,-0.05615234,49,16,-1,-5,-3,-8,2,15,1,-1,-2,-2,-1,-1,-2,-2,47.9375,47.9375,47.9375,-2.125,-2.125,-2.125,6.624741,5.214629,6.350973,2.167992,2.924436,4.566569,-0.1730087,-0.5570763,1.653296,0.02321248,-0.1310533,1.544892,0.03584157,0.1959258,1.726266,-0.1268267,-0.5230566,1.635126,0.02488693,-0.09328197,1.512635,0.03315155,-0.214455,1.726753,0.02416366,-0.5086009,1.712949,-0.1157682,-0.0482081,1.709843,-0.05000584,-0.4954993,1.684487,-0.1771244,-0.2839572,1.70822,0.2639377,-0.2223163,1.611541,NA,NA,NotTracked,Unknown,
0.05224609,0.5864258,0.3647461,0.9506836,-0.2519531,-0.06445313,-5,-8,2,2,1,-2,-2,3,-1,1,-2,-2,-3,-1,-1,-2,11.375,11.375,11.375,6.5,6.5,6.5,6.706149,5.384892,6.574008,2.166639,2.92642,4.574551,-0.1723425,-0.5580377,1.65434,-0.04235008,-0.1075428,1.574937,0.03599522,0.196714,1.72756,-0.1280097,-0.5325222,1.639402,-0.05729274,-0.1637053,1.573114,0.0332283,-0.2137357,1.72709,0.0242325,-0.5082324,1.712935,-0.1149364,-0.04813402,1.708988,-0.04993567,-0.4952955,1.684873,-0.1767896,-0.2831687,1.708261,0.2534368,-0.2187806,1.597555,NA,NA,NotTracked,Unknown,
0.08789063,0.7749023,0.277832,0.9521484,-0.2358398,-0.06591797,-34,-38,-17,-6,-2,0,4,-3,-2,-1,0,-2,0,0,0,-1,-7.375,-7.375,-7.375,6.6875,6.6875,6.6875,6.737285,5.412781,6.673324,2.157768,2.925222,4.597009,-0.1731859,-0.5578184,1.655121,-0.04109281,-0.1120014,1.575115,0.03574124,0.1973342,1.7282,-0.1271005,-0.5228536,1.636052,-0.05441114,-0.1672884,1.571785,0.03299305,-0.2131416,1.727113,0.02408658,-0.5079656,1.712655,-0.1145266,-0.04913855,1.70727,-0.0500191,-0.4951626,1.684894,-0.1765911,-0.28243,1.708122,0.2500733,-0.218219,1.59621,NA,NA,NotTracked,Unknown,
0.09521484,0.9335938,0.28125,0.9624023,-0.2480469,-0.06640625,-14,-23,-19,2,-2,-7,-9,-5,-2,-1,-1,0,-2,0,-2,-1,-26.25,-26.25,-26.25,-1.1875,-1.1875,-1.1875,6.692639,5.387496,6.574893,2.163143,2.922863,4.59374,-0.1733336,-0.5593029,1.656024,0.02474571,-0.1255222,1.544726,0.03500912,0.1975669,1.728724,-0.1269692,-0.5418519,1.637296,0.01176299,-0.1750533,1.581197,0.0326223,-0.2128175,1.727333,0.02379603,-0.5075907,1.712578,-0.1144966,-0.04877909,1.707583,-0.05020272,-0.4949458,1.685091,-0.1766162,-0.2818155,1.708104,0.2457758,-0.2207469,1.598909,NA,NA,NotTracked,Unknown,
0.006835938,0.9355469,0.46875,0.9575195,-0.262207,-0.05322266,9,-3,-3,-3,-9,-5,2,9,-1,-2,-1,-3,-1,-1,-1,0,0.0625,0.0625,0.0625,8.75,8.75,8.75,6.592373,5.402978,6.249092,2.172271,2.923589,4.59116,-0.1735954,-0.5587222,1.655468,0.05081945,-0.1167771,1.525903,0.03392809,0.1975861,1.728958,-0.1267267,-0.5182428,1.63355,0.02624684,-0.1276686,1.5266,0.03213134,-0.2124964,1.727513,0.02348828,-0.5074141,1.712677,-0.1207989,-0.0518497,1.711917,-0.05044737,-0.4949539,1.685173,-0.176875,-0.281879,1.70831,0.2468938,-0.2254113,1.612384,NA,NA,NotTracked,Unknown,
-0.2983398,0.8364258,0.5532227,0.9536133,-0.2900391,-0.03857422,-12,-2,-9,-19,-13,-5,-11,-6,0,-1,0,-1,-1,-1,-1,-1,30.5,30.5,30.5,18,18,18,6.520517,5.386455,5.786957,2.179832,2.921784,4.611157,-0.1739124,-0.559183,1.655676,0.04778709,-0.1273931,1.597832,0.03216557,0.1976851,1.727808,-0.1270394,-0.5297925,1.633639,0.09294739,-0.1118426,1.483,0.03142679,-0.2123573,1.727525,0.02292471,-0.5074762,1.712995,-0.1233937,-0.0531844,1.712622,-0.05114932,-0.4952758,1.685451,-0.1777254,-0.2820776,1.708794,0.2498047,-0.2246184,1.621925,NA,NA,NotTracked,Unknown,
-0.1577148,0.7075195,0.762207,0.9624023,-0.2573242,-0.04052734,20,16,2,5,5,1,4,8,0,0,0,1,0,0,-2,1,59,59,59,19.3125,19.3125,19.3125,6.536776,5.262753,4.959521,2.156869,2.91323,4.669265,-0.1775806,-0.5616235,1.660547,0.1777241,-0.1484829,1.487164,0.0299838,0.1975185,1.725935,-0.1281673,-0.5320047,1.635616,0.1986939,-0.1435498,1.45241,0.03018161,-0.2123142,1.727526,0.02224004,-0.5074636,1.713268,-0.1253588,-0.05248047,1.713466,-0.05197995,-0.495607,1.685694,-0.1785872,-0.2820269,1.709319,0.2499985,-0.2376159,1.649467,NA,NA,NotTracked,Unknown,
-0.1118164,0.7529297,0.765625,0.9682617,-0.2631836,-0.03466797,-3,-7,-9,-5,-5,0,-8,-4,-1,-1,-1,0,0,1,-2,-1,40.3125,40.3125,40.3125,13.125,13.125,13.125,6.575977,5.19892,4.684829,2.120342,2.906302,4.747571,-0.1790594,-0.5622079,1.662644,0.2416253,-0.1563196,1.484378,0.02853706,0.1972278,1.724459,-0.1318152,-0.539489,1.641,0.2765691,-0.1462545,1.472,0.02902061,-0.2125921,1.727381,0.02196009,-0.5076426,1.713394,-0.1267838,-0.05307345,1.713994,-0.05247712,-0.4960565,1.685643,-0.179157,-0.2823445,1.709843,0.2529387,-0.2435432,1.668508,NA,NA,NotTracked,Unknown,
-0.203125,0.7280273,0.7685547,0.9560547,-0.2480469,-0.04052734,10,18,12,2,-1,1,0,3,-1,-3,-1,0,-3,0,0,0,23.6875,23.6875,23.6875,-3.0625,-3.0625,-3.0625,6.583539,5.149368,4.5153,2.137136,2.906341,4.734725,-0.1776375,-0.5607397,1.661828,0.2640488,-0.1750582,1.497659,0.0273113,0.1969653,1.722759,-0.1308281,-0.525601,1.638602,0.3096989,-0.1793361,1.498399,0.02846035,-0.2127216,1.727204,0.0215756,-0.507769,1.713721,-0.1241727,-0.05180828,1.712916,-0.05288079,-0.4961831,1.685661,-0.1795849,-0.2823987,1.710114,0.2496566,-0.2343777,1.695676,NA,NA,NotTracked,Unknown,
-0.152832,0.753418,0.6748047,0.9604492,-0.2470703,-0.06787109,3,-2,1,3,0,-1,12,7,0,0,-2,-1,0,-1,-1,0,-4.4375,-4.4375,-4.4375,-18.375,-18.375,-18.375,6.560333,5.118167,4.410095,2.155608,2.900766,4.683138,-0.1765096,-0.5599064,1.660294,0.2700769,-0.1794023,1.498947,0.02684625,0.1968953,1.721654,-0.1314477,-0.520573,1.638901,0.3162049,-0.1990447,1.508563,0.02810303,-0.2128196,1.726923,0.02150651,-0.5078034,1.71372,-0.1236845,-0.05132773,1.712551,-0.05304638,-0.4962902,1.685549,-0.1796942,-0.2825076,1.710402,0.2485617,-0.2343074,1.706201,NA,NA,NotTracked,Unknown,
-0.08544922,0.7851563,0.6396484,0.9633789,-0.2392578,-0.07177734,2,3,-7,-10,-6,-3,-5,1,-2,0,-1,0,-1,-2,-1,-1,-9.9375,-9.9375,-9.9375,-13.1875,-13.1875,-13.1875,6.538033,5.099974,4.397095,2.126554,2.898542,4.675737,-0.1760932,-0.559219,1.658897,0.2685245,-0.1838978,1.497552,0.02689544,0.1967968,1.720578,-0.1311084,-0.5202193,1.638946,0.3181948,-0.2008784,1.511462,0.02803426,-0.2128735,1.726543,0.02163417,-0.507853,1.713657,-0.121918,-0.05081725,1.711651,-0.05295925,-0.4964008,1.685359,-0.1796593,-0.2829721,1.710267,0.2585568,-0.288401,1.705806,NA,NA,NotTracked,Unknown,
-0.1147461,0.7446289,0.5371094,0.9589844,-0.2436523,-0.0546875,-4,-6,-6,-4,-4,-8,-6,-2,-1,-3,0,-2,-1,-2,0,-1,-5.125,-5.125,-5.125,-6,-6,-6,6.523034,5.069624,4.42157,2.109618,2.897877,4.678662,-0.1766173,-0.5597438,1.659227,0.2640559,-0.1936843,1.493143,0.0271114,0.1966845,1.719911,-0.1317432,-0.5184727,1.639947,0.313887,-0.2065132,1.502455,0.02802637,-0.2129446,1.726255,0.02174612,-0.5079193,1.713587,-0.1231003,-0.05241042,1.711285,-0.0528269,-0.4965283,1.685101,-0.1795254,-0.2839967,1.709972,0.2434493,-0.2350473,1.714036,NA,NA,NotTracked,Unknown,
-0.01269531,0.6499023,0.4873047,0.9711914,-0.2314453,-0.05517578,-3,1,-4,-9,-6,-3,3,0,-1,-2,0,-1,-1,-1,0,-1,11.125,11.125,11.125,-4.625,-4.625,-4.625,6.525859,4.940779,4.464294,2.113941,2.895127,4.667012,-0.1762372,-0.559618,1.657777,0.2595855,-0.2207118,1.483953,0.02748634,0.1966839,1.719459,-0.1315118,-0.5436325,1.64172,0.3071454,-0.2172323,1.4815,0.02805013,-0.2130009,1.725983,0.02176542,-0.5079652,1.713551,-0.1219624,-0.05206449,1.710304,-0.05281432,-0.4966164,1.684956,-0.1791436,-0.2837631,1.709388,0.2434358,-0.2340325,1.720129,NA,NA,NotTracked,Closed,
0.1088867,0.6152344,0.4731445,0.9692383,-0.2314453,-0.06298828,2,-2,-2,0,-1,-2,-1,1,-2,-1,-2,0,-2,-1,-2,-2,33.5,33.5,33.5,-6.375,-6.375,-6.375,6.563085,4.733478,4.521343,2.123756,2.890803,4.642319,-0.1763071,-0.559934,1.658144,0.2564872,-0.2692753,1.479892,0.02782025,0.1966884,1.719236,-0.1317597,-0.5214275,1.639503,0.2950401,-0.251583,1.466911,0.02818258,-0.2129306,1.725788,0.02185177,-0.5079582,1.713553,-0.1204899,-0.05130585,1.70978,-0.05274079,-0.4966172,1.684901,-0.179004,-0.2833575,1.70875,0.2599817,-0.2307652,1.713321,NA,NA,NotTracked,Closed,
0.3232422,0.5986328,0.4746094,0.9726563,-0.2285156,-0.05712891,1,2,2,-2,-1,-1,-2,-1,-2,-1,-1,-2,-3,-1,-3,0,69.5625,69.5625,69.5625,-4.875,-4.875,-4.875,6.635713,4.438926,4.600347,2.115945,2.890995,4.64086,-0.1765074,-0.5587196,1.656495,0.2508967,-0.3418121,1.477748,0.02795431,0.1966428,1.719192,-0.1312298,-0.5237442,1.637921,0.2838048,-0.3537119,1.467643,0.02838638,-0.2129781,1.725369,0.02209058,-0.507992,1.713281,-0.119608,-0.05086813,1.709268,-0.05251376,-0.4966434,1.6845,-0.1787354,-0.2825708,1.708139,0.2724503,-0.2417799,1.697075,NA,NA,NotTracked,Unknown,
0.6806641,0.6601563,0.3818359,0.965332,-0.2412109,-0.05664063,-4,-4,-3,-1,-1,-2,1,1,-1,-2,-2,-2,1,-1,0,-1,57.5,57.5,57.5,2.3125,2.3125,2.3125,6.765523,3.986221,4.654539,2.095426,2.895799,4.661653,-0.1765428,-0.559337,1.656669,0.2477531,-0.4120075,1.496721,0.02843118,0.1965393,1.719087,-0.1381977,-0.5571174,1.653756,0.2802853,-0.4275295,1.4851,0.02924389,-0.2132666,1.725224,0.02224856,-0.5080243,1.713345,-0.1192885,-0.0504519,1.708767,-0.05237897,-0.4966573,1.684486,-0.1786186,-0.2825449,1.70781,0.2552485,-0.2466947,1.70635,NA,NA,NotTracked,Unknown,
0.8999023,0.5649414,0.2871094,0.9663086,-0.2392578,-0.06640625,-12,-19,-16,-3,-3,0,-1,-5,-2,-2,0,-1,0,-1,-2,0,70.8125,70.8125,70.8125,5.1875,5.1875,5.1875,6.871961,3.606259,4.653368,2.073243,2.900068,4.691846,-0.1762807,-0.5591839,1.657889,0.248226,-0.4705502,1.531843,0.02876077,0.1964685,1.719189,-0.1314966,-0.51816,1.639,0.2803422,-0.4741585,1.5141,0.02950772,-0.213232,1.7251,0.02288669,-0.5083623,1.713322,-0.1180627,-0.04897693,1.70867,-0.05177876,-0.496825,1.684393,-0.1786114,-0.2838471,1.707546,0.2502545,-0.2555728,1.704584,NA,NA,NotTracked,Unknown,
1.10498,0.4760742,0.0625,0.9619141,-0.2548828,-0.07421875,5,12,9,1,1,-1,1,3,-2,-2,-1,-1,-2,-3,-1,-1,56.625,56.625,56.625,7.3125,7.3125,7.3125,7.209867,3.184561,4.420154,2.017762,2.911909,4.7648,-0.1769333,-0.5596188,1.657848,0.245051,-0.5170322,1.566136,0.02966629,0.1965882,1.719427,-0.1319804,-0.5237345,1.640012,0.2771299,-0.5200766,1.53635,0.02988418,-0.2133536,1.725068,0.02378423,-0.5089031,1.713294,-0.1174111,-0.04835272,1.708667,-0.05089884,-0.4970338,1.68419,-0.1784844,-0.2845573,1.707639,0.2457193,-0.2694311,1.696722,NA,NA,NotTracked,NotTracked,
1.160645,0.6884766,-0.1552734,0.9501953,-0.2504883,-0.08740234,-7,-4,-3,-1,-4,0,-2,-5,-1,-3,1,-1,0,-3,0,-2,26.6875,26.6875,26.6875,4.5,4.5,4.5,7.640464,2.960583,4.02216,1.974537,2.922184,4.818972,-0.1775326,-0.5596148,1.658733,0.2423013,-0.5406642,1.601551,0.03021578,0.1965627,1.719841,-0.1322538,-0.5255862,1.640322,0.2764655,-0.5411133,1.579,0.03029467,-0.213573,1.724994,0.02496931,-0.5100244,1.713276,-0.1170924,-0.04826552,1.708687,-0.04976888,-0.4977576,1.684001,-0.1785598,-0.2846045,1.70766,0.2422155,-0.2766642,1.692396,NA,NA,NotTracked,NotTracked,
0.9990234,0.2758789,-0.1884766,0.9492188,-0.2646484,-0.08300781,-3,-1,-1,0,0,12,3,-1,1,-2,-1,-1,-1,0,-1,-2,-44.875,-44.875,-44.875,4.5,4.5,4.5,8.011512,2.896912,3.588115,1.955273,2.932344,4.847291,-0.17752,-0.5586013,1.658511,0.2396214,-0.543801,1.624623,0.03207409,0.1966324,1.720446,-0.1319349,-0.5235211,1.639535,0.2630886,-0.5478409,1.586334,0.03155449,-0.2143086,1.725017,0.02565138,-0.5105435,1.713341,-0.1172997,-0.04817,1.708971,-0.04901467,-0.4981592,1.683981,-0.1786638,-0.2844412,1.707857,0.2410763,-0.2789079,1.691135,NA,NA,NotTracked,NotTracked,
0.9838867,0.04931641,-0.06152344,0.9550781,-0.2607422,-0.07617188,-11,-5,-3,-8,0,-12,-4,-2,-1,0,0,-1,0,-2,-1,-1,98.625,98.625,98.625,0.4375,0.4375,0.4375,8.255975,2.887561,3.399762,1.963804,2.934503,4.846668,-0.1783713,-0.558693,1.658436,0.2426837,-0.5497965,1.631925,0.03281516,0.1967442,1.720746,-0.131919,-0.5220258,1.639247,0.2808653,-0.5489876,1.605896,0.03194149,-0.2144128,1.725077,0.02655984,-0.5111124,1.713486,-0.1169272,-0.04781775,1.709083,-0.04802427,-0.4986193,1.684135,-0.1787558,-0.2845986,1.707995,0.2411237,-0.2803251,1.690809,NA,NA,NotTracked,NotTracked,
0.9414063,0.3168945,-0.1689453,0.9619141,-0.2587891,-0.07421875,-7,-4,-3,1,1,2,3,3,-1,-1,-1,1,-2,-1,-1,-1,161.25,161.25,161.25,-2.0625,-2.0625,-2.0625,8.521662,2.921839,3.410359,1.988777,2.929094,4.818213,-0.1784718,-0.5588611,1.658654,0.2437427,-0.5530418,1.635715,0.03353564,0.1968901,1.721085,-0.1318292,-0.5232615,1.639071,0.2823488,-0.5491942,1.61003,0.03213936,-0.2144129,1.725127,0.02688837,-0.5113325,1.713459,-0.1167505,-0.04780591,1.70912,-0.04768072,-0.498762,1.684126,-0.1788669,-0.284675,1.708173,0.2414473,-0.2818169,1.691345,NA,NA,NotTracked,NotTracked,
0.9711914,0.3232422,-0.1318359,0.9575195,-0.2524414,-0.08496094,-5,-1,-2,-3,-2,0,-3,-3,-2,-1,-1,-1,1,-1,0,-1,5.1875,5.1875,5.1875,-5.625,-5.625,-5.625,8.641622,2.938257,3.43909,2.009207,2.925542,4.787913,-0.1773596,-0.5589761,1.65807,0.2457008,-0.5586825,1.639854,0.03400953,0.1971608,1.72154,-0.1319046,-0.5226153,1.637411,0.2836389,-0.5513802,1.616686,0.03223357,-0.2143419,1.725135,0.02707581,-0.5113745,1.713422,-0.1166029,-0.04779403,1.709181,-0.04744875,-0.4987596,1.684096,-0.1789924,-0.2850439,1.708315,0.2419317,-0.2839407,1.692369,NA,NA,NotTracked,NotTracked,
0.9589844,0.1386719,-0.1479492,0.9560547,-0.2519531,-0.08886719,1,-2,-1,0,-1,-5,-5,-2,1,-3,-1,-1,-2,-2,-2,0,-18.4375,-18.4375,-18.4375,-8.5,-8.5,-8.5,8.622814,2.907055,3.393725,2.013738,2.924556,4.769608,-0.1772584,-0.5577236,1.65824,0.2447099,-0.5599914,1.641715,0.03451398,0.1971396,1.722343,-0.131939,-0.5229272,1.640116,0.2856618,-0.5530325,1.622136,0.03240017,-0.2143635,1.725192,0.02745689,-0.5115023,1.713397,-0.1164254,-0.04773829,1.709312,-0.04707081,-0.49884,1.684083,-0.1789164,-0.2848379,1.708386,0.2420995,-0.2853419,1.692861,NA,NA,NotTracked,NotTracked,
0.9458008,0.2050781,-0.1962891,0.9589844,-0.253418,-0.08544922,3,3,-1,0,-4,-9,-3,1,-2,0,-2,-1,-2,-1,0,-1,16.8125,16.8125,16.8125,-8.4375,-8.4375,-8.4375,8.619179,2.899524,3.418693,2.012909,2.923505,4.755454,-0.1766614,-0.5579829,1.657076,0.2421733,-0.5579886,1.640639,0.03463843,0.1972424,1.7227,-0.1319114,-0.5227661,1.639819,0.2814561,-0.55299,1.617701,0.03334919,-0.2145976,1.725272,0.02778381,-0.5115081,1.713401,-0.1162673,-0.04770118,1.709352,-0.04666845,-0.4988551,1.684034,-0.1788341,-0.2842976,1.708305,0.2422481,-0.2867836,1.693354,NA,NA,NotTracked,NotTracked,
0.9570313,0.199707,-0.1650391,0.9584961,-0.2373047,-0.07617188,-1,-2,0,-2,-1,1,0,0,-1,0,-1,-2,-1,-2,-1,-2,-6.5625,-6.5625,-6.5625,-6.4375,-6.4375,-6.4375,8.560147,2.906188,3.483273,2.013901,2.923142,4.738191,-0.1768179,-0.5577769,1.655983,0.24158,-0.5575991,1.638882,0.03480737,0.1972176,1.723209,-0.1317295,-0.5198572,1.638922,0.282141,-0.5508537,1.616755,0.0333696,-0.2145776,1.72532,0.02791916,-0.5115328,1.713426,-0.1161543,-0.04768661,1.709369,-0.04650006,-0.4988374,1.684073,-0.1786529,-0.2842087,1.708091,0.2422701,-0.2870483,1.69361,NA,NA,NotTracked,NotTracked,
0.9345703,0.2045898,-0.1489258,0.9614258,-0.25,-0.06787109,4,0,-1,-3,-1,-1,0,-1,-2,-1,-2,-2,-1,-3,-1,-1,-11.875,-11.875,-11.875,-1.4375,-1.4375,-1.4375,8.502423,2.912222,3.525039,2.022602,2.922784,4.723512,-0.1768997,-0.558443,1.656346,0.2431492,-0.5574769,1.636127,0.03504717,0.19743,1.723825,-0.1318699,-0.5230824,1.639937,0.2818203,-0.5506568,1.612392,0.03392636,-0.2146906,1.725446,0.02805661,-0.5115139,1.713433,-0.1160753,-0.04772158,1.709402,-0.04632904,-0.4987759,1.684029,-0.178579,-0.2840739,1.707983,0.2423814,-0.2871802,1.693892,NA,NA,NotTracked,NotTracked,
0.9482422,0.1748047,-0.1176758,0.9560547,-0.2514648,-0.07177734,1,-1,0,-2,0,1,1,1,1,-2,-3,-2,-2,0,-1,-1,-6.0625,-6.0625,-6.0625,4.125,4.125,4.125,8.4158,2.918617,3.586657,2.038861,2.921408,4.710328,-0.1767381,-0.5576974,1.65603,0.2433102,-0.557042,1.633001,0.03504147,0.1974034,1.724299,-0.1318476,-0.5226285,1.639687,0.2824189,-0.5511063,1.611164,0.03434633,-0.2148532,1.72545,0.0281948,-0.511556,1.7134,-0.1176966,-0.04932107,1.710141,-0.04615676,-0.4987911,1.683925,-0.1785204,-0.2840125,1.707908,0.2424916,-0.2871964,1.693871,NA,NA,NotTracked,NotTracked,
0.9423828,0.1782227,-0.1108398,0.9541016,-0.262207,-0.08203125,1,1,-1,-1,1,4,0,0,0,-1,-2,-1,0,-1,0,-1,6.5,6.5,6.5,6.5625,6.5625,6.5625,8.381286,2.917298,3.627216,2.059651,2.920631,4.704069,-0.176699,-0.5578898,1.657334,0.2423252,-0.5565689,1.632071,0.03518785,0.1973968,1.724884,-0.1318687,-0.521216,1.640402,0.2827673,-0.550527,1.613588,0.03430815,-0.2147961,1.725654,0.02829111,-0.5115717,1.713403,-0.1171667,-0.04870192,1.710159,-0.04603107,-0.4987901,1.683892,-0.178503,-0.2840495,1.707963,0.2425207,-0.2871371,1.693878,NA,NA,NotTracked,NotTracked,
0.9458008,0.1987305,-0.1352539,0.9667969,-0.2436523,-0.07519531,0,-1,-1,0,0,-2,-1,0,0,-1,1,-1,0,-1,-1,-1,14.375,14.375,14.375,0.625,0.625,0.625,8.379608,2.913398,3.652267,2.060493,2.920169,4.707366,-0.1760401,-0.5576705,1.657258,0.2404808,-0.5540804,1.631425,0.03522743,0.1974015,1.725148,-0.1317971,-0.5225507,1.640076,0.2789806,-0.5505698,1.608606,0.03461056,-0.2149115,1.725765,0.02852941,-0.5115806,1.713412,-0.1169578,-0.04861533,1.710174,-0.04578158,-0.498817,1.683888,-0.178313,-0.28465,1.707991,0.242495,-0.2873215,1.69376,NA,NA,NotTracked,NotTracked,
0.9233398,0.1884766,-0.1450195,0.9511719,-0.2578125,-0.07128906,-2,-1,1,0,-3,0,-3,-1,0,-2,-1,1,0,-2,-1,-3,11.4375,11.4375,11.4375,-1.0625,-1.0625,-1.0625,8.366817,2.910179,3.686891,2.059739,2.920274,4.70723,-0.1768837,-0.5583462,1.656218,0.2381743,-0.5532381,1.630742,0.0352677,0.1973775,1.725283,-0.1319223,-0.5234195,1.640105,0.2724447,-0.551595,1.599027,0.0350816,-0.2151128,1.725851,0.02874192,-0.5116188,1.713419,-0.1167552,-0.0485292,1.710151,-0.04556616,-0.4987843,1.683834,-0.1782328,-0.2843968,1.708031,0.2424902,-0.2874069,1.693671,NA,NA,NotTracked,NotTracked,
0.9370117,0.199707,-0.1396484,0.9609375,-0.2553711,-0.06494141,-3,-1,-2,-1,0,-1,-1,-1,-2,-4,-2,-2,-1,-1,-2,-1,1.25,1.25,1.25,-1.125,-1.125,-1.125,8.376739,2.909912,3.692231,2.069761,2.919204,4.695289,-0.1763182,-0.5588173,1.656664,0.2378453,-0.5528778,1.630977,0.03517037,0.1973267,1.725816,-0.1320512,-0.5248617,1.640562,0.2755482,-0.5515152,1.601945,0.03555699,-0.2154637,1.72592,0.02881584,-0.5116829,1.713419,-0.116586,-0.04848114,1.710166,-0.045499,-0.4988322,1.683812,-0.1782167,-0.2844757,1.708103,0.2424695,-0.2874219,1.69364,NA,NA,NotTracked,NotTracked,
0.9453125,0.2055664,-0.1323242,0.9575195,-0.2573242,-0.07275391,-1,-1,-1,-2,-1,0,1,0,0,-1,-1,0,-1,-2,2,-1,-5.625,-5.625,-5.625,2.5,2.5,2.5,8.375555,2.911565,3.68731,2.084404,2.917081,4.683082,-0.1765455,-0.5588667,1.657434,0.2380855,-0.5527399,1.630327,0.03508214,0.1973929,1.726076,-0.1317407,-0.5207418,1.640051,0.2775244,-0.5507078,1.605724,0.03591314,-0.2157234,1.725974,0.02889507,-0.5117318,1.713428,-0.1163436,-0.04827994,1.710161,-0.04543758,-0.4988554,1.683806,-0.1782046,-0.2843541,1.70812,0.2424155,-0.2873924,1.693579,NA,NA,NotTracked,NotTracked,
0.9414063,0.2011719,-0.1245117,0.9633789,-0.2436523,-0.06591797,1,-1,-1,-2,0,-2,1,-1,-1,0,0,0,-1,-1,-1,0,-5.125,-5.125,-5.125,-0.8125,-0.8125,-0.8125,8.370028,2.912704,3.6834,2.08679,2.916774,4.681815,-0.1769947,-0.5591042,1.657393,0.2383168,-0.5538321,1.630015,0.03489005,0.1972715,1.726363,-0.1320419,-0.5283257,1.641003,0.2772681,-0.5507043,1.605653,0.03628119,-0.2159886,1.726045,0.0290171,-0.5118148,1.713431,-0.1161858,-0.04818689,1.710136,-0.04530461,-0.4989459,1.683802,-0.1782953,-0.2845472,1.708194,0.2423635,-0.2874067,1.693604,NA,NA,NotTracked,NotTracked,
0.9311523,0.2011719,-0.1235352,0.9614258,-0.2553711,-0.05566406,-1,-2,-1,0,-1,-1,0,-1,-1,-1,-1,-2,0,0,1,-1,-1.1875,-1.1875,-1.1875,-3.125,-3.125,-3.125,8.367226,2.911981,3.680419,2.089994,2.916243,4.674533,-0.176656,-0.5588402,1.656487,0.2378313,-0.5532721,1.630137,0.03477934,0.1972534,1.726498,-0.1318021,-0.5206447,1.639648,0.2765794,-0.550802,1.604547,0.03628504,-0.2159697,1.726073,0.02906227,-0.5118381,1.71341,-0.1161048,-0.04817223,1.710047,-0.04526388,-0.4989667,1.683779,-0.1783327,-0.284227,1.708092,0.2422879,-0.2874474,1.693529,NA,NA,NotTracked,NotTracked,
0.9472656,0.2075195,-0.1274414,0.9604492,-0.2480469,-0.0625,0,-1,-1,-3,1,1,2,1,0,0,1,0,-5,-2,-1,0,1.25,1.25,1.25,-1.875,-1.875,-1.875,8.368916,2.911296,3.679527,2.100837,2.913963,4.656665,-0.176736,-0.5589408,1.657179,0.237687,-0.5531529,1.630564,0.0348199,0.1972401,1.726614,-0.1316938,-0.5204905,1.63948,0.2760819,-0.5513526,1.603875,0.03633247,-0.2158774,1.726128,0.0291377,-0.5118415,1.713418,-0.1159367,-0.04789257,1.709984,-0.0451728,-0.4990005,1.68376,-0.1783948,-0.2848111,1.708129,0.2422005,-0.2874843,1.693524,NA,NA,NotTracked,NotTracked,
0.9433594,0.2114258,-0.1303711,0.9633789,-0.2553711,-0.06494141,-2,-1,0,-2,-1,1,0,0,0,-1,-1,0,-1,0,-1,-1,0.3125,0.3125,0.3125,1.875,1.875,1.875,8.373683,2.911601,3.677905,2.110116,2.913561,4.64865,-0.1762952,-0.5592982,1.656216,0.2375659,-0.5527982,1.630386,0.03480111,0.1971477,1.726769,-0.1311812,-0.5265304,1.638846,0.2763868,-0.5504186,1.603845,0.03649284,-0.2161553,1.726111,0.02916706,-0.5119587,1.71342,-0.1158291,-0.04793098,1.70994,-0.04515354,-0.4990792,1.683745,-0.1784775,-0.2848954,1.708193,0.2420081,-0.2878195,1.693529,NA,NA,NotTracked,NotTracked,
0.9414063,0.2045898,-0.1352539,0.9633789,-0.25,-0.05761719,-4,0,-2,0,-2,-1,0,2,0,-3,-1,-1,-1,0,-2,-1,-0.375,-0.375,-0.375,3.0625,3.0625,3.0625,8.374949,2.912253,3.676529,2.110384,2.912771,4.652519,-0.1763489,-0.5583196,1.655913,0.2378872,-0.552717,1.629793,0.03475962,0.1971124,1.726888,-0.1323422,-0.5345806,1.641816,0.2767434,-0.5501695,1.603459,0.03672679,-0.2163593,1.726069,0.02931046,-0.5120227,1.713351,-0.1162621,-0.04789772,1.710019,-0.04504079,-0.4991067,1.683673,-0.178447,-0.2848689,1.708202,0.2418858,-0.2879471,1.693521,NA,NA,NotTracked,NotTracked,
0.9365234,0.2021484,-0.1298828,0.9589844,-0.2519531,-0.05566406,-2,-2,-1,-1,0,-1,1,-2,-1,0,-3,-1,-1,0,-2,-2,1.375,1.375,1.375,1.625,1.625,1.625,8.375459,2.913618,3.677365,2.115939,2.91309,4.653193,-0.1764026,-0.5597816,1.656922,0.2378508,-0.5534934,1.63038,0.03482679,0.1971105,1.726904,-0.1330111,-0.536852,1.643143,0.2773613,-0.5510027,1.605777,0.0369108,-0.2164987,1.726107,0.02938594,-0.5121159,1.713456,-0.1157921,-0.04725773,1.709954,-0.04496418,-0.4991591,1.683741,-0.1784811,-0.2850302,1.70826,0.2416894,-0.2882348,1.693526,NA,NA,NotTracked,NotTracked,
0.9428711,0.2080078,-0.1303711,0.9628906,-0.2524414,-0.06152344,-4,-1,-2,-1,2,5,0,2,-1,-1,0,-2,-1,0,-2,-1,2.25,2.25,2.25,-0.1875,-0.1875,-0.1875,8.378203,2.913751,3.67897,2.115101,2.913189,4.653913,-0.1760998,-0.5591888,1.65894,0.2383067,-0.5532786,1.631783,0.03489993,0.1971237,1.727274,-0.1314875,-0.5278606,1.640572,0.2773418,-0.5502982,1.606089,0.03710808,-0.2166446,1.726235,0.0294828,-0.512163,1.713531,-0.1156098,-0.04699831,1.709996,-0.04487552,-0.4991892,1.683778,-0.1785346,-0.2845765,1.708545,0.241608,-0.2883067,1.693707,NA,NA,NotTracked,NotTracked,
0.9370117,0.2045898,-0.1279297,0.9619141,-0.253418,-0.06835938,1,0,-1,-1,-1,1,0,-1,-1,1,-1,1,0,-1,-1,0,-0.3125,-0.3125,-0.3125,-1.4375,-1.4375,-1.4375,8.378252,2.913362,3.679754,2.113175,2.913322,4.654336,-0.1757447,-0.5593249,1.657608,0.2379053,-0.5534884,1.63102,0.03493811,0.1971035,1.727396,-0.1315037,-0.5289323,1.640558,0.2772304,-0.5510215,1.605982,0.03722753,-0.2167459,1.726275,0.02955665,-0.5122035,1.713593,-0.1158511,-0.04686903,1.710066,-0.04482143,-0.4992101,1.683807,-0.1784942,-0.2843518,1.708687,0.2415955,-0.2882341,1.693755,NA,NA,NotTracked,NotTracked,
0.9438477,0.2109375,-0.1381836,0.9604492,-0.2480469,-0.05908203,0,-1,-1,-1,-1,0,-1,-1,-1,-1,-1,-1,-1,-1,0,-1,-0.4375,-0.4375,-0.4375,-0.625,-0.625,-0.625,8.378456,2.913779,3.679585,2.109635,2.914152,4.656683,-0.1764731,-0.5591956,1.657467,0.238109,-0.5533838,1.630611,0.03499955,0.1971323,1.727636,-0.1310412,-0.5300885,1.639724,0.2772655,-0.5508472,1.605459,0.03712304,-0.216761,1.726441,0.02959763,-0.512238,1.71363,-0.1157864,-0.04693786,1.71007,-0.04478701,-0.4992812,1.683843,-0.1785013,-0.2842653,1.7088,0.241542,-0.2882586,1.693798,NA,NA,NotTracked,NotTracked,
0.9365234,0.2124023,-0.1323242,0.9599609,-0.2475586,-0.06201172,-1,-1,-2,-2,-3,-2,-1,0,-1,-2,-1,-1,-1,0,0,-2,-2.3125,-2.3125,-2.3125,-0.4375,-0.4375,-0.4375,8.370542,2.913856,3.683868,2.11018,2.914479,4.656294,-0.1752051,-0.5592413,1.657084,0.2376893,-0.5536696,1.630588,0.03511092,0.1970791,1.727787,-0.1308788,-0.535795,1.640163,0.2755255,-0.5495738,1.603923,0.03690774,-0.2166946,1.726557,0.02966364,-0.5123186,1.713641,-0.1156797,-0.04705289,1.710077,-0.04472978,-0.49935,1.68383,-0.1784904,-0.2844088,1.708808,0.2415189,-0.2882639,1.693812,NA,NA,NotTracked,NotTracked,
0.9438477,0.2089844,-0.1289063,0.9609375,-0.2495117,-0.06054688,0,0,0,1,-1,-3,-2,-3,-2,0,-2,0,-2,0,-2,-1,0.1875,0.1875,0.1875,-0.0625,-0.0625,-0.0625,8.367565,2.91316,3.685918,2.111192,2.914648,4.655678,-0.1756503,-0.5592895,1.65687,0.2378352,-0.5531902,1.630244,0.0351221,0.1970777,1.727964,-0.1302776,-0.5354022,1.639421,0.2766377,-0.5500886,1.603691,0.03695568,-0.2166758,1.726773,0.0296906,-0.5124022,1.713855,-0.1155709,-0.04706231,1.710077,-0.04469649,-0.499405,1.683981,-0.1784616,-0.2844064,1.708872,0.2414912,-0.2883604,1.693861,NA,NA,NotTracked,NotTracked,
0.9399414,0.2099609,-0.1279297,0.9609375,-0.2456055,-0.0625,0,0,0,0,-2,0,0,-1,0,-1,-1,0,0,-1,-1,-1,1.625,1.625,1.625,-0.6875,-0.6875,-0.6875,8.369569,2.914218,3.685916,2.111071,2.914879,4.656069,-0.175328,-0.5596059,1.657329,0.2380045,-0.5532025,1.630733,0.03509245,0.1970245,1.728109,-0.1292738,-0.5331985,1.638345,0.2752632,-0.5504589,1.602004,0.03712455,-0.2168128,1.726766,0.02972475,-0.512456,1.713846,-0.1155001,-0.04717577,1.710061,-0.04465527,-0.4994767,1.683954,-0.1784599,-0.2844922,1.708874,0.2414622,-0.2883729,1.693893,NA,NA,NotTracked,NotTracked,
0.9404297,0.2075195,-0.1147461,0.9628906,-0.2509766,-0.06054688,0,0,0,-2,-1,1,-1,-2,0,-1,-1,-1,-2,-3,-1,-2,0.375,0.375,0.375,0.3125,0.3125,0.3125,8.36788,2.91354,3.687543,2.111136,2.914149,4.655186,-0.1760013,-0.559571,1.656699,0.2376885,-0.5533599,1.630158,0.03512677,0.1970232,1.728191,-0.1293112,-0.5298483,1.636976,0.2741842,-0.5509235,1.600522,0.03718059,-0.2168455,1.726755,0.02973253,-0.5124538,1.713841,-0.1153775,-0.04706559,1.710067,-0.04465309,-0.499478,1.683949,-0.1784566,-0.2846496,1.708908,0.2414549,-0.288399,1.693925,NA,NA,NotTracked,NotTracked,
0.9418945,0.2075195,-0.1323242,0.9584961,-0.2485352,-0.06201172,-1,1,-1,0,-1,-1,-1,-1,-1,0,-2,-1,-2,-1,-2,-2,0.0625,0.0625,0.0625,0.25,0.25,0.25,8.372003,2.912596,3.686627,2.111136,2.914149,4.655186,-0.175128,-0.5600196,1.658339,0.2376735,-0.553685,1.631526,0.03514381,0.197013,1.728334,-0.1273773,-0.5477297,1.63781,0.2752224,-0.5521206,1.60333,0.03706397,-0.2166757,1.726912,0.02980867,-0.5124732,1.713871,-0.1153553,-0.0471274,1.710104,-0.04457364,-0.4994859,1.683986,-0.1785004,-0.2852148,1.709065,0.2413997,-0.2884348,1.694008,NA,NA,NotTracked,NotTracked,
0.9360352,0.2080078,-0.1298828,0.9614258,-0.2612305,-0.06494141,-1,-2,-1,-2,-3,-1,0,1,-1,-1,-2,-3,0,0,0,-1,0.625,0.625,0.625,1.3125,1.3125,1.3125,8.37178,2.912458,3.686833,2.112132,2.914798,4.655261,-0.1753303,-0.5595916,1.657839,0.2374165,-0.5532702,1.630428,0.03521343,0.1969798,1.728398,-0.129334,-0.5343075,1.63809,0.2764136,-0.5495609,1.60425,0.03720948,-0.2167623,1.726838,0.02982444,-0.5125026,1.713847,-0.1159062,-0.04713765,1.710421,-0.04456073,-0.499499,1.683959,-0.1784664,-0.2852381,1.709076,0.2413827,-0.2884929,1.693985,NA,NA,NotTracked,NotTracked,
0.9462891,0.2128906,-0.1254883,0.9589844,-0.2490234,-0.06005859,0,-2,-1,1,-1,1,0,-2,0,-2,-1,0,-1,1,-1,0,-0.6875,-0.6875,-0.6875,0.125,0.125,0.125,8.37178,2.912458,3.686833,2.113121,2.914981,4.655298,-0.1753868,-0.5596652,1.657503,0.2378176,-0.5537435,1.631193,0.0352301,0.1969057,1.728531,-0.1288089,-0.5335095,1.637772,0.2765559,-0.5507076,1.60446,0.0373903,-0.2168867,1.726851,0.02994191,-0.5126052,1.713874,-0.1158485,-0.04721254,1.710448,-0.04444867,-0.4995775,1.683995,-0.1785671,-0.286008,1.709258,0.2413756,-0.2885141,1.694003,NA,NA,NotTracked,NotTracked,
0.9355469,0.2055664,-0.128418,0.9584961,-0.2563477,-0.05419922,-3,0,-2,0,0,0,1,0,-1,-1,-1,-1,-3,-1,-2,-3,-1.625,-1.625,-1.625,-1.875,-1.875,-1.875,8.369744,2.91253,3.68627,2.115051,2.914994,4.651357,-0.1755212,-0.5601327,1.657462,0.2378868,-0.5536993,1.630938,0.03511453,0.1968289,1.728661,-0.1290494,-0.5344251,1.638164,0.2767279,-0.5504425,1.60464,0.03752376,-0.2169349,1.726844,0.03007185,-0.5126056,1.713923,-0.1157814,-0.04732561,1.71048,-0.04430185,-0.4996047,1.684061,-0.1786232,-0.2855395,1.70931,0.2413674,-0.288507,1.694023,NA,NA,NotTracked,NotTracked,
0.940918,0.2084961,-0.1289063,0.9648438,-0.2436523,-0.06201172,-2,-2,-1,0,0,-1,-2,0,-1,-1,-1,0,-2,-3,-1,1,0.625,0.625,0.625,-2.1875,-2.1875,-2.1875,8.369087,2.912154,3.686375,2.116149,2.914368,4.646272,-0.1754599,-0.5600163,1.657897,0.2380941,-0.5530445,1.630656,0.03511008,0.1968054,1.728647,-0.128142,-0.5283405,1.636428,0.2763069,-0.5505829,1.603747,0.03760761,-0.2169918,1.726833,0.03016923,-0.512649,1.713936,-0.1157766,-0.04744928,1.710501,-0.04416779,-0.4996238,1.68403,-0.1787412,-0.2867652,1.709317,0.2413666,-0.2885274,1.69404,NA,NA,NotTracked,NotTracked,
0.9375,0.2119141,-0.1259766,0.9643555,-0.2548828,-0.06103516,-1,-1,-1,0,1,-1,0,-2,-1,-1,-1,-1,0,0,-2,-2,0.5625,0.5625,0.5625,-1,-1,-1,8.37021,2.91217,3.686812,2.114173,2.913504,4.645497,-0.1753785,-0.5597787,1.656574,0.2381942,-0.5528238,1.630566,0.03514984,0.1967482,1.728734,-0.1293231,-0.5303277,1.637762,0.2766156,-0.5500583,1.604073,0.03727449,-0.2168942,1.72695,0.03017841,-0.5126966,1.713961,-0.115675,-0.04737949,1.710495,-0.04416041,-0.4996495,1.684048,-0.1786333,-0.2866127,1.709293,0.2413715,-0.2885496,1.694026,NA,NA,NotTracked,NotTracked,
0.9438477,0.2128906,-0.128418,0.9614258,-0.2490234,-0.06347656,2,-1,-2,0,1,3,1,-1,0,-1,-1,-1,1,-2,-1,-2,-0.25,-0.25,-0.25,1.625,1.625,1.625,8.370384,2.911324,3.686554,2.113964,2.913737,4.646746,-0.1751656,-0.559918,1.657845,0.2380808,-0.5537609,1.631631,0.03513456,0.1967283,1.728778,-0.1288296,-0.5367961,1.63811,0.276656,-0.5507212,1.604447,0.03739582,-0.2169428,1.726929,0.03031567,-0.5127021,1.713965,-0.1156503,-0.04741065,1.710527,-0.04403123,-0.4997068,1.684074,-0.1785584,-0.2858621,1.709305,0.2414018,-0.2884853,1.694052,NA,NA,NotTracked,NotTracked,
0.940918,0.2089844,-0.1274414,0.9604492,-0.2480469,-0.06201172,0,-1,-2,-2,-2,-1,-1,-2,-1,-2,-1,-1,-2,-1,-2,-1,-1.75,-1.75,-1.75,1.1875,1.1875,1.1875,8.371539,2.910961,3.683629,2.113883,2.914074,4.651175,-0.1756699,-0.5594686,1.656738,0.2380217,-0.553607,1.63138,0.03517324,0.1967331,1.728785,-0.1287355,-0.5367833,1.637782,0.2765846,-0.550352,1.603925,0.03679948,-0.2167251,1.727034,0.03030129,-0.5127493,1.713968,-0.1155709,-0.04733731,1.710556,-0.04403529,-0.4997287,1.684026,-0.1785436,-0.2858066,1.709308,0.2413995,-0.2883912,1.694126,NA,NA,NotTracked,NotTracked,
0.9462891,0.206543,-0.1196289,0.9658203,-0.2504883,-0.05517578,0,-1,0,-1,-1,-2,-1,-2,-1,-1,0,0,-2,-2,-2,-1,0.25,0.25,0.25,-1.375,-1.375,-1.375,8.369146,2.910818,3.684448,2.113902,2.914059,4.650522,-0.1753664,-0.5596478,1.656956,0.2377989,-0.5532444,1.63035,0.03523745,0.1967369,1.728795,-0.1294659,-0.5300758,1.636776,0.2763209,-0.5506148,1.603902,0.03658648,-0.2165669,1.727028,0.03044162,-0.51279,1.713921,-0.1155505,-0.04740009,1.710549,-0.04391165,-0.4997864,1.683923,-0.1785288,-0.2856555,1.709137,0.2413817,-0.2883293,1.694147,NA,NA,NotTracked,NotTracked,
0.9404297,0.2055664,-0.1279297,0.9609375,-0.2543945,-0.06054688,-1,0,0,0,-1,1,1,-1,-1,-1,-1,-2,-1,-1,-2,0,3.1875,3.1875,3.1875,-1,-1,-1,8.369698,2.9107,3.686828,2.114556,2.91437,4.648626,-0.1757501,-0.559617,1.657214,0.2375191,-0.5533307,1.630335,0.03520162,0.196729,1.728789,-0.128912,-0.5357041,1.63784,0.2762033,-0.5507767,1.603436,0.03662406,-0.2165821,1.727056,0.03046725,-0.5128123,1.713945,-0.1164015,-0.04772266,1.710878,-0.04388012,-0.4998291,1.683935,-0.1784788,-0.2856149,1.709149,0.2413752,-0.2881447,1.694238,NA,NA,NotTracked,NotTracked,
0.9443359,0.206543,-0.1240234,0.9633789,-0.25,-0.05664063,1,0,-1,0,0,1,-1,-2,1,0,-1,-1,-2,-1,-1,1,3.6875,3.6875,3.6875,0.6875,0.6875,0.6875,8.37172,2.909604,3.691473,2.114556,2.91437,4.648626,-0.1748171,-0.5594585,1.657738,0.2375115,-0.5530139,1.631431,0.03518667,0.1967099,1.728793,-0.1286227,-0.5354162,1.637492,0.2763246,-0.5508407,1.604035,0.03638745,-0.2163521,1.727267,0.03046305,-0.5128567,1.714,-0.116303,-0.04780659,1.710908,-0.04388436,-0.4998375,1.683959,-0.178413,-0.2855025,1.709216,0.2413863,-0.2879157,1.694329,NA,NA,NotTracked,NotTracked,
0.9399414,0.2114258,-0.1264648,0.9589844,-0.2514648,-0.06103516,1,-1,0,1,-1,-2,-1,-1,-2,0,-1,0,-1,-1,-1,-1,-1.8125,-1.8125,-1.8125,1.125,1.125,1.125,8.372847,2.909929,3.691421,2.117929,2.915219,4.648757,-0.1750226,-0.560046,1.657179,0.2376822,-0.5523685,1.630659,0.03519956,0.1967224,1.728824,-0.1271297,-0.5469696,1.6364,0.2764494,-0.5506547,1.604023,0.03621919,-0.216251,1.727272,0.03055866,-0.5128896,1.714038,-0.1166357,-0.04760506,1.711213,-0.04379936,-0.499888,1.683961,-0.1783819,-0.2853868,1.709251,0.2413852,-0.2878368,1.694378,NA,NA,NotTracked,NotTracked,
0.9414063,0.2050781,-0.1293945,0.9643555,-0.2558594,-0.05810547,0,-1,-1,-1,0,2,0,0,-2,-1,-1,0,-2,-1,-1,-1,-2.8125,-2.8125,-2.8125,-1.0625,-1.0625,-1.0625,8.370923,2.910458,3.688709,2.118553,2.914803,4.646834,-0.1753169,-0.5598075,1.657944,0.2377863,-0.5528216,1.63106,0.03516029,0.1966594,1.728925,-0.1287086,-0.5339807,1.637298,0.2764657,-0.5507233,1.604038,0.03636787,-0.2162981,1.727297,0.03059037,-0.5129223,1.71403,-0.1177357,-0.04831458,1.711962,-0.04376614,-0.4999307,1.683931,-0.1784497,-0.2850628,1.709403,0.2413807,-0.2878281,1.694383,NA,NA,NotTracked,NotTracked,
0.9394531,0.2124023,-0.1225586,0.9575195,-0.2460938,-0.06103516,0,-2,1,-1,-1,1,-1,-2,0,-1,-2,-2,-2,0,-2,-2,-1.5625,-1.5625,-1.5625,-1.625,-1.625,-1.625,8.367441,2.910937,3.690146,2.118214,2.914929,4.644903,-0.1760359,-0.5598946,1.657722,0.2377786,-0.5531102,1.630605,0.03508178,0.1966154,1.728985,-0.1288589,-0.5351533,1.63786,0.2759048,-0.5500131,1.603336,0.03654321,-0.2164717,1.727276,0.03072239,-0.5130483,1.713992,-0.1184862,-0.05014357,1.712238,-0.04363619,-0.5001162,1.683885,-0.1784638,-0.2852921,1.709564,0.2413588,-0.2877094,1.69444,NA,NA,NotTracked,NotTracked,
0.9394531,0.2104492,-0.1254883,0.9633789,-0.2563477,-0.06005859,-1,-2,-2,-2,-1,-2,1,2,0,-1,0,-2,-3,-2,-1,0,1.5,1.5,1.5,-0.5625,-0.5625,-0.5625,8.365807,2.910602,3.692792,2.118653,2.915467,4.644257,-0.1760688,-0.5602642,1.658103,0.2380706,-0.55246,1.631574,0.03504897,0.1965671,1.729128,-0.1290391,-0.5353265,1.637644,0.2764056,-0.5552682,1.603873,0.0366911,-0.2165945,1.727253,0.03073585,-0.5130405,1.714029,-0.1188333,-0.05007036,1.712661,-0.04360666,-0.5001031,1.68395,-0.1784109,-0.2858782,1.709568,0.2412685,-0.2874737,1.694493,NA,NA,NotTracked,NotTracked,
