ALX,ALY,ALZ,ARX,ARY,ARZ,EMG0L,EMG1L,EMG2L,EMG3L,EMG4L,EMG5L,EMG6L,EMG7L,EMG0R,EMG1R,EMG2R,EMG3R,EMG4R,EMG5R,EMG6R,EMG7R,GLX,GLY,GLZ,GRX,GRY,GRZ,ORL,OPL,OYL,ORR,OPR,OYR,LHNX,LHNY,LHNZ,RHNX,RHNY,RHNZ,HX,HY,HZ,LTX,LTY,LTZ,RTX,RTY,RTZ,SpineMidX,SpineMidY,SpineMidZ,SpineBaseX,SpineBaseY,SpineBaseZ,ShoulderLeftX,ShoulderLeftY,ShoulderLeftZ,ShoulderRightX,ShoulderRightY,ShoulderRightZ,ElbowLeftX,ElbowLeftY,ElbowLeftZ,ElbowRightX,ElbowRightY,ElbowRightZ,Myo_Pose_left,Myo_Pose_Right,Kinect_pose_left,Kinect_pose_right
0.9389648,0.2353516,-0.06835938,0.9355469,-0.3168945,-0.07568359,1,-1,0,0,-2,0,0,-1,-2,-1,-1,-3,-2,-1,0,-1,0.4375,0.4375,0.4375,-2.4375,-2.4375,-2.4375,7.965736,2.92371,4.220648,2.148789,3.024648,4.16555,-0.190363,-0.5625885,1.649375,0.2356811,-0.5503405,1.626321,0.01675929,0.191916,1.748198,-0.2275493,-0.5555398,1.636389,0.2582147,-0.5435218,1.593756,0.02057341,-0.2126849,1.740911,0.02014124,-0.500673,1.731045,-0.1407946,-0.07068703,1.733228,-0.0450682,-0.488803,1.703251,-0.1883194,-0.3013171,1.717494,0.2326622,-0.3009496,1.703412,NA,NA,NotTracked,NotTracked,
0.9443359,0.2426758,-0.07080078,0.9365234,-0.3198242,-0.06835938,0,-2,-1,-1,-1,-2,-1,-1,-2,0,-2,-1,0,-1,-1,-1,-2.125,-2.125,-2.125,1.3125,1.3125,1.3125,7.984618,2.92064,4.19963,2.149468,3.024984,4.164743,-0.1903859,-0.5627217,1.649415,0.2363675,-0.5510411,1.62749,0.01720325,0.1918037,1.748051,-0.2276379,-0.5506427,1.637646,0.2615777,-0.5445849,1.596613,0.02072732,-0.2124415,1.741214,0.0201518,-0.5005708,1.731056,-0.1407704,-0.0706223,1.733087,-0.04514521,-0.4883612,1.703281,-0.1884564,-0.3011855,1.717639,0.2326753,-0.3009931,1.703436,NA,NA,NotTracked,NotTracked,
0.9379883,0.237793,-0.06835938,0.9389648,-0.3212891,-0.07080078,-1,0,0,-1,0,0,-1,1,1,-1,0,-1,-1,-1,1,-2,-1.5,-1.5,-1.5,1.8125,1.8125,1.8125,7.982157,2.919101,4.198266,2.150408,3.025421,4.168872,-0.1911741,-0.5621987,1.65105,0.2367987,-0.5512606,1.62766,0.01737536,0.191726,1.748021,-0.2315736,-0.5470032,1.643704,0.2584155,-0.5446319,1.593653,0.02105062,-0.2123154,1.741665,0.02027307,-0.5005945,1.731094,-0.1407771,-0.07060493,1.733006,-0.0449761,-0.4883592,1.703315,-0.1881324,-0.3024558,1.717428,0.232706,-0.3010536,1.70346,NA,NA,NotTracked,NotTracked,
0.9443359,0.2368164,-0.07568359,0.940918,-0.3237305,-0.06640625,-2,-2,0,-1,0,-2,1,0,-1,-2,-2,-1,0,-2,-1,-1,-0.875,-0.875,-0.875,-1,-1,-1,7.982157,2.919101,4.198266,2.150818,3.025957,4.168856,-0.1906356,-0.5625485,1.650074,0.2357828,-0.551575,1.628092,0.01757328,0.1915918,1.747852,-0.2266583,-0.5499294,1.634009,0.2578524,-0.5447829,1.593324,0.02113061,-0.2125599,1.741667,0.02030734,-0.5007474,1.731058,-0.1408084,-0.07060532,1.73294,-0.0449321,-0.4888057,1.703305,-0.1882281,-0.3025851,1.717475,0.2327399,-0.3011698,1.703469,NA,NA,NotTracked,NotTracked,
0.9418945,0.2387695,-0.07470703,0.9399414,-0.3193359,-0.07080078,0,0,-1,-2,-1,-2,-3,1,-1,0,-1,0,-2,0,0,-2,0.5,0.5,0.5,-4,-4,-4,7.981645,2.918972,4.198719,2.149098,3.025179,4.164824,-0.1908165,-0.5630425,1.649581,0.2351869,-0.5512535,1.628032,0.01776814,0.1914639,1.747745,-0.2270096,-0.5552225,1.635872,0.2588462,-0.5439713,1.594176,0.0212609,-0.2122903,1.742152,0.02031822,-0.5006269,1.731045,-0.1405569,-0.07072198,1.733197,-0.04499718,-0.4883582,1.70326,-0.1879279,-0.302046,1.717109,0.2327978,-0.3012138,1.70354,NA,NA,NotTracked,NotTracked,
0.9414063,0.2387695,-0.07666016,0.9433594,-0.3188477,-0.07519531,-1,0,-2,0,1,0,-1,-1,-1,-1,0,-1,-1,0,-1,0,0.625,0.625,0.625,0.1875,0.1875,0.1875,7.981645,2.918972,4.198719,2.147727,3.025298,4.162412,-0.1907959,-0.562099,1.649534,0.2357837,-0.5509433,1.627687,0.01798503,0.1914459,1.747715,-0.2157318,-0.5567915,1.621489,0.262375,-0.5462284,1.597512,0.02155553,-0.2123649,1.742648,0.0205525,-0.5007176,1.731051,-0.1402611,-0.07076661,1.733555,-0.04468785,-0.4886142,1.703217,-0.1874854,-0.3015959,1.716917,0.2328576,-0.3012131,1.703567,NA,NA,NotTracked,NotTracked,
0.9389648,0.2412109,-0.07177734,0.9414063,-0.3183594,-0.0703125,-1,-2,0,0,-1,0,0,-1,0,-1,-1,-3,-1,-2,0,-1,-1.375,-1.375,-1.375,2.4375,2.4375,2.4375,7.982342,2.918243,4.197472,2.14942,3.025151,4.163017,-0.1899803,-0.5577028,1.650641,0.236391,-0.5511007,1.62698,0.01800453,0.1913424,1.747591,-0.2218419,-0.5559399,1.626112,0.2639467,-0.5446702,1.596069,0.02163658,-0.2125997,1.742196,0.02062545,-0.5008396,1.731027,-0.1402699,-0.07073164,1.733334,-0.04460185,-0.4888801,1.703127,-0.1877794,-0.3013147,1.717094,0.2328556,-0.3012327,1.703546,NA,NA,NotTracked,NotTracked,
0.9345703,0.2358398,-0.07324219,0.940918,-0.315918,-0.06982422,-1,-1,0,0,-1,-1,-3,-3,-2,0,0,-1,0,0,0,-1,-0.5,-0.5,-0.5,0.6875,0.6875,0.6875,7.982893,2.918616,4.194716,2.14863,3.025044,4.165576,-0.1904361,-0.5597607,1.650028,0.2357502,-0.5516344,1.627182,0.01802322,0.1913623,1.747582,-0.2201422,-0.5579014,1.621519,0.2641891,-0.5441023,1.594564,0.02172609,-0.2127082,1.741931,0.02068436,-0.5008709,1.730973,-0.1403171,-0.0707023,1.733186,-0.04451143,-0.4889399,1.702991,-0.1870861,-0.302453,1.716396,0.2328928,-0.301231,1.703511,NA,NA,NotTracked,NotTracked,
0.9389648,0.2373047,-0.06738281,0.9360352,-0.3198242,-0.06933594,0,-3,0,0,-3,2,-1,-1,-1,-1,-2,-2,-1,0,-3,-1,1.9375,1.9375,1.9375,-0.9375,-0.9375,-0.9375,7.981498,2.918607,4.19715,2.149332,3.024688,4.163591,-0.1910089,-0.5600964,1.651429,0.2356972,-0.5517258,1.628201,0.01813058,0.1913627,1.747572,-0.2209623,-0.5561865,1.626864,0.2602524,-0.5411155,1.594136,0.02187271,-0.2126725,1.742136,0.02074668,-0.5009108,1.730995,-0.1400977,-0.07105143,1.733907,-0.04444882,-0.4889624,1.703057,-0.187042,-0.3020856,1.716427,0.2329163,-0.3011883,1.703503,NA,NA,NotTracked,NotTracked,
0.9370117,0.2387695,-0.07910156,0.9423828,-0.3232422,-0.07080078,-1,-1,0,0,-1,-1,-1,-2,-2,-1,-1,0,-1,-2,-1,-2,1.1875,1.1875,1.1875,2.1875,2.1875,2.1875,7.983991,2.918126,4.197984,2.152363,3.02534,4.162677,-0.1901937,-0.5603635,1.651735,0.2360835,-0.5514058,1.627762,0.01840832,0.1912695,1.747538,-0.2207043,-0.552747,1.626916,0.2607193,-0.5421869,1.594154,0.02195742,-0.2127478,1.742667,0.02071581,-0.5008813,1.731008,-0.1398728,-0.07116032,1.733982,-0.04458637,-0.488864,1.703077,-0.1876328,-0.299789,1.717485,0.2329619,-0.3013533,1.703535,NA,NA,NotTracked,NotTracked,
0.9418945,0.2460938,-0.07910156,0.9389648,-0.3168945,-0.07128906,-1,-2,-1,-1,0,-1,-1,-1,0,-1,-1,-1,-2,1,-1,0,0.25,0.25,0.25,2.4375,2.4375,2.4375,7.985116,2.917803,4.199221,2.154442,3.026246,4.165252,-0.1902622,-0.5606534,1.650388,0.2352006,-0.5513811,1.626507,0.0184822,0.1912234,1.747355,-0.2200532,-0.5541872,1.625622,0.2650199,-0.5478764,1.594577,0.02188586,-0.2129741,1.742166,0.02079341,-0.5011771,1.730868,-0.1399671,-0.0711737,1.733671,-0.04447281,-0.4895011,1.702821,-0.1874816,-0.3009204,1.717072,0.2330003,-0.3012344,1.703361,NA,NA,NotTracked,NotTracked,
1.020996,0.277832,-0.1142578,0.9467773,-0.3276367,-0.07226563,2,1,5,16,9,6,3,1,0,-1,-1,-2,-2,-2,1,-1,-6.9375,-6.9375,-6.9375,1.125,1.125,1.125,7.943841,2.924888,4.238322,2.154514,3.027762,4.168646,-0.1911169,-0.5612501,1.651399,0.2325528,-0.5503073,1.624262,0.01853518,0.191268,1.74737,-0.2359699,-0.5440426,1.655867,0.2591162,-0.5421237,1.593281,0.02170163,-0.2132037,1.741627,0.02072476,-0.5014312,1.730955,-0.1398632,-0.07146103,1.734259,-0.04456057,-0.4900085,1.702972,-0.1872939,-0.3021616,1.71694,0.2330449,-0.3010219,1.703649,NA,NA,NotTracked,NotTracked,
1.271484,0.362793,-0.03222656,0.9360352,-0.3217773,-0.06982422,4,8,3,-22,-7,29,6,0,-1,-3,-2,0,-2,0,0,0,-20,-20,-20,4.4375,4.4375,4.4375,7.612881,2.972985,4.552228,2.152812,3.035876,4.175945,-0.1910155,-0.5600951,1.651194,0.2187055,-0.5337569,1.606511,0.01846637,0.1913318,1.747339,-0.2347268,-0.5469221,1.65059,0.2429154,-0.5228715,1.571173,0.02145129,-0.2129129,1.741336,0.02044818,-0.5011874,1.73078,-0.1398656,-0.07120822,1.73389,-0.04502664,-0.4893102,1.702684,-0.1872746,-0.302164,1.716907,0.2337398,-0.2982139,1.707251,NA,NA,NotTracked,NotTracked,
1.056641,0.5283203,0.2724609,0.9282227,-0.3198242,-0.0546875,-5,-15,-21,-20,-5,21,-8,-4,-2,-2,0,-1,-2,-2,0,-1,-1.5625,-1.5625,-1.5625,4.0625,4.0625,4.0625,7.056699,3.154648,5.132582,2.163563,3.036878,4.173447,-0.1906567,-0.5596474,1.649831,0.1901095,-0.4812194,1.57316,0.01835098,0.1914313,1.747361,-0.2182515,-0.5455369,1.624315,0.204213,-0.4678645,1.531717,0.02013158,-0.2124423,1.740273,0.01751187,-0.4999586,1.730101,-0.1399164,-0.0710955,1.733712,-0.04841536,-0.4870744,1.702448,-0.1874592,-0.3026756,1.7168,0.2341023,-0.2794883,1.721475,NA,NA,NotTracked,Unknown,
0.9516602,0.7158203,0.4985352,0.9550781,-0.3208008,-0.06787109,8,4,-8,-42,-17,-8,-4,2,-1,-1,-2,-1,-1,-1,-2,0,41.0625,41.0625,41.0625,-7.25,-7.25,-7.25,6.61536,3.632578,5.703916,2.173573,3.032418,4.154457,-0.1906539,-0.5603839,1.649428,0.1311618,-0.4080524,1.550709,0.01780837,0.1916467,1.747708,-0.2190437,-0.5641229,1.6202,0.1536967,-0.3772104,1.503227,0.0185387,-0.2112833,1.741942,0.0135659,-0.4987413,1.73019,-0.1400109,-0.07092028,1.73359,-0.05231003,-0.4854091,1.70308,-0.1873703,-0.3026824,1.716844,0.2345041,-0.2680213,1.723728,NA,NA,NotTracked,Unknown,
0.5473633,0.8623047,0.6723633,0.9262695,-0.3105469,-0.07275391,-8,6,3,0,0,3,5,3,-1,-4,-1,-1,-2,-1,-2,-2,1.75,1.75,1.75,-10.6875,-10.6875,-10.6875,6.461129,4.120187,5.984334,2.174557,3.033204,4.135782,-0.189972,-0.5619242,1.647047,0.07650302,-0.3052488,1.532534,0.01753579,0.191751,1.747797,-0.2255063,-0.5494195,1.633279,0.07627586,-0.2655325,1.499,0.01845212,-0.2103589,1.742769,0.01322396,-0.4974613,1.730351,-0.140039,-0.07086367,1.733493,-0.05250464,-0.4843898,1.703291,-0.1874426,-0.3026604,1.71687,0.2393803,-0.2535437,1.685612,NA,NA,NotTracked,Unknown,
0.02685547,0.4501953,0.6264648,0.940918,-0.3251953,-0.06689453,-7,-9,-3,-6,-4,-7,-5,-6,0,0,-2,-1,-2,0,-1,-1,53.75,53.75,53.75,-15.9375,-15.9375,-15.9375,6.377701,4.794333,6.346893,2.184468,3.028489,4.100081,-0.1896664,-0.5616214,1.647428,0.07180325,-0.1950287,1.55399,0.01755305,0.1919322,1.748352,-0.2247949,-0.5570322,1.626388,0.01650288,-0.246477,1.563069,0.01890131,-0.209513,1.743972,0.01302537,-0.4964631,1.730718,-0.1400565,-0.07073274,1.733433,-0.05258021,-0.4833512,1.704323,-0.1875814,-0.3025899,1.716985,0.2530376,-0.2472984,1.662499,NA,NA,NotTracked,Unknown,
-0.05908203,0.4863281,0.4453125,0.9550781,-0.3339844,-0.06689453,8,-2,5,12,7,10,6,5,0,-1,-2,-2,-1,-3,-2,1,59.875,59.875,59.875,-3.1875,-3.1875,-3.1875,6.548437,5.287508,6.715228,2.188922,3.015433,4.071814,-0.1882003,-0.5599251,1.647102,0.07290415,-0.1514149,1.566123,0.01777755,0.1922151,1.749141,-0.2266572,-0.5554153,1.628071,0.08555657,-0.2370958,1.577154,0.01907473,-0.2093384,1.744594,0.01285055,-0.4963706,1.73076,-0.1398526,-0.07047483,1.733032,-0.05290743,-0.4831232,1.70527,-0.1874957,-0.3016377,1.716953,0.2570489,-0.2429988,1.641775,NA,NA,NotTracked,Unknown,
-0.01220703,0.5273438,0.4111328,0.9360352,-0.3271484,-0.06884766,-34,-13,-2,1,2,7,2,-2,1,-1,-1,0,0,-1,-1,-2,20.8125,20.8125,20.8125,8.1875,8.1875,8.1875,6.655581,5.442582,6.942675,2.187991,3.018719,4.080181,-0.1887272,-0.5599397,1.647807,0.005854554,-0.1029344,1.572969,0.01867994,0.1930427,1.751037,-0.2264384,-0.5521047,1.627048,-0.007015163,-0.1184354,1.536544,0.01970126,-0.208786,1.745203,0.01264426,-0.4962483,1.730748,-0.1382757,-0.0694997,1.730968,-0.05317236,-0.4830006,1.70605,-0.187093,-0.2993155,1.717142,0.2549769,-0.2386939,1.6216,NA,NA,NotTracked,Unknown,
0.03564453,0.7397461,0.3354492,0.9243164,-0.3051758,-0.05761719,2,-1,-2,0,-2,-4,0,4,0,-2,0,-1,-1,-2,-2,-2,-10.4375,-10.4375,-10.4375,12.9375,12.9375,12.9375,6.694128,5.443452,7.069736,2.198676,3.029825,4.091131,-0.1895561,-0.5595325,1.646333,-0.05476921,-0.1022009,1.603978,0.01936818,0.1938216,1.752876,-0.2231573,-0.5526266,1.625325,-0.03885744,-0.0496457,1.595526,0.01992163,-0.208229,1.745843,0.01248878,-0.4962379,1.730753,-0.1378373,-0.06920692,1.729992,-0.05336003,-0.4830341,1.706418,-0.1869382,-0.2986862,1.717409,0.2516432,-0.2379925,1.613575,NA,NA,NotTracked,Unknown,
0.02832031,0.9067383,0.3164063,0.9384766,-0.2973633,-0.07568359,-2,-7,-7,-8,-9,-12,-14,0,-1,-2,-1,-2,-2,0,-1,-1,-29.25,-29.25,-29.25,-6.75,-6.75,-6.75,6.659215,5.412385,7.017572,2.206384,3.032933,4.081045,-0.1884488,-0.5584258,1.644305,-0.05364212,-0.1042951,1.600665,0.01958026,0.1943322,1.753674,-0.2197571,-0.5491184,1.622708,-0.02541351,-0.05569372,1.617164,0.02033911,-0.2079967,1.746161,0.01258642,-0.4962878,1.730681,-0.1377132,-0.06906229,1.729572,-0.0528831,-0.483632,1.706778,-0.1869563,-0.2979178,1.717579,0.2467413,-0.2394569,1.612178,NA,NA,NotTracked,Unknown,
-0.08203125,0.980957,0.4799805,0.934082,-0.3374023,-0.07910156,-4,17,13,4,1,2,3,2,-2,-1,-2,-2,0,-3,-1,-2,-11.3125,-11.3125,-11.3125,-1.8125,-1.8125,-1.8125,6.528842,5.419133,6.657461,2.209617,3.033797,4.067747,-0.1882562,-0.5579803,1.644393,-0.02797996,-0.09934356,1.578671,0.01938934,0.1946049,1.753927,-0.2194349,-0.5488446,1.623995,-0.05592182,-0.1366118,1.596727,0.02016696,-0.2075664,1.746591,0.0121387,-0.4960248,1.730721,-0.1378652,-0.06885698,1.729697,-0.05332729,-0.4833909,1.707199,-0.1869618,-0.297926,1.71796,0.2421273,-0.2422187,1.615644,NA,NA,NotTracked,Unknown,
-0.1943359,0.828125,0.6376953,0.9394531,-0.3388672,-0.07373047,1,-6,-11,-12,-4,2,2,7,-1,-1,-1,-2,-2,0,-2,-1,20.6875,20.6875,20.6875,25,25,25,6.422924,5.434812,6.205862,2.217113,3.042007,4.085642,-0.1885638,-0.5588264,1.64527,0.07615841,-0.1175955,1.540159,0.01885921,0.1948695,1.753953,-0.2235651,-0.5534302,1.626957,0.0332083,-0.1630096,1.604917,0.01957309,-0.2075798,1.745732,0.01198302,-0.4958242,1.73078,-0.1390054,-0.06859745,1.730733,-0.0534749,-0.483209,1.707371,-0.1875364,-0.2993978,1.718601,0.2341157,-0.2418435,1.616835,NA,NA,NotTracked,Unknown,
-0.1889648,0.7021484,0.7177734,0.9423828,-0.3354492,-0.03710938,5,-17,-1,-4,-3,-1,0,4,-2,-1,-2,-2,-2,-1,-1,-3,73.3125,73.3125,73.3125,41.6875,41.6875,41.6875,6.382319,5.417047,5.693531,2.248443,3.048398,4.120735,-0.1897806,-0.5597665,1.64753,0.1633717,-0.1231667,1.517423,0.01705273,0.1950372,1.75304,-0.2241857,-0.5512869,1.626968,0.09707572,-0.1269455,1.56087,0.0195488,-0.2073261,1.745935,0.01196204,-0.4956342,1.73086,-0.1401674,-0.06879809,1.731606,-0.05349719,-0.4831398,1.707388,-0.1882093,-0.2980287,1.719234,0.2319082,-0.2377033,1.634863,NA,NA,NotTracked,Unknown,
-0.3081055,0.6723633,0.7661133,0.9365234,-0.3320313,-0.009765625,-5,-5,-3,-5,1,-2,-12,-7,-1,-2,-1,-1,1,0,-2,1,84.625,84.625,84.625,25.25,25.25,25.25,6.416377,5.381409,5.251593,2.288776,3.042241,4.158521,-0.1921839,-0.5613879,1.649287,0.2249804,-0.1315278,1.518319,0.01454482,0.1949363,1.751413,-0.2253139,-0.553753,1.62495,0.1667117,-0.1198405,1.502487,0.01931399,-0.2073366,1.745964,0.01190504,-0.4956541,1.730871,-0.1405496,-0.0689247,1.731804,-0.05363162,-0.4831991,1.707267,-0.1893053,-0.2982068,1.719953,0.238624,-0.2424314,1.664911,NA,NA,NotTracked,Closed,
-0.2998047,0.6542969,0.855957,0.9438477,-0.340332,-0.01513672,-4,0,3,-4,-2,-8,-10,-4,-1,-2,-1,-3,-1,-3,-1,-1,56.375,56.375,56.375,-4.75,-4.75,-4.75,6.466934,5.337296,4.905356,2.28874,3.027474,4.172175,-0.1928653,-0.5623485,1.653361,0.2559897,-0.1324416,1.520063,0.01310013,0.1947569,1.750496,-0.2274491,-0.5618681,1.625042,0.2007834,-0.1303179,1.505706,0.01812173,-0.2074023,1.746071,0.01176274,-0.4956518,1.730947,-0.1409261,-0.06912528,1.731842,-0.05386593,-0.4832261,1.707043,-0.1900802,-0.2992199,1.720854,0.2424369,-0.2433255,1.691918,NA,NA,NotTracked,Unknown,
-0.2583008,0.6791992,0.7783203,0.9487305,-0.3393555,-0.04394531,-3,5,2,-4,-3,-3,-4,-1,0,-1,-2,-2,-1,-1,-1,-2,10.125,10.125,10.125,-20.4375,-20.4375,-20.4375,6.464983,5.33309,4.779208,2.268788,3.014333,4.163734,-0.1926133,-0.5627689,1.65338,0.2663884,-0.1343758,1.521439,0.01193379,0.1944185,1.749248,-0.2296352,-0.5530522,1.640237,0.2126479,-0.1311462,1.506429,0.01719677,-0.2074878,1.746004,0.01167105,-0.4956113,1.730959,-0.1413003,-0.06921345,1.73191,-0.05404464,-0.48322,1.706757,-0.1903071,-0.2989629,1.721224,0.2490156,-0.2418704,1.692201,NA,NA,NotTracked,Unknown,
-0.2529297,0.6933594,0.703125,0.9477539,-0.3139648,-0.05859375,-4,3,2,0,-1,3,0,-8,0,-1,-1,0,-2,0,-2,0,-4.8125,-4.8125,-4.8125,-29.3125,-29.3125,-29.3125,6.448774,5.334411,4.760741,2.247993,3.01697,4.122374,-0.1912596,-0.5610151,1.650743,0.2660648,-0.1361944,1.522591,0.0114088,0.1942246,1.748142,-0.2215286,-0.5595039,1.624633,0.213425,-0.133043,1.508545,0.01685194,-0.2074317,1.745999,0.01165999,-0.4955583,1.731,-0.141445,-0.06922887,1.731854,-0.05407249,-0.4831724,1.706656,-0.1903995,-0.2989959,1.721135,0.2520874,-0.2413697,1.691346,NA,NA,NotTracked,Unknown,
-0.2285156,0.7119141,0.6357422,0.9487305,-0.3051758,-0.06884766,5,15,9,0,0,0,6,4,1,0,-1,-3,-2,-1,-1,1,-12,-12,-12,-28.9375,-28.9375,-28.9375,6.422668,5.324489,4.768185,2.225776,3.025716,4.092027,-0.1896708,-0.5600863,1.646283,0.2613241,-0.140854,1.517509,0.01135759,0.1941889,1.747316,-0.2257992,-0.551614,1.628689,0.2068994,-0.1326237,1.505573,0.01665321,-0.2074074,1.745752,0.01149935,-0.4954773,1.730887,-0.1415228,-0.06925577,1.731746,-0.05432901,-0.4830703,1.706228,-0.1895608,-0.2987801,1.719945,0.2515247,-0.2417748,1.692357,NA,NA,NotTracked,Unknown,
-0.2148438,0.7392578,0.6044922,0.9379883,-0.3115234,-0.08349609,-12,-8,-8,-8,-4,2,4,-7,-1,-2,-2,-1,-2,0,-1,0,-9.75,-9.75,-9.75,-5.0625,-5.0625,-5.0625,6.411444,5.298176,4.797676,2.198449,3.031911,4.082879,-0.1886964,-0.5567409,1.645832,0.2556254,-0.1502855,1.514395,0.01160982,0.1940638,1.746933,-0.2283303,-0.5359377,1.619286,0.2015364,-0.1469416,1.502695,0.0165856,-0.2074126,1.745674,0.01150833,-0.4954049,1.730863,-0.1414293,-0.06928933,1.732037,-0.05431531,-0.4829614,1.706059,-0.1894978,-0.2980734,1.719575,0.2497828,-0.2417974,1.692623,NA,NA,NotTracked,Unknown,
-0.1577148,0.734375,0.5810547,0.940918,-0.3217773,-0.07470703,1,-7,-1,1,2,-2,5,-1,-2,0,-1,-1,-3,-2,-1,-2,-1.9375,-1.9375,-1.9375,14.6875,14.6875,14.6875,6.409652,5.205863,4.856492,2.190574,3.03387,4.106928,-0.1887016,-0.556451,1.646783,0.2502704,-0.1652401,1.5081,0.01206729,0.1939658,1.746767,-0.2189714,-0.5562915,1.62438,0.1984195,-0.1606158,1.494128,0.01661858,-0.207421,1.745632,0.01167231,-0.4953575,1.73081,-0.1414068,-0.06928096,1.731971,-0.0541189,-0.4829275,1.705825,-0.1892437,-0.2975833,1.71935,0.2457268,-0.243729,1.693068,NA,NA,NotTracked,Unknown,
-0.06347656,0.7285156,0.5878906,0.9355469,-0.3232422,-0.05908203,-12,-7,-3,-1,3,-1,-2,-4,-1,-2,0,-2,0,-1,-1,-1,8.4375,8.4375,8.4375,17.25,17.25,17.25,6.425296,5.110886,4.896656,2.181152,3.029907,4.147575,-0.1890741,-0.557668,1.648123,0.2454214,-0.1862652,1.499996,0.01259166,0.1939598,1.746583,-0.2194923,-0.5514065,1.621684,0.197111,-0.1829228,1.488353,0.01654876,-0.2076361,1.744367,0.01169851,-0.4953219,1.730798,-0.141359,-0.06931756,1.73189,-0.05408748,-0.4828927,1.705661,-0.1890332,-0.2964717,1.719147,0.2304088,-0.2479536,1.707661,NA,NA,NotTracked,Unknown,
0.015625,0.7592773,0.637207,0.9438477,-0.3305664,-0.05859375,-5,1,-1,-1,-3,-5,-4,-7,-2,1,-1,-1,0,-2,0,-1,9,9,9,10.6875,10.6875,10.6875,6.438369,4.990708,4.941713,2.172393,3.026512,4.181043,-0.1914908,-0.5599998,1.65087,0.2417714,-0.2120301,1.494587,0.01396112,0.1938022,1.746452,-0.2219104,-0.5530194,1.624823,0.1931693,-0.2081366,1.482891,0.0167953,-0.2076256,1.744425,0.01193445,-0.4952134,1.730757,-0.14125,-0.06939232,1.731759,-0.05382356,-0.4827958,1.705402,-0.1887457,-0.2969154,1.718893,0.2290071,-0.2488545,1.714474,NA,NA,NotTracked,Closed,
0.07861328,0.737793,0.5917969,0.9375,-0.3330078,-0.05810547,-11,-4,-6,-5,-3,-2,-2,-1,-1,-1,-2,-1,-1,-1,0,-1,13.5,13.5,13.5,-8.375,-8.375,-8.375,6.45468,4.85995,4.983977,2.171957,3.027363,4.179274,-0.1909604,-0.5602546,1.650328,0.2360091,-0.2420976,1.488935,0.01454934,0.1938206,1.746286,-0.2223758,-0.5531055,1.624643,0.187294,-0.2438071,1.481625,0.01696859,-0.2078186,1.743359,0.01209154,-0.4951496,1.730724,-0.1411599,-0.06947658,1.731649,-0.05366775,-0.4826661,1.705095,-0.1888008,-0.2970511,1.718819,0.2337685,-0.2460307,1.733948,NA,NA,NotTracked,Closed,
0.1459961,0.6806641,0.5224609,0.9399414,-0.3198242,-0.06933594,-5,-3,-1,-2,-2,0,0,-1,0,-1,-2,1,-1,-1,1,-2,31.125,31.125,31.125,-14.75,-14.75,-14.75,6.492778,4.630045,5.044841,2.168011,3.026444,4.161052,-0.1906126,-0.5594069,1.650117,0.231225,-0.2831297,1.486065,0.01510931,0.1938889,1.746129,-0.2307575,-0.5392532,1.617333,0.1786648,-0.2917543,1.4905,0.01718142,-0.2076235,1.743518,0.01224351,-0.4949837,1.730742,-0.1411012,-0.06949303,1.731573,-0.053534,-0.4824825,1.70501,-0.1885416,-0.2962146,1.718747,0.2313786,-0.2486728,1.729509,NA,NA,NotTracked,Closed,
0.3339844,0.6972656,0.5288086,0.956543,-0.324707,-0.07714844,14,-2,-10,-6,-5,-3,4,10,-1,-1,-2,-2,-2,-1,-1,-1,31.5625,31.5625,31.5625,-10.3125,-10.3125,-10.3125,6.533893,4.399307,5.082201,2.160676,3.026966,4.146541,-0.1907834,-0.5592215,1.648311,0.2284597,-0.3356052,1.489655,0.0159067,0.1937045,1.746173,-0.2232962,-0.5558764,1.627487,0.1781473,-0.3529904,1.492846,0.01727506,-0.207727,1.742888,0.01233326,-0.4948513,1.730689,-0.1410726,-0.0695008,1.731549,-0.05344553,-0.4823362,1.704848,-0.1881772,-0.2977338,1.718204,0.2304255,-0.2500156,1.72487,NA,NA,NotTracked,Closed,
0.4770508,0.6660156,0.3842773,0.934082,-0.3149414,-0.07666016,-20,-8,1,2,1,0,0,-3,0,-2,0,0,-2,-2,-1,-1,58.125,58.125,58.125,1.125,1.125,1.125,6.626369,4.14819,5.079033,2.153861,3.0346,4.1443,-0.190315,-0.5587327,1.647223,0.2301782,-0.3912376,1.50432,0.01652872,0.1937841,1.746473,-0.2196436,-0.5475795,1.621793,0.1788981,-0.4258173,1.5224,0.01760085,-0.2075866,1.743146,0.01253451,-0.4947523,1.730598,-0.141036,-0.06954163,1.731512,-0.05321991,-0.4822156,1.704604,-0.1881148,-0.2982188,1.717833,0.2311761,-0.254078,1.721501,NA,NA,NotTracked,Unknown,
0.8144531,0.6806641,0.3950195,0.9541016,-0.328125,-0.07714844,8,1,0,1,-1,-1,-1,2,-1,-2,-2,0,-2,-1,-1,1,45.75,45.75,45.75,2.3125,2.3125,2.3125,6.730299,3.843906,5.051798,2.148967,3.039306,4.15461,-0.1907964,-0.559186,1.64773,0.2389291,-0.4378204,1.534022,0.01696279,0.1938561,1.746889,-0.2290626,-0.5496819,1.626636,0.2013093,-0.4403785,1.524905,0.01783517,-0.2075347,1.743456,0.01263243,-0.4948026,1.730526,-0.1409945,-0.06959134,1.731508,-0.05306496,-0.4824261,1.70441,-0.1876276,-0.2989771,1.717453,0.2324741,-0.2638397,1.71664,NA,NA,NotTracked,Unknown,
0.7880859,0.6396484,0.2749023,0.9311523,-0.3149414,-0.07568359,0,1,0,-1,-1,-2,-3,-2,0,-2,-1,-1,1,-1,-1,-1,36.375,36.375,36.375,3.125,3.125,3.125,6.845972,3.557517,4.974399,2.12625,3.043485,4.182789,-0.1916689,-0.5592007,1.648911,0.2426556,-0.4837261,1.560866,0.01776786,0.1939828,1.747408,-0.2193623,-0.5518487,1.622023,0.2040293,-0.4966952,1.548444,0.01817169,-0.207746,1.74311,0.01311312,-0.4949816,1.730534,-0.1409634,-0.06961519,1.73153,-0.05258884,-0.4826643,1.704283,-0.1870164,-0.2998583,1.716832,0.2344221,-0.2758412,1.708052,NA,NA,NotTracked,Unknown,
1.067383,0.4345703,0.003417969,0.9448242,-0.3496094,-0.07861328,2,7,3,2,1,-1,0,0,-2,-1,-1,-3,0,-1,0,-1,94.625,94.625,94.625,2.125,2.125,2.125,7.248443,3.114636,4.696322,2.101775,3.054396,4.215528,-0.191494,-0.5589814,1.648635,0.2378636,-0.5330731,1.584317,0.01865802,0.1938773,1.748197,-0.2250167,-0.545252,1.626071,0.2018762,-0.5441651,1.583971,0.01943787,-0.208776,1.743115,0.01498208,-0.4966565,1.730636,-0.1409275,-0.06967076,1.731565,-0.05029095,-0.4851979,1.704014,-0.1874458,-0.2988195,1.717315,0.2351765,-0.2887082,1.69851,NA,NA,NotTracked,NotTracked,
1.064941,0.2954102,-0.1020508,0.9267578,-0.3291016,-0.08642578,-1,-2,-2,0,0,0,-1,0,-1,0,-2,1,-1,0,-1,0,74.3125,74.3125,74.3125,5.125,5.125,5.125,7.745011,2.983798,4.320442,2.091259,3.065794,4.234547,-0.192116,-0.5590546,1.650278,0.2403998,-0.5450394,1.61346,0.01987862,0.1937701,1.749128,-0.2289395,-0.5511231,1.632661,0.2038331,-0.5504746,1.61375,0.01966026,-0.209647,1.742237,0.01575843,-0.497731,1.730782,-0.1408793,-0.06973963,1.731617,-0.04935616,-0.4866158,1.704142,-0.1875508,-0.2987936,1.717442,0.2347981,-0.2926968,1.694757,NA,NA,NotTracked,NotTracked,
1.008789,0.1342773,-0.159668,0.9121094,-0.3427734,-0.09082031,-6,-4,-1,-1,-1,-1,2,1,-1,-1,-1,0,-2,-2,-2,-2,99.625,99.625,99.625,10.1875,10.1875,10.1875,8.108213,2.93332,4.094947,2.094094,3.076561,4.246367,-0.1925875,-0.5580055,1.648869,0.2392267,-0.5491893,1.629673,0.0212622,0.1937473,1.749911,-0.2249151,-0.5387612,1.62718,0.2023912,-0.5467478,1.629032,0.02041516,-0.2095656,1.742337,0.01637593,-0.4977208,1.730859,-0.140778,-0.0697597,1.731692,-0.04876212,-0.4862103,1.70424,-0.1876786,-0.2982687,1.718118,0.2342379,-0.2942778,1.693545,NA,NA,NotTracked,NotTracked,
0.9545898,0.3999023,-0.1333008,0.9282227,-0.3476563,-0.07470703,-3,-2,-2,-1,-1,-3,-1,1,0,-2,-1,-3,-1,-1,-1,-1,74.0625,74.0625,74.0625,5,5,5,8.381226,2.913545,4.048387,2.101199,3.075833,4.259566,-0.1933014,-0.5560205,1.650315,0.2342151,-0.5528007,1.640881,0.02223023,0.193739,1.750299,-0.2244846,-0.5475023,1.627598,0.1905675,-0.5237395,1.647611,0.02117148,-0.2094153,1.74238,0.01755387,-0.4975274,1.73081,-0.1406874,-0.06976682,1.731783,-0.04749107,-0.4855177,1.704191,-0.1876007,-0.2973493,1.718522,0.2342803,-0.2962305,1.694262,NA,NA,NotTracked,NotTracked,
0.96875,0.3295898,-0.1113281,0.9345703,-0.3364258,-0.08642578,3,2,-1,0,0,-1,1,4,-1,-1,0,-1,-1,-2,-1,0,-38.5625,-38.5625,-38.5625,-5.9375,-5.9375,-5.9375,8.371458,2.901883,4.050349,2.096062,3.066221,4.261857,-0.1937853,-0.5537812,1.653935,0.2307331,-0.5544019,1.648023,0.02281787,0.1936054,1.750519,-0.2216587,-0.5481476,1.623937,0.1973999,-0.5317641,1.658098,0.02129596,-0.2095435,1.741667,0.01794531,-0.4974178,1.730803,-0.1405294,-0.06977881,1.731834,-0.04710387,-0.4851821,1.704111,-0.1870535,-0.2981767,1.718054,0.2343852,-0.2975038,1.696036,NA,NA,NotTracked,NotTracked,
0.9667969,0.1967773,-0.1176758,0.9316406,-0.3442383,-0.09179688,2,0,-1,-1,-1,-1,-2,0,-1,-1,0,-1,-2,0,-2,-1,-25.5625,-25.5625,-25.5625,-10.5,-10.5,-10.5,8.354834,2.887508,4.010519,2.09297,3.06059,4.249247,-0.1925447,-0.5526873,1.652788,0.2298049,-0.5552499,1.648421,0.0232436,0.1936142,1.750562,-0.2317359,-0.5528811,1.630882,0.1865865,-0.5357561,1.643581,0.02147017,-0.2096958,1.741119,0.01858179,-0.4974116,1.730745,-0.1393875,-0.06986581,1.732931,-0.04630578,-0.4852716,1.703997,-0.1871663,-0.2972263,1.718397,0.2344156,-0.2988241,1.698278,NA,NA,NotTracked,NotTracked,
0.9526367,0.1899414,-0.1113281,0.9287109,-0.3325195,-0.0859375,-2,0,-2,-1,0,-1,-2,-3,0,0,-2,-2,-1,-3,-2,-2,-11.9375,-11.9375,-11.9375,-13.125,-13.125,-13.125,8.319979,2.891934,4.017064,2.094576,3.056909,4.225028,-0.1926231,-0.554996,1.651538,0.2304214,-0.5564399,1.646662,0.02380704,0.1934903,1.750623,-0.2210453,-0.5544893,1.625191,0.1855034,-0.5357412,1.640912,0.02169197,-0.2100825,1.74074,0.01930339,-0.4979937,1.730792,-0.1393598,-0.06986711,1.732898,-0.04544054,-0.4865195,1.704007,-0.1872141,-0.2964672,1.718687,0.2346282,-0.2988977,1.699778,NA,NA,NotTracked,NotTracked,
0.9526367,0.2099609,-0.08935547,0.9443359,-0.3232422,-0.08935547,-2,0,-1,-1,-1,1,-1,-1,0,-2,-2,-2,-1,-1,-1,-2,0.5,0.5,0.5,-9.75,-9.75,-9.75,8.276263,2.90589,4.057304,2.098036,3.052012,4.193078,-0.1914794,-0.5542235,1.648224,0.2318949,-0.5555684,1.642761,0.02412717,0.1934848,1.750653,-0.2305328,-0.5537647,1.610833,0.1869885,-0.5287865,1.642988,0.02177587,-0.2101811,1.740514,0.01959159,-0.4980642,1.73085,-0.139316,-0.06993256,1.732765,-0.04515802,-0.4864734,1.703996,-0.1871716,-0.2962494,1.718716,0.2349022,-0.2997254,1.700523,NA,NA,NotTracked,NotTracked,
0.9501953,0.203125,-0.08496094,0.9379883,-0.3291016,-0.09472656,-1,-1,-2,-1,1,0,-1,-1,-2,0,-1,0,-1,0,-1,1,1.9375,1.9375,1.9375,-4.375,-4.375,-4.375,8.237603,2.914491,4.098814,2.100505,3.049405,4.179039,-0.1917543,-0.5569529,1.648947,0.2336902,-0.5525245,1.640227,0.02430912,0.1934465,1.75078,-0.2273968,-0.5525651,1.629354,0.1950957,-0.5314308,1.654844,0.02177763,-0.2102518,1.740368,0.01976541,-0.4980419,1.730923,-0.138539,-0.07033315,1.733355,-0.04504187,-0.4862993,1.704016,-0.1866529,-0.2973751,1.718066,0.2350516,-0.3001649,1.700985,NA,NA,NotTracked,NotTracked,
0.934082,0.2006836,-0.1040039,0.9379883,-0.3295898,-0.09228516,-2,-2,0,0,-2,-2,3,0,-3,-1,-1,0,-1,-2,-1,0,9.5625,9.5625,9.5625,3.125,3.125,3.125,8.144656,2.921805,4.214334,2.105356,3.047678,4.174737,-0.1911899,-0.5562661,1.648577,0.2315946,-0.5524023,1.636856,0.02432269,0.1933713,1.750848,-0.223674,-0.5550218,1.624827,0.1912716,-0.5319683,1.649499,0.02185155,-0.2104455,1.740202,0.02022412,-0.4983606,1.730966,-0.1386023,-0.07033918,1.733259,-0.0445541,-0.4867876,1.703958,-0.1868144,-0.2974404,1.717977,0.2350426,-0.3000099,1.70111,NA,NA,NotTracked,NotTracked,
0.934082,0.2119141,-0.121582,0.9404297,-0.3286133,-0.08349609,-1,-1,-1,-1,-1,-1,-1,0,1,-1,-1,-2,-1,-1,-1,-3,7.4375,7.4375,7.4375,5.5,5.5,5.5,8.130686,2.919937,4.24495,2.109958,3.048909,4.181581,-0.190102,-0.557522,1.64872,0.2295257,-0.5519121,1.636586,0.02438895,0.193326,1.750978,-0.2254597,-0.553821,1.623287,0.1913809,-0.5323376,1.650323,0.02181561,-0.2105046,1.740127,0.02020869,-0.498381,1.730978,-0.1386687,-0.07033945,1.733228,-0.04466403,-0.4866628,1.704007,-0.1863427,-0.2981102,1.717641,0.2349924,-0.300285,1.701191,NA,NA,NotTracked,NotTracked,
0.9365234,0.2241211,-0.121582,0.9365234,-0.3344727,-0.08251953,-2,1,0,1,0,-2,-4,-1,-1,-1,-1,-4,-1,-3,-2,0,7.6875,7.6875,7.6875,4.25,4.25,4.25,8.126125,2.919654,4.263474,2.11467,3.051229,4.18542,-0.1907925,-0.5557808,1.647722,0.2276203,-0.5502466,1.635264,0.02436536,0.1933005,1.751081,-0.2281824,-0.5508485,1.624341,0.1844081,-0.5320448,1.640546,0.02188187,-0.210603,1.739974,0.02037343,-0.498425,1.730915,-0.1385068,-0.07080872,1.733752,-0.04455899,-0.4865607,1.703944,-0.1866331,-0.2973079,1.717894,0.2348609,-0.3002763,1.701179,NA,NA,NotTracked,NotTracked,
0.934082,0.222168,-0.1098633,0.9355469,-0.3369141,-0.08105469,0,-1,-1,0,-2,-1,1,1,0,0,-1,-2,1,-1,-1,-1,-2,-2,-2,3.8125,3.8125,3.8125,8.121458,2.920252,4.271102,2.120358,3.052422,4.186491,-0.1911184,-0.5544277,1.650689,0.227479,-0.5507528,1.635645,0.0241773,0.1933085,1.751205,-0.2379589,-0.5498639,1.655714,0.1985767,-0.5327594,1.660807,0.02230247,-0.2105431,1.740802,0.02051968,-0.4987051,1.730837,-0.138617,-0.07070504,1.733608,-0.04437371,-0.4872563,1.703828,-0.1867457,-0.2973096,1.71816,0.2346219,-0.2998702,1.701209,NA,NA,NotTracked,NotTracked,
0.9443359,0.2255859,-0.09716797,0.9326172,-0.3427734,-0.07421875,-2,0,-1,-1,0,0,0,-1,-1,-1,-1,0,-2,-1,-1,-2,-2.5,-2.5,-2.5,4.25,4.25,4.25,8.118917,2.920686,4.269878,2.127641,3.054215,4.189386,-0.1913576,-0.5567888,1.649191,0.2279366,-0.5508719,1.634404,0.02376807,0.1933245,1.7513,-0.2294429,-0.5473661,1.626753,0.198134,-0.5308291,1.660038,0.0223,-0.2105389,1.741431,0.02042446,-0.4986797,1.73077,-0.1387099,-0.07063265,1.73349,-0.0446208,-0.4870472,1.70373,-0.1867987,-0.2973882,1.718173,0.2344608,-0.2997295,1.701192,NA,NA,NotTracked,NotTracked,
0.9389648,0.2246094,-0.09423828,0.9321289,-0.331543,-0.07128906,0,-1,-2,-1,-1,0,-1,-1,-1,0,-2,0,-1,-1,1,0,-0.375,-0.375,-0.375,0.9375,0.9375,0.9375,8.117121,2.92123,4.270811,2.132034,3.054783,4.188763,-0.1923939,-0.559122,1.64934,0.2273579,-0.5515804,1.635024,0.02363412,0.1932784,1.75147,-0.2253507,-0.5532787,1.627185,0.183443,-0.5268781,1.640588,0.02220794,-0.2104222,1.74169,0.02034617,-0.4986331,1.73079,-0.1388043,-0.070595,1.733432,-0.04482488,-0.4868824,1.703747,-0.1873013,-0.297417,1.718399,0.2343673,-0.2999112,1.701107,NA,NA,NotTracked,NotTracked,
0.9375,0.2211914,-0.09570313,0.9399414,-0.3344727,-0.07519531,-2,-1,-2,-1,-2,0,-2,1,-2,-2,-1,-1,2,-2,-1,-1,2.125,2.125,2.125,-4,-4,-4,8.11445,2.921621,4.275552,2.139399,3.052528,4.176093,-0.1926364,-0.5588433,1.649424,0.2273421,-0.5508622,1.634203,0.02352479,0.1932126,1.751596,-0.2328017,-0.5385001,1.6336,0.1826226,-0.5168403,1.639473,0.0220623,-0.2106213,1.741725,0.02026718,-0.498844,1.730702,-0.1389676,-0.07059187,1.733319,-0.04489104,-0.4873933,1.703635,-0.1871912,-0.2987596,1.718031,0.234225,-0.3000453,1.701012,NA,NA,NotTracked,NotTracked,
0.9443359,0.2319336,-0.105957,0.9326172,-0.3330078,-0.08691406,-2,-1,-2,0,-1,1,0,-3,-1,-2,1,-2,-1,-1,0,-1,3,3,3,-3.5,-3.5,-3.5,8.12029,2.921813,4.275853,2.140125,3.051357,4.168288,-0.1914342,-0.5583119,1.648174,0.226961,-0.5509121,1.633939,0.02339144,0.1932681,1.751597,-0.2218995,-0.5615049,1.621,0.1969414,-0.535589,1.657294,0.02202702,-0.2107245,1.741911,0.02026541,-0.4989608,1.730644,-0.1390648,-0.07051723,1.733229,-0.04488511,-0.4877216,1.70355,-0.1878073,-0.2966693,1.718645,0.2340675,-0.2999663,1.700928,NA,NA,NotTracked,NotTracked,
0.9360352,0.2250977,-0.1000977,0.9394531,-0.3344727,-0.08398438,-1,-1,0,-1,0,-2,0,-1,-2,0,-2,0,-2,-1,0,-2,0.5625,0.5625,0.5625,-0.25,-0.25,-0.25,8.122006,2.92199,4.274912,2.139589,3.0507,4.166183,-0.1918927,-0.5593837,1.648195,0.2276634,-0.5506505,1.633836,0.02314092,0.1931603,1.751487,-0.2267234,-0.5537921,1.628537,0.1919114,-0.5295852,1.651155,0.02172976,-0.2108125,1.741307,0.02008591,-0.4988692,1.73061,-0.1391838,-0.07053175,1.733037,-0.04521738,-0.4873691,1.703574,-0.1880829,-0.2954271,1.719129,0.233771,-0.3002492,1.70082,NA,NA,NotTracked,NotTracked,
0.9394531,0.230957,-0.09228516,0.9355469,-0.324707,-0.08203125,-1,0,-1,-3,0,-1,-1,-3,-1,-2,0,-2,0,-1,-2,-1,-2.25,-2.25,-2.25,1.6875,1.6875,1.6875,8.121344,2.921326,4.273356,2.138059,3.049713,4.167913,-0.1916461,-0.5591248,1.64814,0.2273187,-0.5507304,1.63327,0.02260537,0.1930709,1.7516,-0.2230502,-0.5449404,1.625343,0.1840959,-0.5252294,1.640211,0.02159572,-0.210918,1.741618,0.02002777,-0.4989918,1.730573,-0.1392459,-0.07114898,1.733816,-0.04529899,-0.4874989,1.703561,-0.1882021,-0.2959687,1.7192,0.2336939,-0.3002591,1.700774,NA,NA,NotTracked,NotTracked,
0.9389648,0.2255859,-0.09960938,0.9335938,-0.3325195,-0.07177734,-1,0,0,-2,-1,-1,0,2,-2,-3,-1,-1,-1,-2,-1,-1,-2,-2,-2,2.0625,2.0625,2.0625,8.120386,2.920393,4.270768,2.143057,3.048179,4.167721,-0.1917444,-0.5583856,1.648063,0.2270898,-0.5514336,1.633227,0.02250451,0.193021,1.751611,-0.2261298,-0.5470473,1.627166,0.1829522,-0.5264673,1.63853,0.02142837,-0.2110739,1.741206,0.02004302,-0.4990442,1.730562,-0.1394067,-0.07110267,1.733624,-0.04529981,-0.4874463,1.703524,-0.1872921,-0.2978939,1.717995,0.2335441,-0.3001933,1.700757,NA,NA,NotTracked,NotTracked,
0.9379883,0.2265625,-0.09716797,0.9379883,-0.3320313,-0.078125,-1,-1,-1,-2,-3,-1,-1,-1,-1,-2,-2,-3,-2,0,0,-1,1.6875,1.6875,1.6875,-1.0625,-1.0625,-1.0625,8.11946,2.920606,4.272312,2.144571,3.047193,4.166176,-0.1915984,-0.5614415,1.647899,0.2274103,-0.5507429,1.63276,0.02212994,0.193039,1.751614,-0.2261544,-0.5502347,1.62779,0.1842622,-0.5268186,1.639771,0.0212564,-0.2112294,1.740903,0.01998494,-0.4991004,1.730579,-0.1395066,-0.07106426,1.733485,-0.04531299,-0.4876199,1.703525,-0.1868791,-0.2984765,1.717756,0.2333665,-0.2999656,1.70078,NA,NA,NotTracked,NotTracked,
0.9394531,0.2319336,-0.09375,0.9404297,-0.3344727,-0.08007813,0,-1,0,0,-1,-1,0,0,-1,-1,-1,0,-1,0,-2,-1,2.125,2.125,2.125,-2.1875,-2.1875,-2.1875,8.119106,2.919219,4.276086,2.143785,3.046476,4.163306,-0.1917077,-0.5617808,1.64845,0.2273374,-0.5511514,1.634845,0.02208071,0.1930319,1.751719,-0.2204674,-0.5483116,1.624792,0.1819018,-0.5167936,1.638178,0.02137899,-0.2107045,1.741805,0.01984745,-0.4988496,1.730687,-0.1395809,-0.07095589,1.7334,-0.04557961,-0.4868588,1.703717,-0.1871058,-0.2981604,1.718212,0.2332646,-0.2999239,1.700934,NA,NA,NotTracked,NotTracked,
0.9326172,0.2207031,-0.09912109,0.9379883,-0.324707,-0.078125,0,-1,0,0,-1,0,1,1,-1,-1,-1,-2,-2,-1,0,-1,-0.5625,-0.5625,-0.5625,0.625,0.625,0.625,8.121851,2.918617,4.274187,2.141832,3.04665,4.164442,-0.191908,-0.5575333,1.649583,0.2269692,-0.551036,1.634603,0.02189829,0.1929337,1.751481,-0.2205686,-0.5529535,1.624607,0.1957915,-0.5304155,1.654775,0.02127825,-0.210677,1.742272,0.01984388,-0.4988526,1.730687,-0.1396329,-0.07091475,1.733321,-0.04558257,-0.4868596,1.703712,-0.1873177,-0.2977878,1.718492,0.2330125,-0.2998503,1.700942,NA,NA,NotTracked,NotTracked,
0.940918,0.2207031,-0.09960938,0.9365234,-0.3291016,-0.08203125,-1,-1,-2,0,0,-1,-1,-2,0,-1,-2,-1,0,-2,-1,-1,0.8125,0.8125,0.8125,1.4375,1.4375,1.4375,8.137206,2.915328,4.259825,2.141997,3.046512,4.165945,-0.1930553,-0.5598128,1.64878,0.2281439,-0.5517687,1.63556,0.0216142,0.1929075,1.751317,-0.2310827,-0.5525675,1.629941,0.1925983,-0.5310029,1.651627,0.02122357,-0.2107266,1.742332,0.01978776,-0.498953,1.7307,-0.1392839,-0.07150567,1.734674,-0.0456585,-0.4871793,1.703698,-0.1875044,-0.2980799,1.718468,0.2329929,-0.2999304,1.700927,NA,NA,NotTracked,NotTracked,
0.9404297,0.2299805,-0.09765625,0.9335938,-0.3344727,-0.07470703,1,0,0,-2,-1,2,-1,-1,-2,-1,-2,0,-1,-1,-1,-3,-2.375,-2.375,-2.375,1.6875,1.6875,1.6875,8.144632,2.913313,4.250259,2.141077,3.04617,4.170486,-0.1915977,-0.5599805,1.651135,0.2281869,-0.5514642,1.636268,0.02147347,0.1928304,1.751328,-0.2300217,-0.5504275,1.638,0.1817279,-0.5158045,1.64,0.02118036,-0.210934,1.741898,0.01984398,-0.4990616,1.730791,-0.1394138,-0.0714168,1.734504,-0.04555713,-0.4873963,1.703809,-0.1877065,-0.2980578,1.718709,0.2328575,-0.3001429,1.701086,NA,NA,NotTracked,NotTracked,
0.9428711,0.2167969,-0.09326172,0.9379883,-0.3378906,-0.07910156,1,-1,-1,0,-1,0,1,0,-3,-1,-3,-1,-2,-1,-1,0,-2,-2,-2,2.3125,2.3125,2.3125,8.13896,2.910866,4.251371,2.145192,3.045831,4.170051,-0.1928928,-0.5598342,1.649627,0.2279608,-0.5522018,1.635321,0.02140241,0.192805,1.751282,-0.2287201,-0.5544223,1.626745,0.1928176,-0.5273387,1.652221,0.02112571,-0.2110388,1.74152,0.01979161,-0.4989967,1.730805,-0.139159,-0.07153906,1.734868,-0.04570436,-0.4869453,1.703753,-0.1878408,-0.2979095,1.718627,0.2328477,-0.3000729,1.701139,NA,NA,NotTracked,NotTracked,
0.9418945,0.2348633,-0.09716797,0.9404297,-0.3237305,-0.06884766,0,-2,-2,-1,0,-1,-2,-3,0,-1,-2,-2,-1,-1,-1,-1,-0.5625,-0.5625,-0.5625,-0.625,-0.625,-0.625,8.138332,2.911165,4.251697,2.146156,3.045926,4.170282,-0.1916633,-0.5602614,1.650816,0.2281542,-0.5514016,1.636065,0.0214343,0.1927743,1.751255,-0.2220502,-0.5428694,1.630424,0.1929049,-0.5260762,1.652556,0.0213089,-0.2110873,1.742079,0.01980558,-0.4991604,1.730827,-0.1392924,-0.07141008,1.734552,-0.04569401,-0.4872927,1.703734,-0.1878391,-0.2980016,1.718683,0.232857,-0.2999963,1.701294,NA,NA,NotTracked,NotTracked,
0.9384766,0.2231445,-0.09472656,0.9379883,-0.3325195,-0.07617188,-1,-1,-1,0,-1,-1,0,1,1,0,-2,-1,0,-1,-1,-1,1.6875,1.6875,1.6875,-3.625,-3.625,-3.625,8.122418,2.912572,4.268246,2.144836,3.045583,4.165102,-0.191302,-0.5593799,1.649246,0.2269155,-0.5507741,1.63517,0.02156927,0.1927271,1.751023,-0.2272228,-0.5514218,1.631189,0.1839508,-0.5170799,1.64052,0.02122507,-0.2112955,1.74138,0.01980704,-0.4992335,1.730765,-0.1393854,-0.07131043,1.734263,-0.04569006,-0.4873546,1.703601,-0.1879917,-0.2978424,1.718687,0.2328456,-0.2998959,1.701298,NA,NA,NotTracked,NotTracked,
0.9428711,0.2250977,-0.1010742,0.9360352,-0.3261719,-0.07958984,-2,0,0,-1,0,-1,1,0,-2,-2,-1,0,-1,-1,-1,-3,3.375,3.375,3.375,-3,-3,-3,8.120003,2.913873,4.277062,2.14563,3.044361,4.158099,-0.1914364,-0.5601158,1.64868,0.2270883,-0.5503124,1.635047,0.02166335,0.1926562,1.751027,-0.2270991,-0.5538689,1.628193,0.1950616,-0.5303901,1.654804,0.02129639,-0.2114805,1.741062,0.0200214,-0.4993607,1.730754,-0.1394515,-0.07127489,1.734124,-0.04536016,-0.4876345,1.703448,-0.188092,-0.2979004,1.718886,0.2328827,-0.299986,1.70134,NA,NA,NotTracked,NotTracked,
0.9399414,0.2275391,-0.09277344,0.9375,-0.3300781,-0.07373047,-1,-1,0,0,-1,0,-1,-1,0,-1,-2,-2,-1,-1,0,-2,0.5625,0.5625,0.5625,0.1875,0.1875,0.1875,8.111441,2.91435,4.287929,2.144562,3.04436,4.158147,-0.1914666,-0.5600362,1.648917,0.2267542,-0.5508045,1.634358,0.02174339,0.1926266,1.750917,-0.2291708,-0.544508,1.639532,0.1985931,-0.5281991,1.660962,0.02122488,-0.2115805,1.740722,0.01999903,-0.4993574,1.730708,-0.1395194,-0.07125588,1.733927,-0.04542834,-0.4875115,1.703328,-0.1880593,-0.2979914,1.718779,0.2328926,-0.3000439,1.70138,NA,NA,NotTracked,NotTracked,
0.9414063,0.2329102,-0.09521484,0.9414063,-0.3286133,-0.08105469,1,-1,1,-1,0,-1,-1,-1,-2,1,-1,-1,0,0,-1,-1,-0.9375,-0.9375,-0.9375,2.1875,2.1875,2.1875,8.105328,2.914996,4.294249,2.143373,3.04386,4.160964,-0.1913234,-0.5575285,1.650707,0.2269955,-0.5507808,1.634718,0.0218308,0.1926069,1.750929,-0.2221901,-0.5537511,1.626285,0.1960637,-0.5302821,1.65527,0.02120213,-0.2115645,1.740558,0.02001555,-0.4992427,1.730724,-0.1395402,-0.07118496,1.733789,-0.04549023,-0.4870004,1.703358,-0.1881208,-0.2979529,1.71894,0.2329195,-0.3000726,1.701418,NA,NA,NotTracked,NotTracked,
0.9379883,0.2231445,-0.09082031,0.9384766,-0.3295898,-0.07617188,-3,-1,0,-1,1,-1,-1,1,0,-2,-2,-2,0,-2,-1,-2,-0.5625,-0.5625,-0.5625,0.8125,0.8125,0.8125,8.106398,2.914519,4.293402,2.144863,3.043786,4.163178,-0.1914224,-0.5566413,1.650127,0.2269927,-0.5510446,1.633819,0.02199505,0.1925249,1.750771,-0.2244426,-0.5518894,1.628203,0.190393,-0.5251834,1.648877,0.02136155,-0.2116779,1.741102,0.02004816,-0.4993549,1.730694,-0.1395739,-0.0711436,1.733634,-0.04541744,-0.4872794,1.703309,-0.1882147,-0.2978861,1.719037,0.2329562,-0.3002841,1.701532,NA,NA,NotTracked,NotTracked,
0.9443359,0.2304688,-0.08642578,0.9355469,-0.331543,-0.07519531,-1,-2,0,0,-2,0,-1,-1,-3,0,-1,-2,-2,0,0,-1,0,0,0,-1.5625,-1.5625,-1.5625,8.103005,2.914233,4.296653,2.143525,3.044105,4.164083,-0.1914042,-0.5593485,1.649218,0.2275832,-0.5512779,1.634907,0.02216735,0.1924561,1.750733,-0.2242541,-0.5568867,1.621444,0.1970761,-0.5265442,1.659318,0.0217416,-0.2115898,1.741637,0.02015984,-0.4995241,1.730686,-0.1396081,-0.07108612,1.733558,-0.04524171,-0.4876914,1.703332,-0.1880987,-0.2969043,1.719276,0.2329576,-0.3001697,1.701573,NA,NA,NotTracked,NotTracked,
0.940918,0.2333984,-0.08837891,0.9345703,-0.3359375,-0.07275391,0,-2,0,-1,0,0,0,0,-3,-1,0,-2,-2,-3,-1,-3,1.0625,1.0625,1.0625,0.4375,0.4375,0.4375,8.087843,2.913401,4.31354,2.14248,3.043987,4.164048,-0.1909917,-0.5594068,1.649947,0.2262242,-0.5506534,1.633505,0.02230759,0.1923487,1.750665,-0.232126,-0.5449796,1.646143,0.1822537,-0.5218146,1.637667,0.0217031,-0.2117596,1.741205,0.02026596,-0.4996085,1.73067,-0.1396162,-0.07106441,1.733449,-0.04507167,-0.4880376,1.703325,-0.1881514,-0.2973537,1.719283,0.2329338,-0.2999999,1.701693,NA,NA,NotTracked,NotTracked,
0.9433594,0.2319336,-0.1000977,0.9350586,-0.3325195,-0.07617188,-2,-1,0,0,-1,0,-1,-1,-2,-1,-3,-2,-2,1,-2,-1,1.5,1.5,1.5,1.375,1.375,1.375,8.081224,2.913946,4.323025,2.148171,3.044664,4.161877,-0.1910964,-0.5590066,1.648297,0.2258373,-0.5506163,1.632851,0.02234277,0.1923125,1.750572,-0.2238416,-0.5488322,1.630907,0.1818489,-0.5157923,1.63725,0.02179422,-0.21177,1.741274,0.02023433,-0.4996837,1.73062,-0.1396588,-0.07103644,1.733392,-0.04514003,-0.4880684,1.703236,-0.1881513,-0.2958652,1.719673,0.2329149,-0.2999423,1.701745,NA,NA,NotTracked,NotTracked,
0.9379883,0.2270508,-0.08691406,0.9438477,-0.3310547,-0.07324219,-1,-3,-1,-2,0,-2,1,2,-1,1,-1,0,-2,0,-1,-1,1,1,1,-0.0625,-0.0625,-0.0625,8.065462,2.91433,4.340717,2.148261,3.044559,4.161592,-0.1920426,-0.5590028,1.649393,0.2255006,-0.5505934,1.63312,0.02247853,0.1922432,1.750365,-0.227979,-0.549794,1.634142,0.1960179,-0.5273074,1.65603,0.02166754,-0.2117305,1.740927,0.02014379,-0.4994841,1.730601,-0.1395059,-0.07153691,1.734299,-0.04537085,-0.4873812,1.703169,-0.188234,-0.296219,1.719734,0.2329206,-0.2997519,1.701921,NA,NA,NotTracked,NotTracked,
