ALX,ALY,ALZ,ARX,ARY,ARZ,EMG0L,EMG1L,EMG2L,EMG3L,EMG4L,EMG5L,EMG6L,EMG7L,EMG0R,EMG1R,EMG2R,EMG3R,EMG4R,EMG5R,EMG6R,EMG7R,GLX,GLY,GLZ,GRX,GRY,GRZ,ORL,OPL,OYL,ORR,OPR,OYR,LHNX,LHNY,LHNZ,RHNX,RHNY,RHNZ,HX,HY,HZ,LTX,LTY,LTZ,RTX,RTY,RTZ,SpineMidX,SpineMidY,SpineMidZ,SpineBaseX,SpineBaseY,SpineBaseZ,ShoulderLeftX,ShoulderLeftY,ShoulderLeftZ,ShoulderRightX,ShoulderRightY,ShoulderRightZ,ElbowLeftX,ElbowLeftY,ElbowLeftZ,ElbowRightX,ElbowRightY,ElbowRightZ,Myo_Pose_left,Myo_Pose_Right,Kinect_pose_left,Kinect_pose_right
0.9458008,0.2080078,-0.1254883,0.9555664,-0.2592773,-0.05957031,-1,0,0,-1,0,-3,-2,-3,-1,-2,1,-2,-2,-2,-1,0,0.5,0.5,0.5,-0.4375,-0.4375,-0.4375,8.402752,2.900843,3.793585,2.087369,2.930779,4.458051,-0.1788258,-0.5612267,1.662813,0.238365,-0.5562478,1.631423,0.03284469,0.1967156,1.739979,-0.1316119,-0.5202238,1.639136,0.194242,-0.5377718,1.627125,0.03549723,-0.2170096,1.730603,0.02850781,-0.5134514,1.715808,-0.1169932,-0.05017611,1.716748,-0.04584793,-0.5005401,1.686849,-0.1808533,-0.2889158,1.717129,0.2403006,-0.2867881,1.697012,NA,NA,NotTracked,NotTracked,
0.9365234,0.2080078,-0.128418,0.9624023,-0.2548828,-0.06396484,0,0,-1,-2,0,-2,0,1,-1,1,-1,0,0,-1,-2,-1,3.375,3.375,3.375,0.625,0.625,0.625,8.395342,2.901769,3.805573,2.087321,2.930281,4.457509,-0.1784507,-0.5617061,1.664453,0.2382037,-0.5555523,1.631642,0.03274978,0.1967412,1.739939,-0.1319425,-0.5229218,1.641182,0.1942636,-0.5373756,1.627254,0.03573925,-0.2170737,1.730463,0.02865269,-0.5134084,1.715742,-0.1168155,-0.04999738,1.716646,-0.04568178,-0.5005237,1.686755,-0.1809328,-0.2896565,1.717132,0.2402731,-0.2867302,1.697023,NA,NA,NotTracked,NotTracked,
0.9404297,0.2084961,-0.1352539,0.9609375,-0.25,-0.07177734,4,3,-1,-1,-1,-1,0,-1,-1,-3,-3,0,-1,-2,-1,-1,1.0625,1.0625,1.0625,-1.1875,-1.1875,-1.1875,8.393005,2.903455,3.814217,2.086466,2.930228,4.457941,-0.1784527,-0.5612722,1.663175,0.237881,-0.5558816,1.63073,0.03266784,0.1967501,1.739954,-0.1319054,-0.5229977,1.640867,0.1951298,-0.5584654,1.629471,0.0357993,-0.217164,1.730422,0.02862773,-0.5134044,1.715749,-0.1167196,-0.04991598,1.716557,-0.04571327,-0.5005316,1.68672,-0.1808252,-0.2887915,1.717141,0.2402721,-0.2867005,1.697041,NA,NA,NotTracked,NotTracked,
0.9389648,0.1982422,-0.1235352,0.9580078,-0.2553711,-0.06005859,-1,-1,0,0,0,-4,-2,0,-2,-2,-2,-1,-2,-1,0,0,-2.0625,-2.0625,-2.0625,-0.625,-0.625,-0.625,8.387187,2.904204,3.817213,2.085812,2.930512,4.457735,-0.1775085,-0.5605014,1.662341,0.2381341,-0.5556958,1.629853,0.03261672,0.1967306,1.739963,-0.131322,-0.5162774,1.638275,0.1944453,-0.5416205,1.626943,0.03558502,-0.2170755,1.730539,0.02864585,-0.5133849,1.715711,-0.1166636,-0.04985528,1.716465,-0.04570343,-0.5005326,1.686704,-0.1807838,-0.2887897,1.717063,0.2402713,-0.286716,1.697039,NA,NA,NotTracked,NotTracked,
0.9418945,0.2021484,-0.1298828,0.9614258,-0.2514648,-0.06738281,-2,1,1,0,-1,1,-1,-2,0,-1,-1,-2,-1,-3,-1,-2,1.5625,1.5625,1.5625,2.25,2.25,2.25,8.389191,2.90349,3.81605,2.088341,2.92979,4.458109,-0.1785579,-0.5604852,1.66263,0.2381408,-0.5557985,1.62974,0.03254171,0.196748,1.739936,-0.1316805,-0.5275704,1.640768,0.1955932,-0.5413904,1.628314,0.03568265,-0.2171714,1.73041,0.02863877,-0.5133851,1.715691,-0.1165951,-0.04976871,1.716411,-0.04572892,-0.5005513,1.686722,-0.180716,-0.2889363,1.717046,0.2402687,-0.2866969,1.697035,NA,NA,NotTracked,NotTracked,
0.9399414,0.2080078,-0.1254883,0.9584961,-0.2607422,-0.06982422,2,1,1,-1,-1,1,-4,-4,-2,-2,-1,0,-1,-2,0,1,1.5625,1.5625,1.5625,1.875,1.875,1.875,8.386963,2.902879,3.821297,2.089311,2.929701,4.461647,-0.1784878,-0.5614986,1.663784,0.2378246,-0.5560959,1.630627,0.03235969,0.1967004,1.739959,-0.1318528,-0.5241644,1.640872,0.1956714,-0.5447,1.628816,0.03526316,-0.2170735,1.730664,0.02857045,-0.5134274,1.715728,-0.1165785,-0.04975754,1.716413,-0.04579202,-0.5005885,1.68676,-0.180706,-0.289144,1.717207,0.240253,-0.2866764,1.697087,NA,NA,NotTracked,NotTracked,
0.9423828,0.2075195,-0.1289063,0.9638672,-0.2578125,-0.06396484,-3,-2,-1,-1,1,-1,0,-1,0,-1,0,-2,0,-1,-1,-1,1.4375,1.4375,1.4375,-0.375,-0.375,-0.375,8.383675,2.903093,3.826386,2.090348,2.930201,4.461658,-0.1781477,-0.5615091,1.663676,0.23725,-0.5557289,1.63033,0.0322502,0.1967047,1.73993,-0.1318822,-0.5281047,1.640889,0.1942309,-0.5402401,1.626761,0.03506687,-0.2169353,1.730876,0.02852366,-0.5133992,1.7158,-0.1177581,-0.05064888,1.717575,-0.04581182,-0.500574,1.686797,-0.1807141,-0.2885236,1.717263,0.2402608,-0.2864682,1.697172,NA,NA,NotTracked,NotTracked,
0.9423828,0.2011719,-0.1279297,0.9580078,-0.2573242,-0.06201172,2,-1,0,-1,0,-1,-2,-5,-2,-1,-1,-1,-1,0,0,-1,-0.375,-0.375,-0.375,-1.75,-1.75,-1.75,8.383392,2.90338,3.827229,2.089332,2.931591,4.460671,-0.1785725,-0.5611041,1.663892,0.2372836,-0.5561571,1.630204,0.03210893,0.1967451,1.740025,-0.1319657,-0.5241144,1.641004,0.194434,-0.5498866,1.627083,0.0349457,-0.2168957,1.731002,0.02852197,-0.5133811,1.715812,-0.1175798,-0.05046738,1.71752,-0.04582277,-0.5005729,1.686843,-0.1807121,-0.2876374,1.717281,0.2402112,-0.2864438,1.697158,NA,NA,NotTracked,NotTracked,
0.9462891,0.206543,-0.128418,0.9594727,-0.2568359,-0.06103516,1,-2,0,-1,-3,-3,-1,-1,0,0,-1,0,-1,0,-1,-1,-0.0625,-0.0625,-0.0625,-0.25,-0.25,-0.25,8.383173,2.902972,3.827436,2.09008,2.931537,4.458771,-0.1782817,-0.5617907,1.663039,0.2374419,-0.5563831,1.629671,0.03205923,0.1967565,1.740024,-0.1320477,-0.5517911,1.643333,0.1959744,-0.5430796,1.629156,0.03464234,-0.2167028,1.731235,0.02852041,-0.5133691,1.715801,-0.1173911,-0.0503368,1.717351,-0.04583189,-0.5005787,1.686851,-0.1807676,-0.2879465,1.717365,0.2402043,-0.2864436,1.697165,NA,NA,NotTracked,NotTracked,
0.9975586,0.2680664,-0.1791992,0.9648438,-0.2587891,-0.07128906,4,7,-1,-7,-1,-5,-6,-1,-1,-2,0,0,-1,-1,-1,0,-11.375,-11.375,-11.375,1.1875,1.1875,1.1875,8.333407,2.909445,3.871247,2.088462,2.932364,4.461028,-0.1783647,-0.5612005,1.664105,0.2353605,-0.5540911,1.628617,0.03192439,0.1968838,1.740115,-0.1318451,-0.5253189,1.641816,0.1917565,-0.5238826,1.624522,0.03465936,-0.2166712,1.731314,0.02851763,-0.5133058,1.715884,-0.1172627,-0.05019761,1.717292,-0.04582656,-0.500524,1.686949,-0.1807715,-0.2880187,1.717409,0.2402536,-0.2861554,1.697382,NA,NA,NotTracked,NotTracked,
1.21875,0.3374023,-0.1005859,0.9414063,-0.2421875,-0.06103516,-10,-6,-19,-31,-9,2,-1,-5,-1,-1,0,-2,-1,-1,-1,-1,-34.9375,-34.9375,-34.9375,3.1875,3.1875,3.1875,8.108174,2.92492,4.065976,2.074203,2.937879,4.482422,-0.178063,-0.5608402,1.661608,0.2220031,-0.5409241,1.607004,0.03181612,0.1968951,1.740263,-0.1317453,-0.5205244,1.639099,0.1837232,-0.5252008,1.614474,0.03487549,-0.2168377,1.731122,0.02846204,-0.5132732,1.71584,-0.1171389,-0.05014922,1.717206,-0.04587489,-0.5004654,1.686921,-0.1807422,-0.2880047,1.717466,0.2404049,-0.2856404,1.698293,NA,NA,NotTracked,NotTracked,
1.113281,0.453125,0.359375,0.9638672,-0.2626953,-0.06591797,1,-11,-43,-19,-2,-10,-6,-1,-1,-2,-2,0,-1,-2,-3,-2,12.3125,12.3125,12.3125,1.5625,1.5625,1.5625,7.009695,3.196379,5.140934,2.089178,2.936324,4.471799,-0.1783161,-0.5610826,1.662773,0.1943996,-0.4986605,1.574353,0.03149,0.19681,1.740608,-0.1320085,-0.5133966,1.639875,0.1676711,-0.5186119,1.58915,0.03448695,-0.2168971,1.730815,0.02566777,-0.5127108,1.715189,-0.1171216,-0.0501307,1.717227,-0.04899492,-0.4993191,1.686476,-0.1807355,-0.2879764,1.717493,0.2428328,-0.2695461,1.705814,NA,NA,NotTracked,NotTracked,
1.092285,0.675293,0.4711914,0.9672852,-0.2709961,-0.05957031,-1,4,15,22,5,-1,-1,-4,1,0,-3,-1,-2,-1,1,-3,66.375,66.375,66.375,-3.125,-3.125,-3.125,6.792773,3.435989,5.463855,2.118735,2.933371,4.437634,-0.1781353,-0.5616804,1.664004,0.1256385,-0.4490574,1.549288,0.0312883,0.1968762,1.740913,-0.131955,-0.5252835,1.641678,0.1636149,-0.5060347,1.593795,0.03181339,-0.2158671,1.73209,0.02242892,-0.5120749,1.715556,-0.1202783,-0.05250511,1.721486,-0.05203979,-0.4985775,1.687056,-0.1804902,-0.2867261,1.717766,0.2441932,-0.2533112,1.708446,NA,NA,NotTracked,Unknown,
0.699707,0.703125,0.6123047,0.9658203,-0.2607422,-0.06005859,-21,5,13,4,-1,-7,-2,-4,-1,0,0,-1,-1,0,-2,-3,30.5,30.5,30.5,-7.4375,-7.4375,-7.4375,6.531847,4.059732,5.945621,2.127827,2.937388,4.414869,-0.1776985,-0.5614316,1.663434,0.09900264,-0.3316889,1.533033,0.03100033,0.1970718,1.741485,-0.1318142,-0.5246301,1.641119,0.05812841,-0.2812027,1.56264,0.03098247,-0.2154346,1.732895,0.02172894,-0.5117948,1.715889,-0.1216523,-0.05344247,1.723756,-0.05246525,-0.4985448,1.687451,-0.18042,-0.2867593,1.717862,0.2476894,-0.2404901,1.690457,NA,NA,NotTracked,Unknown,
0.1220703,0.6342773,0.5537109,0.9584961,-0.2597656,-0.05664063,-3,-9,0,-6,-6,-4,-5,-3,-2,-1,0,-2,-2,-1,0,-1,44.5,44.5,44.5,-2.3125,-2.3125,-2.3125,6.46435,4.713355,6.342951,2.122579,2.947327,4.413161,-0.177769,-0.5606433,1.660062,0.06152492,-0.2248111,1.535205,0.03099884,0.1971281,1.741771,-0.1319079,-0.5234451,1.641897,0.07134949,-0.1717646,1.590546,0.03106348,-0.2148091,1.733201,0.02169869,-0.5100675,1.716415,-0.1221697,-0.05466384,1.724727,-0.052097,-0.4973757,1.688535,-0.1800703,-0.2858517,1.717917,0.2559435,-0.2355548,1.656272,NA,NA,NotTracked,Unknown,
0.08544922,0.5097656,0.4287109,0.9492188,-0.2729492,-0.06347656,-1,4,0,2,-4,-3,-1,1,-1,-1,-1,-1,-1,-2,-1,0,53.0625,53.0625,53.0625,5.375,5.375,5.375,6.541027,5.119919,6.568757,2.125629,2.954029,4.415165,-0.17757,-0.5600128,1.660517,-0.001474918,-0.1449929,1.552391,0.03109569,0.1972511,1.742437,-0.1319826,-0.5196097,1.642034,0.02072008,-0.1205096,1.511716,0.03116021,-0.2141701,1.73412,0.0217136,-0.5096852,1.716776,-0.1195166,-0.05345582,1.722463,-0.05196359,-0.4968801,1.690311,-0.1799476,-0.2852942,1.71801,0.2505175,-0.228761,1.623936,NA,NA,NotTracked,Unknown,
0.03027344,0.5419922,0.355957,0.9492188,-0.2641602,-0.07861328,15,7,1,0,-2,-1,5,5,-3,-3,-1,-1,-3,-1,-1,-1,33,33,33,4.3125,4.3125,4.3125,6.63349,5.369625,6.746671,2.127282,2.952287,4.426889,-0.1772484,-0.5605623,1.661296,-0.02465619,-0.1133019,1.570375,0.03185772,0.1974214,1.743609,-0.1320447,-0.5231993,1.642347,-0.004174429,-0.05958157,1.58963,0.03145174,-0.2137092,1.73438,0.02179721,-0.5089758,1.717085,-0.1156363,-0.05128948,1.71778,-0.05177545,-0.4961879,1.691405,-0.17963,-0.2853464,1.718366,0.24458,-0.2247173,1.610248,NA,NA,NotTracked,Unknown,
0.07226563,0.7246094,0.2661133,0.940918,-0.2685547,-0.07910156,0,2,5,7,1,-2,-3,1,-1,-2,-1,0,0,-2,-1,-1,12.1875,12.1875,12.1875,0.6875,0.6875,0.6875,6.698416,5.449529,6.831779,2.123176,2.952041,4.432278,-0.1772516,-0.5603543,1.661921,-0.02460691,-0.1110608,1.574288,0.03243482,0.1978183,1.744513,-0.1319947,-0.5219101,1.641863,0.008576225,-0.08473007,1.529195,0.03182997,-0.2135437,1.734457,0.0219152,-0.5087067,1.717186,-0.113658,-0.05051938,1.714892,-0.05160462,-0.4959718,1.691758,-0.1794455,-0.2851692,1.718441,0.238135,-0.2229999,1.603079,NA,NA,NotTracked,Unknown,
0.04736328,0.9321289,0.3447266,0.9482422,-0.269043,-0.07763672,-8,-9,-10,-16,-16,-21,-11,-8,-1,0,-1,-1,0,-1,-2,-1,-15.4375,-15.4375,-15.4375,-0.875,-0.875,-0.875,6.650708,5.44463,6.666533,2.121774,2.951555,4.433125,-0.1777963,-0.5603246,1.661154,-0.02726493,-0.1099079,1.570244,0.03266652,0.198022,1.744729,-0.1319423,-0.5236539,1.641563,0.005889941,-0.06482953,1.603122,0.03188098,-0.2133769,1.734485,0.021624,-0.50844,1.717188,-0.1133244,-0.05024026,1.714679,-0.05189942,-0.4957591,1.691988,-0.1793588,-0.2851097,1.718542,0.236905,-0.2233401,1.603207,NA,NA,NotTracked,Unknown,
-0.1201172,1.041992,0.5214844,0.9663086,-0.2553711,-0.06787109,-2,5,13,8,9,6,-5,2,-2,0,-2,-1,-2,-1,-1,-2,-30.5625,-30.5625,-30.5625,-4.8125,-4.8125,-4.8125,6.532396,5.451472,6.329437,2.095033,2.950544,4.453951,-0.1779263,-0.5607582,1.662501,0.0615081,-0.1140543,1.534212,0.03268626,0.1980347,1.744761,-0.1318757,-0.523491,1.641241,0.04880448,-0.1637446,1.58775,0.03165066,-0.2132051,1.734795,0.02116485,-0.5080818,1.717466,-0.1135765,-0.04991218,1.715227,-0.05249584,-0.4955679,1.692788,-0.1794004,-0.2836083,1.719043,0.2374033,-0.2261205,1.610469,NA,NA,NotTracked,Unknown,
-0.2744141,0.7324219,0.5961914,0.9477539,-0.2875977,-0.06884766,2,6,-1,2,4,0,-2,4,-1,-1,-2,-1,-1,0,-1,-3,29,29,29,12.5625,12.5625,12.5625,6.384505,5.507108,5.825389,2.071308,2.956965,4.491844,-0.1787735,-0.5609227,1.662724,0.07080861,-0.1045949,1.551761,0.03188091,0.1982045,1.744447,-0.1318267,-0.5225719,1.640845,0.03959818,-0.133134,1.593409,0.03150291,-0.2129695,1.735135,0.02108859,-0.5080351,1.717844,-0.119488,-0.05230186,1.723054,-0.05267794,-0.4957903,1.693308,-0.1796568,-0.283419,1.719543,0.2341231,-0.2254397,1.61228,NA,NA,NotTracked,Unknown,
-0.3232422,0.5668945,0.8227539,0.9521484,-0.2617188,-0.05664063,-9,-12,-11,-7,-1,2,-12,-12,-1,-2,-1,-1,-2,-1,-1,-1,109.375,109.375,109.375,28,28,28,6.324405,5.489117,5.108324,2.065358,2.956296,4.543235,-0.1799792,-0.5613074,1.664558,0.2054728,-0.1192799,1.501733,0.03006291,0.1983507,1.742603,-0.131885,-0.5237079,1.640989,0.1364465,-0.09802311,1.557714,0.03151477,-0.2129002,1.735145,0.02132438,-0.5079152,1.718129,-0.1231935,-0.05391611,1.726359,-0.05241688,-0.4961447,1.69378,-0.1802738,-0.283725,1.720327,0.2383435,-0.2196376,1.635688,NA,NA,NotTracked,Unknown,
-0.2568359,0.5239258,0.8344727,0.9526367,-0.3041992,-0.04882813,-7,-2,6,5,-1,0,1,-1,-1,-2,-1,-2,1,-1,-1,0,88,88,88,18.625,18.625,18.625,6.372921,5.432356,4.72486,2.084803,2.944143,4.576044,-0.1818968,-0.5623078,1.668024,0.2569394,-0.1273155,1.49965,0.02822852,0.1977049,1.740862,-0.132332,-0.5348164,1.639909,0.1974215,-0.1217085,1.481611,0.03095202,-0.2129584,1.735103,0.0213435,-0.5080567,1.718342,-0.1231708,-0.05345393,1.725385,-0.05248617,-0.4964859,1.693729,-0.1809794,-0.2837188,1.721478,0.247742,-0.2249869,1.660798,NA,NA,NotTracked,Unknown,
-0.2368164,0.628418,0.9365234,0.9584961,-0.2700195,-0.05761719,-39,-15,-5,5,3,-6,5,-7,-1,-2,0,-1,0,-3,0,-1,73.5,73.5,73.5,-2.125,-2.125,-2.125,6.418588,5.397702,4.578477,2.08266,2.929002,4.587588,-0.1830121,-0.5601372,1.671695,0.277831,-0.1316402,1.504369,0.02657501,0.1972285,1.738423,-0.1363957,-0.5175689,1.645211,0.2247519,-0.1290131,1.484742,0.0299372,-0.2130311,1.734837,0.02129833,-0.5081824,1.718419,-0.1253218,-0.05433141,1.726563,-0.05261505,-0.4968138,1.693409,-0.181369,-0.2827141,1.722376,0.253266,-0.2274365,1.676172,NA,NA,NotTracked,Unknown,
-0.2895508,0.6411133,0.7822266,0.972168,-0.2670898,-0.06005859,16,14,11,7,3,0,5,6,0,-2,-1,-1,0,0,-1,0,24.3125,24.3125,24.3125,-22.0625,-22.0625,-22.0625,6.428819,5.376753,4.441108,2.089638,2.926166,4.554423,-0.1829301,-0.5607869,1.670413,0.2855438,-0.1345439,1.507512,0.02566289,0.1967636,1.736973,-0.1360941,-0.5472273,1.646765,0.2322579,-0.1306608,1.488259,0.02919569,-0.2131539,1.734529,0.02111387,-0.5082608,1.718463,-0.1262491,-0.05458718,1.726909,-0.05297363,-0.4970493,1.693093,-0.1815322,-0.2819545,1.722401,0.2542714,-0.227493,1.685213,NA,NA,NotTracked,Unknown,
-0.2680664,0.6982422,0.6669922,0.9575195,-0.2446289,-0.07226563,-33,-20,-7,2,0,3,2,-9,-3,1,-1,0,-2,-1,-1,-3,-5.625,-5.625,-5.625,-34.75,-34.75,-34.75,6.396275,5.364376,4.39063,2.109432,2.929602,4.458382,-0.1808315,-0.5591487,1.666406,0.2859574,-0.1370105,1.506982,0.02536988,0.1965152,1.736022,-0.1370741,-0.5445154,1.649483,0.2328709,-0.1308242,1.489126,0.02863156,-0.2132741,1.734294,0.02105157,-0.5083756,1.718504,-0.1240316,-0.05339647,1.724004,-0.05311889,-0.4972996,1.692697,-0.1813917,-0.2808267,1.722018,0.2548892,-0.2295659,1.687846,NA,NA,NotTracked,Unknown,
-0.2529297,0.7319336,0.6420898,0.9672852,-0.2460938,-0.07958984,17,10,4,5,-1,-5,-1,3,0,0,-2,0,-1,-2,-1,-1,-7.4375,-7.4375,-7.4375,-22.5,-22.5,-22.5,6.379726,5.352572,4.390524,2.13362,2.938275,4.385218,-0.1796335,-0.5572214,1.661869,0.2830952,-0.1410737,1.505045,0.02490523,0.1960857,1.735024,-0.1368511,-0.5432851,1.647824,0.2328248,-0.140707,1.482526,0.02859019,-0.2133045,1.73394,0.02118538,-0.5084373,1.718231,-0.1216535,-0.05204936,1.721245,-0.05304703,-0.4973502,1.69185,-0.1810138,-0.2828432,1.72096,0.2545328,-0.2314788,1.689299,NA,NA,NotTracked,Unknown,
-0.2368164,0.7670898,0.6435547,0.9584961,-0.2392578,-0.078125,4,-5,-5,-9,-1,1,-6,-3,-2,0,-1,-2,-1,-2,-1,0,-6.0625,-6.0625,-6.0625,-4.875,-4.875,-4.875,6.372497,5.334567,4.40823,2.124638,2.940292,4.374867,-0.177901,-0.5585163,1.659967,0.2800841,-0.1459588,1.502283,0.02488923,0.1960357,1.734739,-0.1330513,-0.5300439,1.643302,0.2325547,-0.143671,1.480865,0.02847219,-0.2133073,1.733721,0.02132339,-0.5084741,1.718038,-0.1214529,-0.05225329,1.720637,-0.05291793,-0.4974079,1.691239,-0.1807844,-0.2824349,1.720503,0.2539492,-0.2323759,1.689803,NA,NA,NotTracked,Unknown,
-0.2348633,0.7651367,0.6289063,0.9589844,-0.2573242,-0.07373047,6,10,10,9,3,-2,-5,1,1,-1,0,0,-1,0,0,-1,-5.0625,-5.0625,-5.0625,11.6875,11.6875,11.6875,6.366678,5.316932,4.424756,2.096999,2.938731,4.41361,-0.1772896,-0.5600066,1.660662,0.2784591,-0.1490565,1.501045,0.0250343,0.1958758,1.734141,-0.1321197,-0.5242606,1.642091,0.2288402,-0.1476424,1.481086,0.02832831,-0.2134549,1.733194,0.02123842,-0.5086113,1.717555,-0.1201842,-0.05130003,1.719263,-0.05316275,-0.4974792,1.690243,-0.180641,-0.2824926,1.720086,0.2535269,-0.2334497,1.689549,NA,NA,NotTracked,Unknown,
-0.2006836,0.7416992,0.6474609,0.9550781,-0.2563477,-0.06347656,-5,-3,-1,3,1,4,4,-2,-2,-1,-1,-1,-1,-1,-1,-1,1.6875,1.6875,1.6875,16.125,16.125,16.125,6.367953,5.307955,4.426954,2.055161,2.935771,4.495755,-0.1796533,-0.5604742,1.664047,0.277283,-0.1549162,1.497391,0.02535055,0.1958382,1.733716,-0.1316366,-0.5208628,1.641579,0.2283699,-0.148298,1.48082,0.02824497,-0.2135077,1.733036,0.02122538,-0.508637,1.717505,-0.1194273,-0.05101331,1.718507,-0.05321525,-0.4975067,1.690049,-0.1805136,-0.2824881,1.719724,0.2531513,-0.2339325,1.689006,NA,NA,NotTracked,Unknown,
-0.2192383,0.6206055,0.5698242,0.9560547,-0.2646484,-0.05859375,-6,-8,-5,0,-1,-1,-3,-2,-1,-1,-2,-2,-1,-1,-2,-1,5.25,5.25,5.25,5.375,5.375,5.375,6.377343,5.247379,4.46006,2.049339,2.930537,4.518261,-0.1801741,-0.5614586,1.66574,0.2768365,-0.1685763,1.490695,0.02594887,0.195668,1.73301,-0.1329685,-0.5325481,1.642903,0.2274128,-0.1671034,1.471,0.02827902,-0.2135291,1.732858,0.02124125,-0.5086823,1.717416,-0.1198063,-0.05172112,1.718737,-0.05322766,-0.497548,1.689825,-0.1803266,-0.2833181,1.719384,0.2519472,-0.2347236,1.689827,NA,NA,NotTracked,Unknown,
-0.1508789,0.5795898,0.5761719,0.9589844,-0.262207,-0.06933594,11,3,-2,0,-1,-1,0,0,0,1,-2,-1,-1,-1,-3,-1,16.4375,16.4375,16.4375,-8.8125,-8.8125,-8.8125,6.391686,5.174438,4.492949,2.068032,2.927412,4.492439,-0.1796719,-0.560915,1.665828,0.2790636,-0.1987348,1.472053,0.02646433,0.1955963,1.73265,-0.132782,-0.5279754,1.642152,0.2346951,-0.2010631,1.447133,0.02820094,-0.2135391,1.732759,0.02122204,-0.5086241,1.717324,-0.1191074,-0.05118774,1.718204,-0.05327461,-0.4974722,1.689669,-0.1801765,-0.2823229,1.719033,0.2455844,-0.2773181,1.679371,NA,NA,NotTracked,Unknown,
0.008300781,0.6064453,0.5473633,0.9663086,-0.2592773,-0.07373047,-6,-4,-3,-5,-3,-5,-5,-4,-2,-3,0,-1,-2,-2,-1,0,29.875,29.875,29.875,-14.875,-14.875,-14.875,6.445144,4.909819,4.579696,2.084793,2.926558,4.442719,-0.1789001,-0.5607692,1.663725,0.2866845,-0.2495877,1.454748,0.02674364,0.1955724,1.732448,-0.1327617,-0.5303644,1.642185,0.2481515,-0.2483503,1.42973,0.02887099,-0.2139155,1.732308,0.02124282,-0.50868,1.717267,-0.1200166,-0.05183813,1.718825,-0.05325655,-0.4975356,1.689629,-0.1800529,-0.2821041,1.71868,0.2433662,-0.2698007,1.683102,NA,NA,NotTracked,Closed,
0.2177734,0.6669922,0.5131836,0.9628906,-0.2524414,-0.07666016,1,-4,-1,-4,-1,-1,-5,-2,0,0,0,-2,-1,-1,-1,-1,60.125,60.125,60.125,-4.375,-4.375,-4.375,6.542528,4.55325,4.629875,2.074229,2.932618,4.43843,-0.1786919,-0.5604379,1.662398,0.2911957,-0.3151685,1.454032,0.02698958,0.1956003,1.73244,-0.1325923,-0.5266824,1.642022,0.2581989,-0.3109115,1.426429,0.02890792,-0.2139068,1.732306,0.02147025,-0.5087105,1.717293,-0.1190365,-0.05131276,1.718017,-0.05304031,-0.4975694,1.689678,-0.180182,-0.2834842,1.718344,0.2510047,-0.2654807,1.679775,NA,NA,NotTracked,Unknown,
0.6616211,0.840332,0.4746094,0.9580078,-0.2504883,-0.07861328,1,10,7,6,1,4,0,-4,-2,-1,-1,-2,-2,-2,-2,-3,53.625,53.625,53.625,7.8125,7.8125,7.8125,6.643495,4.231859,4.662086,2.052478,2.939818,4.469731,-0.1792038,-0.5605786,1.660893,0.2865021,-0.3867236,1.461651,0.02734094,0.1957396,1.732551,-0.1330619,-0.5324944,1.642561,0.2508846,-0.4281777,1.4478,0.0289383,-0.2139042,1.732298,0.02171807,-0.5088204,1.717326,-0.1184888,-0.05108009,1.717653,-0.05283372,-0.4976343,1.68975,-0.1800472,-0.2836831,1.718098,0.255664,-0.2567306,1.695355,NA,NA,NotTracked,Unknown,
0.6401367,0.6010742,0.3725586,0.9589844,-0.2573242,-0.07568359,-25,-8,-5,-4,-2,-3,3,-6,-1,-2,-1,0,-2,-2,-1,-2,49.125,49.125,49.125,10.625,10.625,10.625,6.681783,3.906445,4.696802,2.035841,2.942202,4.505368,-0.1792405,-0.5594665,1.662554,0.2806903,-0.4484771,1.489176,0.0278899,0.1957501,1.732861,-0.1328386,-0.5280559,1.642392,0.2456329,-0.5088708,1.526333,0.02903072,-0.2139473,1.732345,0.0219175,-0.5090196,1.717379,-0.118141,-0.05089652,1.717505,-0.05267704,-0.497817,1.689844,-0.1800258,-0.2837123,1.718073,0.2518424,-0.2556286,1.69816,NA,NA,NotTracked,Unknown,
0.8115234,0.6176758,0.168457,0.9619141,-0.2612305,-0.08496094,-11,-1,0,-2,-1,-2,-2,-3,0,-2,-1,-2,0,-1,-1,0,74.8125,74.8125,74.8125,5.4375,5.4375,5.4375,6.920628,3.488029,4.601329,2.007206,2.943852,4.548159,-0.1796312,-0.5603219,1.664859,0.2763014,-0.4948611,1.529742,0.02886956,0.1958133,1.733263,-0.1326278,-0.5268859,1.642044,0.24775,-0.4903169,1.525756,0.02948892,-0.2140122,1.732392,0.02269271,-0.5094579,1.717443,-0.1190456,-0.05207273,1.718926,-0.05188215,-0.4983028,1.68992,-0.1800345,-0.2836492,1.718078,0.2494192,-0.2618058,1.69578,NA,NA,NotTracked,Unknown,
1.084473,0.4580078,0.02685547,0.965332,-0.2636719,-0.08691406,-1,-5,-3,-3,-2,-2,1,1,0,-1,0,-1,0,-2,-1,0,33.6875,33.6875,33.6875,-1.3125,-1.3125,-1.3125,7.206306,3.209602,4.356465,1.968284,2.949431,4.590295,-0.1795249,-0.5601006,1.665205,0.2698667,-0.5350081,1.569961,0.03018088,0.1958146,1.733774,-0.1326876,-0.5293198,1.642358,0.2327861,-0.5322597,1.577929,0.03005991,-0.2141745,1.732341,0.02366799,-0.5100103,1.717438,-0.1182682,-0.05152601,1.718335,-0.05089906,-0.4986167,1.689707,-0.1800122,-0.2840484,1.718168,0.2470997,-0.2722881,1.689903,NA,NA,NotTracked,NotTracked,
1.119629,0.2724609,-0.09326172,0.9360352,-0.2602539,-0.09716797,23,5,-1,-2,-3,-12,-8,5,0,-1,-1,-2,-2,-1,-2,1,57.8125,57.8125,57.8125,-1.375,-1.375,-1.375,7.579251,3.015348,4.040178,1.931782,2.961577,4.624038,-0.180606,-0.5577933,1.664957,0.2624872,-0.5584896,1.606165,0.0318818,0.1960145,1.73444,-0.1316674,-0.522548,1.640155,0.2263647,-0.5548007,1.61144,0.03175228,-0.2150729,1.731946,0.02457473,-0.5108575,1.717488,-0.1176981,-0.05108826,1.717975,-0.05004085,-0.4990673,1.689703,-0.1800247,-0.2841844,1.718242,0.2452446,-0.2808178,1.688073,NA,NA,NotTracked,NotTracked,
0.9667969,0.4707031,-0.09423828,0.9482422,-0.2705078,-0.09423828,-5,-1,1,0,-1,1,-3,-4,-1,-2,-2,-2,-2,0,-1,-1,5.5625,5.5625,5.5625,-0.75,-0.75,-0.75,8.052643,2.916102,3.63928,1.919717,2.963559,4.635372,-0.180034,-0.5578946,1.664719,0.2556298,-0.5698516,1.631655,0.03277409,0.1963023,1.734995,-0.1324296,-0.5313708,1.642024,0.2124367,-0.5706385,1.601167,0.03299821,-0.215735,1.731499,0.02551781,-0.5115587,1.717404,-0.1171518,-0.05070814,1.717643,-0.04898849,-0.4994768,1.689441,-0.180054,-0.2844079,1.718264,0.243697,-0.2867596,1.68859,NA,NA,NotTracked,NotTracked,
1.00293,0.1777344,-0.1210938,0.9521484,-0.2529297,-0.1010742,-3,-2,1,-1,-2,-2,0,-1,-2,-1,-1,-1,1,-1,-2,-1,-8.25,-8.25,-8.25,-3,-3,-3,8.263546,2.88169,3.385229,1.90703,2.959897,4.646007,-0.1806397,-0.557207,1.665928,0.2516887,-0.5718699,1.647891,0.0334884,0.196485,1.735197,-0.1318466,-0.5388327,1.641286,0.2051264,-0.5717,1.6275,0.03335966,-0.2157083,1.731647,0.02621541,-0.512028,1.717467,-0.1165253,-0.05031095,1.717321,-0.04827535,-0.4997296,1.689418,-0.1802049,-0.2848087,1.718202,0.2432077,-0.2901074,1.690319,NA,NA,NotTracked,NotTracked,
0.9716797,0.1508789,-0.08251953,0.949707,-0.2666016,-0.08935547,-11,-3,-2,1,-1,-7,0,-1,-2,-2,-3,-3,0,0,0,-2,72.75,72.75,72.75,-5.75,-5.75,-5.75,8.414441,2.882294,3.317476,1.901173,2.953049,4.642341,-0.1808172,-0.5582781,1.668151,0.2532516,-0.5739505,1.652693,0.03545537,0.1966969,1.735712,-0.1318975,-0.5470896,1.643,0.207001,-0.5646923,1.639148,0.03487009,-0.2162006,1.731223,0.0271077,-0.5122284,1.717477,-0.1160671,-0.04986012,1.716985,-0.04726699,-0.4998702,1.689302,-0.1802744,-0.2854953,1.718309,0.2438434,-0.2917656,1.692565,NA,NA,NotTracked,NotTracked,
0.9448242,0.2626953,-0.1069336,0.9599609,-0.2573242,-0.08935547,-2,1,0,-1,-1,2,-2,0,-2,0,0,-1,-1,-1,-1,-1,77.6875,77.6875,77.6875,-11.6875,-11.6875,-11.6875,8.518843,2.910362,3.410851,1.924721,2.945808,4.600682,-0.1807709,-0.5580692,1.66604,0.2548552,-0.5719942,1.64815,0.03613513,0.1967342,1.735813,-0.131845,-0.5236469,1.640333,0.2069097,-0.5586959,1.63073,0.03537667,-0.2164243,1.730988,0.02760781,-0.5124035,1.717424,-0.1158338,-0.04973235,1.716758,-0.04663349,-0.499972,1.689002,-0.180199,-0.2871194,1.717904,0.2442657,-0.2921788,1.693725,NA,NA,NotTracked,NotTracked,
0.9575195,0.2084961,-0.1210938,0.9648438,-0.2524414,-0.1000977,0,-2,-1,-4,-3,2,3,-1,-1,-2,1,-2,-1,0,-2,0,25.4375,25.4375,25.4375,-9.125,-9.125,-9.125,8.494736,2.924283,3.506521,1.96377,2.941301,4.535415,-0.1795636,-0.5580593,1.66401,0.2543482,-0.5711096,1.644447,0.03651046,0.1966898,1.736025,-0.1320609,-0.5330651,1.641825,0.2073404,-0.5549702,1.636142,0.03570431,-0.2165495,1.731005,0.02777751,-0.5124956,1.71753,-0.1155975,-0.04962924,1.716569,-0.04649987,-0.4999909,1.689003,-0.1800721,-0.2871356,1.717544,0.244564,-0.2921045,1.694126,NA,NA,NotTracked,NotTracked,
0.9448242,0.1655273,-0.1386719,0.9584961,-0.2412109,-0.1054688,-3,-2,-2,1,-1,-1,-1,-1,-1,-1,-4,-1,0,0,1,-1,3.6875,3.6875,3.6875,-3.5625,-3.5625,-3.5625,8.450968,2.924608,3.567345,1.96478,2.942609,4.524058,-0.1787363,-0.5562134,1.662347,0.2535343,-0.5706921,1.63922,0.03678514,0.1966205,1.736209,-0.1317369,-0.5160844,1.6407,0.2078609,-0.5512454,1.644145,0.03572707,-0.2164503,1.731078,0.02806515,-0.5125929,1.71747,-0.1154626,-0.04960437,1.716444,-0.04613753,-0.5000619,1.688793,-0.1797305,-0.2869936,1.717043,0.2446477,-0.2920677,1.694121,NA,NA,NotTracked,NotTracked,
0.9389648,0.1547852,-0.1533203,0.949707,-0.253418,-0.1015625,9,2,-2,0,-2,-7,-3,1,-2,-3,-1,-1,0,0,-1,0,7.8125,7.8125,7.8125,2.625,2.625,2.625,8.407324,2.913665,3.62146,1.951242,2.943344,4.538604,-0.1781598,-0.556559,1.662838,0.2492244,-0.5705028,1.637603,0.03688449,0.1966016,1.736373,-0.1322251,-0.5254289,1.642107,0.2083475,-0.5474321,1.646682,0.0359783,-0.2165654,1.731087,0.02824558,-0.5126846,1.717501,-0.1165028,-0.05082378,1.717875,-0.0459153,-0.5001512,1.688741,-0.1795226,-0.2872054,1.7168,0.2446235,-0.2920083,1.694091,NA,NA,NotTracked,NotTracked,
0.9370117,0.168457,-0.1655273,0.9584961,-0.2548828,-0.09277344,-3,-1,0,0,-1,-2,0,-2,1,0,-1,-2,-2,-3,0,-1,15.6875,15.6875,15.6875,8.25,8.25,8.25,8.402721,2.903569,3.650507,1.940657,2.944435,4.561283,-0.1789269,-0.5576886,1.663837,0.2461451,-0.5680628,1.635525,0.03705664,0.1966787,1.736534,-0.1316659,-0.5213145,1.641678,0.2066643,-0.5397693,1.64383,0.03651364,-0.2168939,1.73087,0.02845118,-0.51284,1.717405,-0.1159429,-0.05037216,1.717397,-0.04567698,-0.5002822,1.68852,-0.1794926,-0.287394,1.716568,0.2444401,-0.2917134,1.693757,NA,NA,NotTracked,NotTracked,
0.9462891,0.1972656,-0.1694336,0.9545898,-0.2612305,-0.09472656,2,0,-1,0,-1,-2,-1,0,-1,-1,-1,-2,-1,1,-2,-1,4.875,4.875,4.875,6.875,6.875,6.875,8.414791,2.898908,3.666157,1.939152,2.945648,4.58305,-0.1796265,-0.5576184,1.664716,0.2436107,-0.5678465,1.635638,0.03705212,0.1966841,1.736612,-0.1318591,-0.5343991,1.64255,0.2065376,-0.5523667,1.64447,0.03673633,-0.216902,1.730845,0.02872078,-0.5128632,1.717393,-0.1156801,-0.05011765,1.717253,-0.04533501,-0.5002161,1.688362,-0.1794168,-0.2871746,1.716626,0.2441825,-0.2913479,1.693355,NA,NA,NotTracked,NotTracked,
0.9433594,0.1884766,-0.1577148,0.9487305,-0.2597656,-0.08935547,12,2,1,-2,-2,-4,-1,3,0,-2,-1,1,-1,-1,0,-1,-9.5,-9.5,-9.5,1.0625,1.0625,1.0625,8.405101,2.900268,3.666917,1.94324,2.946346,4.58356,-0.1792867,-0.5571042,1.663792,0.2429789,-0.566635,1.633746,0.03734912,0.1966581,1.736773,-0.131907,-0.5253922,1.641034,0.2038405,-0.5503573,1.638485,0.03684686,-0.2169726,1.730729,0.02890403,-0.5129534,1.717227,-0.1154268,-0.0499911,1.716971,-0.04511815,-0.5002916,1.688077,-0.1792646,-0.2871314,1.716476,0.2437837,-0.2909499,1.692998,NA,NA,NotTracked,NotTracked,
0.9433594,0.1806641,-0.1220703,0.9536133,-0.2636719,-0.08007813,4,-1,-1,-2,-1,4,0,-1,-2,-1,-3,-2,-1,-1,-2,0,-8.4375,-8.4375,-8.4375,-2.0625,-2.0625,-2.0625,8.393858,2.903235,3.662115,1.956598,2.946695,4.567632,-0.1792504,-0.5575539,1.663751,0.2435533,-0.5671314,1.634478,0.03732979,0.1966682,1.736944,-0.1368951,-0.5464419,1.651461,0.2054066,-0.5516478,1.641441,0.03693707,-0.2171012,1.73074,0.02908191,-0.5130978,1.717221,-0.1153294,-0.04990805,1.716915,-0.0449421,-0.500419,1.688022,-0.1793272,-0.2873311,1.716479,0.2436044,-0.2907885,1.692855,NA,NA,NotTracked,NotTracked,
0.9418945,0.1865234,-0.121582,0.9560547,-0.2583008,-0.08447266,-4,-2,-2,0,2,14,1,-1,-1,-1,-1,-2,-2,-1,-1,-3,-1.9375,-1.9375,-1.9375,-2.0625,-2.0625,-2.0625,8.390909,2.907234,3.658515,1.984671,2.944163,4.53383,-0.1793008,-0.5580291,1.664213,0.2445429,-0.5666292,1.634331,0.03717873,0.1965381,1.737235,-0.1321651,-0.5392314,1.642115,0.205035,-0.545373,1.641772,0.03710344,-0.2172088,1.730683,0.02914272,-0.5131174,1.717213,-0.1152346,-0.04984095,1.716865,-0.04489104,-0.5004197,1.687987,-0.1793938,-0.287476,1.716483,0.243508,-0.2907695,1.692839,NA,NA,NotTracked,NotTracked,
0.9379883,0.1835938,-0.1347656,0.9648438,-0.2587891,-0.08886719,0,0,-2,0,-1,-1,0,-2,0,-1,-1,-1,-1,-1,-1,-1,-0.375,-0.375,-0.375,0.1875,0.1875,0.1875,8.393139,2.909709,3.655659,1.99959,2.942499,4.517306,-0.1789099,-0.5579599,1.664491,0.2448588,-0.5663369,1.63382,0.03704944,0.1965037,1.737492,-0.1312019,-0.5700045,1.645445,0.2059208,-0.5511825,1.643591,0.03720443,-0.2173179,1.730635,0.02912988,-0.51316,1.717212,-0.115162,-0.04979507,1.716813,-0.04490979,-0.5004401,1.687979,-0.1794755,-0.2873408,1.716557,0.2432889,-0.2907534,1.692858,NA,NA,NotTracked,NotTracked,
0.9453125,0.1992188,-0.1386719,0.9575195,-0.2568359,-0.08154297,-1,-1,-1,1,-2,-1,0,-2,-2,-1,2,-1,0,-1,0,0,-0.875,-0.875,-0.875,1,1,1,8.389313,2.91056,3.659396,2.002557,2.941818,4.514852,-0.1789944,-0.5580973,1.664462,0.2435902,-0.566272,1.633682,0.03656941,0.1965299,1.737818,-0.1317083,-0.5458262,1.642579,0.2049733,-0.5498805,1.641539,0.03704894,-0.2171361,1.730894,0.02905544,-0.5132037,1.717238,-0.1151251,-0.04975763,1.716781,-0.04499802,-0.5004628,1.688017,-0.1795209,-0.2873487,1.716584,0.242939,-0.2906794,1.692941,NA,NA,NotTracked,NotTracked,
0.9394531,0.2041016,-0.1279297,0.9575195,-0.262207,-0.07763672,-3,-2,-1,-2,1,0,-2,-1,-2,0,-1,-2,-3,-2,-1,-3,1.25,1.25,1.25,2.8125,2.8125,2.8125,8.378508,2.910499,3.66864,2.010784,2.941705,4.511391,-0.1791067,-0.5582464,1.664624,0.2430066,-0.5661957,1.633191,0.03615758,0.1966273,1.738073,-0.131694,-0.539107,1.642269,0.2002254,-0.5443057,1.635103,0.03681017,-0.2169815,1.731093,0.02906677,-0.5131856,1.717198,-0.1151165,-0.04970981,1.716788,-0.04500227,-0.5004155,1.687963,-0.1795694,-0.2871796,1.716739,0.2426393,-0.2905487,1.692961,NA,NA,NotTracked,NotTracked,
0.9438477,0.206543,-0.1435547,0.9555664,-0.2573242,-0.08007813,1,1,0,1,0,-2,-1,0,-2,-3,-1,-2,0,-1,-1,-1,0.5,0.5,0.5,3.5,3.5,3.5,8.381747,2.911949,3.667274,2.02002,2.942265,4.507886,-0.1790007,-0.5575023,1.664216,0.2431349,-0.565587,1.633616,0.03531726,0.1964613,1.738769,-0.1343869,-0.5462048,1.64677,0.2002534,-0.5690902,1.634931,0.0368413,-0.217117,1.731081,0.02898936,-0.5132238,1.717209,-0.1151274,-0.04970531,1.7168,-0.04509228,-0.5004246,1.687962,-0.1796345,-0.2872794,1.716946,0.2423905,-0.2905913,1.693021,NA,NA,NotTracked,NotTracked,
0.9394531,0.2001953,-0.1274414,0.9589844,-0.265625,-0.078125,1,-1,-3,-1,2,4,2,0,-1,-2,0,-2,-2,0,0,0,2.0625,2.0625,2.0625,3,3,3,8.383137,2.913207,3.668776,2.026354,2.942303,4.506682,-0.1792726,-0.5590111,1.66458,0.2433049,-0.5655446,1.632823,0.03410561,0.1963028,1.739297,-0.1321208,-0.5451472,1.642788,0.2041537,-0.545887,1.641797,0.03654783,-0.2170847,1.73129,0.02903453,-0.513221,1.717184,-0.1151445,-0.04956631,1.716873,-0.04505193,-0.500451,1.687958,-0.1796728,-0.2870655,1.717194,0.2422126,-0.2905967,1.693029,NA,NA,NotTracked,NotTracked,
0.9399414,0.2055664,-0.1235352,0.9594727,-0.2587891,-0.07861328,-3,-2,-1,0,-1,-2,-1,-4,-1,-1,-2,-1,-1,-1,0,-1,6.75,6.75,6.75,1.125,1.125,1.125,8.38906,2.91356,3.675039,2.03116,2.942976,4.507751,-0.1791853,-0.5580827,1.664724,0.2432813,-0.5650399,1.632358,0.03298508,0.1961982,1.740059,-0.1318356,-0.5417129,1.642463,0.204052,-0.5784511,1.585,0.03655398,-0.2171139,1.731293,0.02897162,-0.5131655,1.717267,-0.1152176,-0.04959576,1.716911,-0.0451338,-0.5004224,1.688098,-0.1798024,-0.2867605,1.717548,0.2420722,-0.2905881,1.693041,NA,NA,NotTracked,NotTracked,
0.9316406,0.1972656,-0.1342773,0.9594727,-0.2680664,-0.07910156,6,2,0,0,0,-4,-1,2,0,0,-2,3,-1,-2,0,-1,2.5,2.5,2.5,-0.1875,-0.1875,-0.1875,8.387056,2.914368,3.684431,2.033767,2.942672,4.504813,-0.1793925,-0.5585709,1.663888,0.2422667,-0.5648102,1.631381,0.03246344,0.1963207,1.740412,-0.1323676,-0.5612531,1.644389,0.2008415,-0.5563354,1.634927,0.03621408,-0.2169459,1.731568,0.02892083,-0.5131652,1.717254,-0.115228,-0.04957938,1.716928,-0.04519388,-0.5004216,1.688133,-0.1798743,-0.2866188,1.71769,0.2418427,-0.2904093,1.692936,NA,NA,NotTracked,NotTracked,
0.9492188,0.2050781,-0.1367188,0.956543,-0.2607422,-0.07421875,-2,-2,-1,-1,1,2,1,-1,-1,-1,-1,-2,1,-1,-2,-1,3.8125,3.8125,3.8125,-0.75,-0.75,-0.75,8.386231,2.913214,3.691244,2.03979,2.941986,4.497462,-0.1792387,-0.5583124,1.664193,0.2421909,-0.5641286,1.630527,0.03171785,0.1962989,1.740789,-0.1318284,-0.5389453,1.642458,0.2028099,-0.5552038,1.638293,0.03590502,-0.216889,1.731695,0.02891375,-0.5131709,1.71722,-0.1192956,-0.05247222,1.721017,-0.04519765,-0.500462,1.688158,-0.1798946,-0.2866325,1.717788,0.2416951,-0.2904126,1.692805,NA,NA,NotTracked,NotTracked,
0.9375,0.2016602,-0.1357422,0.9589844,-0.2539063,-0.08203125,0,0,-1,0,-3,-6,-3,-2,-2,-2,0,-1,-2,0,1,-1,-2.5625,-2.5625,-2.5625,-1.8125,-1.8125,-1.8125,8.371264,2.913029,3.704796,2.035857,2.941647,4.499361,-0.1788596,-0.5582243,1.664452,0.24108,-0.5629302,1.630188,0.03142338,0.1964119,1.741008,-0.131865,-0.5351082,1.641728,0.2074563,-0.54705,1.647939,0.03515453,-0.2165075,1.732304,0.02887325,-0.5131269,1.7172,-0.1185377,-0.05161705,1.72028,-0.0452309,-0.500438,1.688167,-0.1799258,-0.2862406,1.71792,0.2415436,-0.2903964,1.692753,NA,NA,NotTracked,NotTracked,
0.9350586,0.1987305,-0.1430664,0.953125,-0.2666016,-0.07128906,0,-1,-1,-2,-2,0,-2,-4,-1,-2,0,-1,0,0,0,-2,-2.3125,-2.3125,-2.3125,-1.625,-1.625,-1.625,8.364083,2.912513,3.708445,2.031203,2.942905,4.501468,-0.1795581,-0.5587572,1.664549,0.2413529,-0.5630405,1.630485,0.03116778,0.1964605,1.741183,-0.1319808,-0.549831,1.643318,0.1959585,-0.5336872,1.630572,0.03531795,-0.2166218,1.732171,0.02878121,-0.5131218,1.717199,-0.1193656,-0.05179935,1.72139,-0.04533488,-0.5004755,1.688258,-0.1799449,-0.2862368,1.71793,0.2414643,-0.2905065,1.692602,NA,NA,NotTracked,NotTracked,
0.9423828,0.2001953,-0.128418,0.9575195,-0.2612305,-0.07421875,-1,0,2,0,1,-5,-6,-2,-2,0,-2,-2,-1,-1,-2,0,0.9375,0.9375,0.9375,0,0,0,8.363596,2.912035,3.708534,2.032603,2.942907,4.500065,-0.179303,-0.5586997,1.66466,0.241147,-0.5620941,1.63023,0.03099822,0.1964792,1.741256,-0.1321269,-0.547603,1.64427,0.2009566,-0.5390002,1.636873,0.03508316,-0.2164983,1.732289,0.02879192,-0.5130879,1.71719,-0.1194204,-0.05180075,1.721263,-0.04532589,-0.5004472,1.688249,-0.1800866,-0.2861175,1.717981,0.2414352,-0.2905228,1.692492,NA,NA,NotTracked,NotTracked,
0.9355469,0.2080078,-0.1264648,0.9570313,-0.2597656,-0.08300781,-1,-1,-1,-1,-1,1,3,-1,0,-1,-2,-2,-2,-2,-1,-3,0.25,0.25,0.25,0.25,0.25,0.25,8.366138,2.911424,3.706637,2.032603,2.942907,4.500065,-0.1792091,-0.5579098,1.664702,0.2416557,-0.5625591,1.630583,0.03089821,0.1964726,1.741387,-0.1318994,-0.5395375,1.642274,0.1984135,-0.546533,1.632857,0.0346447,-0.2163252,1.732568,0.02873791,-0.5130596,1.717204,-0.1187372,-0.05126283,1.720496,-0.04539124,-0.5004184,1.688309,-0.1800855,-0.2862134,1.718064,0.2413385,-0.2907601,1.692429,NA,NA,NotTracked,NotTracked,
0.940918,0.2070313,-0.1313477,0.9541016,-0.2573242,-0.08300781,1,1,0,0,0,4,0,1,0,-2,-2,-2,-2,-2,0,-1,-0.5,-0.5,-0.5,-0.375,-0.375,-0.375,8.365691,2.911678,3.706923,2.032551,2.942419,4.499558,-0.1789027,-0.5581427,1.66423,0.241112,-0.5627168,1.630632,0.03084634,0.19645,1.741475,-0.1318518,-0.5379572,1.641771,0.2084884,-0.549569,1.648637,0.03474516,-0.2163859,1.73251,0.0287868,-0.5130072,1.717194,-0.1180986,-0.05067221,1.719843,-0.04534042,-0.5003849,1.688351,-0.1801021,-0.2858858,1.718153,0.2412962,-0.290798,1.692385,NA,NA,NotTracked,NotTracked,
0.9379883,0.2070313,-0.1274414,0.9594727,-0.2553711,-0.078125,0,-3,-2,-1,-3,1,1,-1,0,-1,0,-1,0,-1,-1,-1,-2.1875,-2.1875,-2.1875,-1.1875,-1.1875,-1.1875,8.357475,2.911367,3.711972,2.033161,2.941519,4.497866,-0.1791943,-0.5586157,1.664262,0.2413666,-0.5628141,1.630738,0.03078104,0.1964086,1.741502,-0.1320957,-0.5406297,1.642992,0.1956968,-0.5390714,1.628476,0.0345745,-0.2163332,1.732766,0.02885845,-0.5130228,1.717219,-0.1176572,-0.05041844,1.719389,-0.04526497,-0.5003934,1.68845,-0.1803026,-0.2862597,1.718062,0.2412751,-0.2908329,1.692344,NA,NA,NotTracked,NotTracked,
0.9414063,0.2084961,-0.1240234,0.9555664,-0.2558594,-0.07470703,0,-1,-1,1,0,-1,2,-2,-2,-1,1,-1,0,-1,0,-3,0.4375,0.4375,0.4375,-1.75,-1.75,-1.75,8.35532,2.910461,3.713537,2.03295,2.940727,4.495273,-0.1784783,-0.5581905,1.664258,0.2410542,-0.5626725,1.630192,0.03071229,0.196441,1.741424,-0.1320018,-0.5405526,1.642875,0.2106095,-0.552214,1.65225,0.0343523,-0.2162689,1.732867,0.02884523,-0.5129958,1.717206,-0.1174035,-0.05025775,1.71907,-0.04527513,-0.500376,1.688459,-0.1801974,-0.2864186,1.717983,0.2412481,-0.290863,1.69231,NA,NA,NotTracked,NotTracked,
0.9477539,0.203125,-0.1235352,0.9580078,-0.2568359,-0.07714844,-1,-2,-2,-1,1,1,-1,1,-1,0,0,1,-2,0,-1,0,0.75,0.75,0.75,1.375,1.375,1.375,8.35267,2.908175,3.717869,2.032306,2.940131,4.496278,-0.1790013,-0.5588943,1.663828,0.2409023,-0.562552,1.629453,0.03061148,0.196383,1.741435,-0.1316289,-0.5387694,1.642344,0.1954999,-0.5312282,1.628464,0.03452501,-0.2163401,1.73272,0.0288158,-0.5129914,1.717202,-0.1172061,-0.05009256,1.718815,-0.04530478,-0.5003811,1.688476,-0.1802096,-0.2868794,1.717931,0.2412015,-0.2909105,1.692292,NA,NA,NotTracked,NotTracked,
0.9404297,0.2045898,-0.1313477,0.9584961,-0.2568359,-0.07519531,-1,-2,0,-1,-2,3,1,0,-3,-1,-2,0,-2,-2,0,-1,0.5,0.5,0.5,2.9375,2.9375,2.9375,8.351762,2.907547,3.719055,2.031994,2.94028,4.501504,-0.1791199,-0.5585569,1.665213,0.2405766,-0.5629702,1.630727,0.03061347,0.1963014,1.741432,-0.1320326,-0.5212538,1.641,0.198161,-0.5392415,1.633112,0.03454668,-0.2165029,1.732674,0.0287443,-0.5130422,1.717211,-0.1170521,-0.05007116,1.718632,-0.04537913,-0.5004078,1.688504,-0.180169,-0.286702,1.717912,0.2411314,-0.2909262,1.692289,NA,NA,NotTracked,NotTracked,
0.9467773,0.2016602,-0.1279297,0.9580078,-0.2592773,-0.07421875,-1,-1,0,0,1,-2,-2,0,-1,-2,-1,-4,0,-2,-1,-2,1.0625,1.0625,1.0625,0.5625,0.5625,0.5625,8.350426,2.905418,3.721599,2.033208,2.940241,4.504151,-0.1797789,-0.5592331,1.665816,0.2403843,-0.5635941,1.630566,0.03058503,0.1962687,1.741441,-0.1320046,-0.5204098,1.64225,0.2002811,-0.5414361,1.636504,0.0344152,-0.2164325,1.732935,0.02876329,-0.5131298,1.717279,-0.1187513,-0.05149397,1.721122,-0.04533051,-0.5005364,1.688643,-0.1801769,-0.2866243,1.718042,0.2410257,-0.2907959,1.692359,NA,NA,NotTracked,NotTracked,
0.9462891,0.2021484,-0.1225586,0.9550781,-0.2636719,-0.07470703,0,1,1,0,-3,0,-1,0,-2,-1,-1,-2,-2,0,-3,0,0.0625,0.0625,0.0625,-1.5,-1.5,-1.5,8.343898,2.905175,3.729328,2.035291,2.940021,4.500601,-0.1795701,-0.5589207,1.665781,0.2400619,-0.562889,1.629741,0.03060753,0.1962136,1.741478,-0.1318973,-0.5397993,1.643896,0.1959897,-0.5581012,1.628864,0.03445981,-0.2165586,1.732859,0.02875063,-0.5131374,1.717274,-0.1181854,-0.05098347,1.720523,-0.04535411,-0.5005354,1.68864,-0.1801598,-0.2867643,1.71815,0.240931,-0.2907507,1.692344,NA,NA,NotTracked,NotTracked,
0.9394531,0.2070313,-0.128418,0.9541016,-0.262207,-0.07958984,-2,-2,0,-1,0,-2,1,-1,-1,-2,-2,-1,0,-2,0,-1,1.1875,1.1875,1.1875,-0.1875,-0.1875,-0.1875,8.34325,2.906396,3.731304,2.037454,2.939436,4.497995,-0.1789825,-0.5588561,1.665012,0.2403693,-0.562457,1.629702,0.03058847,0.1961739,1.741464,-0.1319421,-0.5323088,1.642253,0.1961472,-0.5405421,1.630064,0.03438091,-0.2165236,1.732975,0.02876647,-0.5131929,1.71726,-0.1198181,-0.05242439,1.722584,-0.04532545,-0.5006225,1.688646,-0.1800315,-0.2870588,1.718219,0.2408687,-0.2906799,1.692319,NA,NA,NotTracked,NotTracked,
0.9472656,0.2070313,-0.1362305,0.9584961,-0.2583008,-0.07763672,0,0,-2,-1,0,0,0,-3,0,0,-2,-1,-2,-2,-1,-1,-0.125,-0.125,-0.125,0.875,0.875,0.875,8.347976,2.907982,3.728125,2.047765,2.938545,4.488863,-0.1799208,-0.5590176,1.665618,0.2402093,-0.5628768,1.629233,0.0305614,0.1961688,1.741366,-0.1318647,-0.5436931,1.642666,0.2008842,-0.5442881,1.636418,0.03451373,-0.2167218,1.732839,0.02870691,-0.5132765,1.717251,-0.1189906,-0.0519427,1.721396,-0.04538764,-0.5006737,1.688634,-0.1800647,-0.2868639,1.718264,0.2407859,-0.2905622,1.692315,NA,NA,NotTracked,NotTracked,
0.9326172,0.2104492,-0.1191406,0.9604492,-0.253418,-0.07177734,-1,-1,0,-1,-1,2,1,0,-3,1,-2,-2,0,-1,-1,0,1.6875,1.6875,1.6875,0.9375,0.9375,0.9375,8.347983,2.907853,3.728963,2.055,2.939178,4.483764,-0.179275,-0.5587384,1.664608,0.2400633,-0.5609997,1.630175,0.03054015,0.1960773,1.741353,-0.1321341,-0.5374621,1.640239,0.1972953,-0.5437953,1.631054,0.03480421,-0.2170123,1.732576,0.02867247,-0.5133011,1.717244,-0.118338,-0.05133551,1.720646,-0.04545111,-0.5007116,1.688634,-0.1800951,-0.2869779,1.718323,0.2407192,-0.2904764,1.69238,NA,NA,NotTracked,NotTracked,
0.940918,0.2133789,-0.1245117,0.9584961,-0.2607422,-0.07421875,1,-1,0,-1,-2,-1,0,0,-1,-1,-2,0,-2,0,-1,-1,0.125,0.125,0.125,1,1,1,8.346984,2.907458,3.73081,2.052092,2.939166,4.486977,-0.1783143,-0.5589989,1.664755,0.2401444,-0.5614235,1.631025,0.03048358,0.1959839,1.741372,-0.1319796,-0.5459018,1.642178,0.1972584,-0.5449661,1.631209,0.03460103,-0.2170171,1.73281,0.02867464,-0.513351,1.717276,-0.117859,-0.05088565,1.720186,-0.04545574,-0.5007516,1.688672,-0.180203,-0.2868755,1.718424,0.240651,-0.2904692,1.692454,NA,NA,NotTracked,NotTracked,
0.9399414,0.215332,-0.1264648,0.9550781,-0.2685547,-0.06982422,1,-2,1,1,0,1,1,2,-1,-1,-2,-3,0,-1,-2,0,-1.1875,-1.1875,-1.1875,4.6875,4.6875,4.6875,8.346695,2.906917,3.730361,2.061692,2.939371,4.48454,-0.1794115,-0.5598068,1.666696,0.2402681,-0.5617505,1.631434,0.03043319,0.1959574,1.741351,-0.1317785,-0.5317099,1.642286,0.197508,-0.5428244,1.632093,0.03479883,-0.2171415,1.732763,0.02871353,-0.5134062,1.71733,-0.1176938,-0.05078083,1.719933,-0.04541953,-0.5008222,1.688724,-0.1803784,-0.2867442,1.718627,0.2405527,-0.2902803,1.692607,NA,NA,NotTracked,NotTracked,
