ALX,ALY,ALZ,ARX,ARY,ARZ,EMG0L,EMG1L,EMG2L,EMG3L,EMG4L,EMG5L,EMG6L,EMG7L,EMG0R,EMG1R,EMG2R,EMG3R,EMG4R,EMG5R,EMG6R,EMG7R,GLX,GLY,GLZ,GRX,GRY,GRZ,ORL,OPL,OYL,ORR,OPR,OYR,LHNX,LHNY,LHNZ,RHNX,RHNY,RHNZ,HX,HY,HZ,LTX,LTY,LTZ,RTX,RTY,RTZ,SpineMidX,SpineMidY,SpineMidZ,SpineBaseX,SpineBaseY,SpineBaseZ,ShoulderLeftX,ShoulderLeftY,ShoulderLeftZ,ShoulderRightX,ShoulderRightY,ShoulderRightZ,ElbowLeftX,ElbowLeftY,ElbowLeftZ,ElbowRightX,ElbowRightY,ElbowRightZ,Myo_Pose_left,Myo_Pose_Right,Kinect_pose_left,Kinect_pose_right
0.9462891,0.1796875,-0.1376953,0.9365234,-0.3413086,-0.05859375,0,-2,1,1,0,-1,-2,-1,-2,0,-1,-2,-1,-1,-1,0,-2,-2,-2,0,0,0,8.548326,2.87598,0.3933936,2.22586,3.062242,3.693921,-0.1981251,-0.5468924,1.519482,0.2054747,-0.5511633,1.520774,0.002138573,0.1993847,1.625053,-0.1504941,-0.53199,1.52,0.2452663,-0.5475758,1.502944,0.007098236,-0.2205852,1.622116,0.003784548,-0.5202317,1.604864,-0.1506142,-0.0565288,1.599853,-0.07109116,-0.5092909,1.572998,-0.2036044,-0.2990661,1.581061,0.2091489,-0.2995588,1.575069,NA,NA,NotTracked,NotTracked,
0.9418945,0.1860352,-0.1435547,0.9375,-0.3383789,-0.0625,1,-1,0,-1,-1,-1,-2,0,0,-2,-2,-1,-1,-1,-2,-1,-0.0625,-0.0625,-0.0625,-2.125,-2.125,-2.125,8.547812,2.876359,0.3927912,2.220099,3.060553,3.69726,-0.1992252,-0.5478699,1.521227,0.2057626,-0.5515048,1.522006,0.002120306,0.1993676,1.625183,-0.1476715,-0.5032881,1.518563,0.2471415,-0.546167,1.508223,0.007076019,-0.2206171,1.622231,0.003810651,-0.5202694,1.605033,-0.1504495,-0.05693061,1.598737,-0.07106778,-0.5093378,1.573086,-0.2036142,-0.2991429,1.581286,0.2090588,-0.2994263,1.575253,NA,NA,NotTracked,NotTracked,
0.9389648,0.1777344,-0.140625,0.9345703,-0.3461914,-0.05957031,-1,-2,-1,-1,-2,-1,1,-1,-2,-1,-1,-1,0,1,-1,-1,2.125,2.125,2.125,0.25,0.25,0.25,8.550056,2.874642,0.3906721,2.218669,3.06063,3.697885,-0.1994109,-0.546712,1.520173,0.2055238,-0.5515328,1.52182,0.002078155,0.1993758,1.625224,-0.1482026,-0.5085874,1.519045,0.2453363,-0.548241,1.503015,0.007035424,-0.2206568,1.622259,0.003786787,-0.5202949,1.605165,-0.1503974,-0.05714026,1.598461,-0.07107723,-0.5093653,1.573203,-0.2035743,-0.2990796,1.581342,0.2090015,-0.3000793,1.575377,NA,NA,NotTracked,NotTracked,
0.9428711,0.184082,-0.1445313,0.9287109,-0.3393555,-0.06591797,-2,-2,-1,0,-1,-1,0,-1,-1,-1,-3,-3,0,-1,0,-1,1,1,1,1.25,1.25,1.25,8.551755,2.873229,0.3914251,2.216981,3.060717,3.69976,-0.1984039,-0.5463735,1.519624,0.2045877,-0.5519695,1.520738,0.00209754,0.1993936,1.625199,-0.1513956,-0.5163251,1.521572,0.2451504,-0.5469599,1.503214,0.007004024,-0.2206458,1.622284,0.003724289,-0.5203025,1.605245,-0.1501043,-0.05724483,1.597517,-0.07111248,-0.5093651,1.573248,-0.2035482,-0.2991299,1.581338,0.2089507,-0.299998,1.575396,NA,NA,NotTracked,NotTracked,
0.9453125,0.1782227,-0.1420898,0.9370117,-0.3413086,-0.06103516,0,-1,0,1,0,0,-2,-1,0,0,-1,0,-1,-1,-2,1,0.5625,0.5625,0.5625,1.875,1.875,1.875,8.555082,2.870506,0.389405,2.216631,3.06199,3.703997,-0.1992833,-0.5468028,1.520155,0.2051644,-0.5510831,1.521297,0.002179226,0.199398,1.62518,-0.146826,-0.5020087,1.516733,0.2452305,-0.5475238,1.50279,0.007000864,-0.2206398,1.62229,0.003741975,-0.5203187,1.605306,-0.1502756,-0.05740678,1.598208,-0.07109755,-0.5093817,1.573303,-0.2035048,-0.2990658,1.581449,0.2089084,-0.2999167,1.575475,NA,NA,NotTracked,NotTracked,
0.9462891,0.1757813,-0.1479492,0.9301758,-0.3432617,-0.05859375,0,-2,-1,0,-3,-1,1,-1,-1,-1,-1,-1,-1,-2,0,0,0.4375,0.4375,0.4375,1.1875,1.1875,1.1875,8.557684,2.870471,0.386784,2.219722,3.062762,3.703542,-0.1998458,-0.5467409,1.52001,0.2045836,-0.5522429,1.521211,0.002204262,0.1993783,1.625204,-0.14695,-0.5038536,1.515964,0.2449612,-0.5480425,1.502124,0.006952737,-0.2206449,1.622373,0.003612503,-0.520283,1.605424,-0.1502288,-0.05653885,1.599673,-0.07123911,-0.509299,1.573388,-0.2035244,-0.2990618,1.581515,0.2088449,-0.2995517,1.575538,NA,NA,NotTracked,NotTracked,
0.9663086,0.1826172,-0.1464844,0.9282227,-0.3408203,-0.06103516,0,-5,-3,-2,-1,-1,1,1,0,-2,-2,-1,-3,0,0,0,1.1875,1.1875,1.1875,1.0625,1.0625,1.0625,8.551521,2.870459,0.3941932,2.222725,3.063174,3.702704,-0.199793,-0.5471328,1.522036,0.2053714,-0.5516155,1.522406,0.002281416,0.1993469,1.625319,-0.1679441,-0.5266855,1.541661,0.241645,-0.5528815,1.497178,0.006991992,-0.2206231,1.62248,0.003561379,-0.5202032,1.605618,-0.1502491,-0.05621182,1.600661,-0.07126032,-0.5091962,1.573629,-0.2035469,-0.2992834,1.581818,0.2088244,-0.2993589,1.575714,NA,NA,NotTracked,NotTracked,
1.15332,0.3251953,-0.1098633,0.9428711,-0.3481445,-0.06835938,-3,-2,6,1,-1,0,0,0,-2,-1,-1,-3,-1,0,-1,0,-43.125,-43.125,-43.125,2.25,2.25,2.25,8.311403,2.89113,0.605331,2.225187,3.064305,3.703049,-0.199683,-0.5467195,1.520132,0.1977592,-0.5481987,1.510021,0.002343044,0.1994088,1.62526,-0.1540145,-0.5176651,1.524787,0.2349647,-0.5438127,1.487548,0.006909403,-0.2206307,1.622503,0.003457408,-0.5201981,1.605692,-0.1501544,-0.05641164,1.59995,-0.07133627,-0.5091941,1.573688,-0.2035908,-0.2992831,1.581886,0.2088202,-0.2987868,1.576336,NA,NA,NotTracked,NotTracked,
1.070313,0.3925781,0.06591797,0.9272461,-0.3486328,-0.05664063,-20,-1,15,9,2,-2,-2,-6,1,-1,-1,-2,0,-2,-1,-1,-73.625,-73.625,-73.625,2.0625,2.0625,2.0625,7.487262,2.986287,1.327791,2.232569,3.062366,3.701313,-0.1991743,-0.5467408,1.521337,0.1775435,-0.5204583,1.470427,0.002364138,0.1994066,1.625289,-0.1473819,-0.4987975,1.518167,0.1864338,-0.5232578,1.41719,0.006695122,-0.2204539,1.622434,0.002640445,-0.5198268,1.60562,-0.1502364,-0.05599094,1.600997,-0.07228697,-0.5086063,1.573521,-0.2036308,-0.298867,1.582183,0.2098856,-0.2912658,1.583006,NA,NA,NotTracked,NotTracked,
1.050293,0.5571289,0.378418,0.9414063,-0.3579102,-0.04199219,-5,6,0,0,-1,0,-2,-4,0,0,-1,-1,0,0,-1,0,1,1,1,-8.3125,-8.3125,-8.3125,6.841811,3.309027,1.960103,2.227825,3.057759,3.69938,-0.1997108,-0.5468897,1.52122,0.1280164,-0.4502792,1.447711,0.002400714,0.1994357,1.625331,-0.1475689,-0.5021231,1.518733,0.07251462,-0.3881611,1.427692,0.004692161,-0.2198605,1.622174,-0.003771527,-0.5181237,1.604602,-0.1501089,-0.0554994,1.601435,-0.07893157,-0.5057744,1.572363,-0.2037041,-0.2981011,1.582711,0.2120949,-0.2720368,1.593424,NA,NA,NotTracked,Unknown,
0.8261719,0.8212891,0.5322266,0.9311523,-0.3417969,-0.06103516,10,-3,1,-2,1,-3,0,1,-2,1,-1,0,-2,-2,-2,-1,-1.4375,-1.4375,-1.4375,-17.875,-17.875,-17.875,6.625212,3.786104,2.254713,2.213494,3.058657,3.687147,-0.1991176,-0.5466946,1.519914,0.09042766,-0.3631146,1.394421,0.002552783,0.1994743,1.625358,-0.1468135,-0.5002179,1.517231,0.06124158,-0.4121064,1.428163,0.004278518,-0.2197474,1.622248,-0.004601229,-0.5178865,1.604878,-0.1495368,-0.05578488,1.599973,-0.07953779,-0.5055901,1.572531,-0.2033215,-0.2969104,1.582443,0.2148026,-0.258624,1.58501,NA,NA,NotTracked,Unknown,
0.2636719,0.6542969,0.5336914,0.9536133,-0.324707,-0.06445313,11,0,-1,0,2,0,4,3,-1,-2,-1,-2,-3,0,-1,0,35.3125,35.3125,35.3125,-25,-25,-25,6.508907,4.698346,2.536205,2.21698,3.065321,3.63192,-0.1973746,-0.5458635,1.515952,0.06944692,-0.2378203,1.379633,0.002849848,0.1994214,1.62545,-0.1494433,-0.5143027,1.519905,0.02125703,-0.2243419,1.453667,0.00433026,-0.2194705,1.62251,-0.004333511,-0.5171268,1.605322,-0.1492677,-0.05540428,1.600235,-0.07919052,-0.5049641,1.572757,-0.2028992,-0.2963998,1.582202,0.2390722,-0.2616349,1.524493,NA,NA,NotTracked,Unknown,
-0.06738281,0.6572266,0.4628906,0.9365234,-0.3188477,-0.08544922,-27,14,12,-1,-1,-1,-3,-6,1,-1,-2,0,0,-2,0,-1,47.4375,47.4375,47.4375,-24.875,-24.875,-24.875,6.574333,5.218007,2.685132,2.208663,3.06953,3.593559,-0.1956957,-0.5449773,1.511654,0.05002154,-0.122169,1.394156,0.004035706,0.1995029,1.626211,-0.1472938,-0.5174656,1.515683,-0.002496525,-0.09102732,1.451333,0.004560777,-0.2193573,1.622865,-0.003871623,-0.5167725,1.605601,-0.1484105,-0.05554887,1.599316,-0.07861437,-0.5047576,1.573034,-0.2023066,-0.2958903,1.58111,0.237725,-0.2443554,1.515602,NA,NA,NotTracked,Unknown,
-0.2412109,0.6713867,0.3935547,0.9326172,-0.3320313,-0.09423828,-16,-7,-1,1,1,-1,-1,-5,-1,-3,-3,-2,-1,-2,-2,-2,23.5625,23.5625,23.5625,-9.625,-9.625,-9.625,6.675599,5.673882,2.861865,2.193494,3.068654,3.581386,-0.194925,-0.5453697,1.511445,0.03499754,-0.05036944,1.437053,0.006019158,0.199498,1.627278,-0.1467789,-0.5161432,1.515754,0.08275841,-0.04746605,1.514167,0.005140284,-0.2188842,1.623473,-0.003901,-0.516781,1.605583,-0.14853,-0.0548889,1.598565,-0.07869394,-0.5049034,1.573532,-0.2017504,-0.2953944,1.580504,0.2156932,-0.2313146,1.475368,NA,NA,NotTracked,Unknown,
-0.3701172,0.5947266,0.2763672,0.934082,-0.3447266,-0.08691406,-10,-7,-1,0,-1,-1,4,0,-1,1,-1,0,-2,0,-1,-2,13.1875,13.1875,13.1875,25.5625,25.5625,25.5625,6.81533,6.019722,3.081109,2.189641,3.072845,3.61394,-0.1948851,-0.5455284,1.513235,0.03997684,-0.01932244,1.463514,0.007106754,0.20064,1.628307,-0.1474395,-0.5131879,1.517439,0.01301988,-0.07655533,1.509462,0.005562892,-0.2185761,1.623697,-0.004005283,-0.5171744,1.605546,-0.1486297,-0.05517454,1.598002,-0.0789969,-0.5060371,1.574888,-0.2015432,-0.2950369,1.580241,0.2053735,-0.2345236,1.469905,NA,NA,NotTracked,Unknown,
-0.4472656,0.590332,0.2055664,0.9301758,-0.3452148,-0.06591797,21,9,2,9,3,1,1,3,-1,-1,0,-1,-3,-2,0,1,5.25,5.25,5.25,37.25,37.25,37.25,6.986741,6.228093,3.31029,2.210689,3.080021,3.654167,-0.1968361,-0.5460619,1.515558,0.04134837,-0.01887048,1.487069,0.007811808,0.2014858,1.629292,-0.1491655,-0.5191774,1.519678,0.008534291,-0.07484028,1.510008,0.00579868,-0.2183327,1.623752,-0.004206912,-0.5174474,1.605515,-0.148821,-0.05551914,1.597845,-0.07941619,-0.5068778,1.576372,-0.2014832,-0.2946185,1.580357,0.1983064,-0.2340562,1.46389,NA,NA,NotTracked,NotTracked,
-0.6298828,0.5712891,0.1376953,0.9296875,-0.3481445,-0.05224609,4,-3,1,0,1,-1,-4,-1,-3,-3,-2,-3,1,1,1,0,-3.75,-3.75,-3.75,34.4375,34.4375,34.4375,7.139356,6.327703,3.528717,2.232239,3.082308,3.696467,-0.1985129,-0.5461057,1.51903,0.03970943,-0.02309148,1.498869,0.007977569,0.2017167,1.629653,-0.1505105,-0.5165431,1.521044,0.004947426,-0.07697523,1.51036,0.005939224,-0.2181874,1.623804,-0.004374002,-0.5175987,1.605489,-0.149248,-0.05604191,1.59785,-0.0797218,-0.5073588,1.577392,-0.2017226,-0.2946535,1.581109,0.1974736,-0.2327841,1.459491,NA,NA,NotTracked,NotTracked,
-0.690918,0.6552734,0.1425781,0.9277344,-0.3789063,-0.03613281,31,6,-1,-2,-1,0,-2,-1,0,-1,-1,0,1,-1,0,-2,-2.1875,-2.1875,-2.1875,6.5,6.5,6.5,7.174081,6.342651,3.578002,2.227249,3.078563,3.743183,-0.2001786,-0.5469286,1.521955,0.03721129,-0.02927053,1.502816,0.00807053,0.2018002,1.629771,-0.1502403,-0.5160723,1.520646,-0.0003084966,-0.07889898,1.507581,0.005990017,-0.2179815,1.62376,-0.00519456,-0.5175701,1.605119,-0.1494056,-0.05621937,1.597904,-0.08055484,-0.5072911,1.577921,-0.2020697,-0.2945123,1.582163,0.19756,-0.2324898,1.458076,NA,NA,NotTracked,NotTracked,
-0.7592773,0.6650391,0.09130859,0.9404297,-0.3730469,-0.05371094,9,-15,-8,-4,0,0,-2,-3,0,-1,-1,-1,-1,-2,0,-1,1.4375,1.4375,1.4375,-5.125,-5.125,-5.125,7.157739,6.355389,3.556813,2.22252,3.08125,3.746384,-0.2004016,-0.545825,1.522754,0.03848856,-0.02743689,1.501508,0.008083465,0.2018261,1.630025,-0.1471135,-0.5055615,1.516455,-0.01269194,-0.0790722,1.501935,0.00597287,-0.2178238,1.623718,-0.005681525,-0.5175801,1.604954,-0.1494608,-0.05627989,1.597916,-0.08105575,-0.5072947,1.578222,-0.2024466,-0.2944272,1.583041,0.1977446,-0.2324625,1.458086,NA,NA,NotTracked,NotTracked,
-0.8012695,0.7285156,0.1767578,0.9238281,-0.3652344,-0.04638672,-3,-1,0,-9,-4,-4,-4,-1,-2,-2,-1,-2,-1,0,0,-1,17.875,17.875,17.875,-18.9375,-18.9375,-18.9375,7.12239,6.380954,3.478339,2.219875,3.089746,3.724686,-0.2006774,-0.5459784,1.521628,0.04610384,-0.02242138,1.502484,0.008135263,0.2018433,1.630186,-0.1676902,-0.5255817,1.541409,-0.002220329,-0.07718985,1.507287,0.004551341,-0.2178787,1.622838,-0.006205851,-0.5179245,1.605062,-0.1511178,-0.05667272,1.602455,-0.0816225,-0.5077506,1.578957,-0.2027792,-0.2941244,1.583685,0.1975246,-0.2326395,1.458327,NA,NA,NotTracked,NotTracked,
-0.8427734,0.5615234,0.1850586,0.9243164,-0.3505859,-0.06787109,-14,-11,-5,-6,-1,0,2,-2,-2,-1,-2,-2,-2,-1,-2,0,24.875,24.875,24.875,-29.4375,-29.4375,-29.4375,7.090324,6.496457,3.368443,2.197768,3.093728,3.684854,-0.1995661,-0.5457974,1.520065,0.05741534,-0.01790641,1.504704,0.007907435,0.2017399,1.630199,-0.1474655,-0.5017717,1.517667,0.01139474,-0.07155775,1.513092,0.003374858,-0.2181007,1.622227,-0.006407585,-0.518157,1.605057,-0.1515376,-0.05714659,1.603352,-0.08182684,-0.5080816,1.5793,-0.2028532,-0.29425,1.58368,0.1974358,-0.2322898,1.458237,NA,NA,NotTracked,NotTracked,
-0.8408203,0.4716797,0.1655273,0.9208984,-0.3583984,-0.07421875,-18,-5,-3,3,0,1,0,-8,-3,-1,-3,-1,-1,0,0,-2,19.25,19.25,19.25,-22.3125,-22.3125,-22.3125,7.139047,6.567957,3.385929,2.179902,3.092761,3.658645,-0.1988229,-0.5452158,1.517652,0.06552273,-0.008347891,1.510993,0.007710984,0.2016978,1.63015,-0.1472592,-0.5004359,1.516929,0.01710471,-0.06427922,1.517737,0.002749415,-0.2181451,1.622022,-0.006409869,-0.5181981,1.605049,-0.1514331,-0.05647381,1.603309,-0.08180802,-0.5081358,1.579418,-0.2029833,-0.2942195,1.583312,0.1983854,-0.2308473,1.458101,NA,NA,NotTracked,NotTracked,
-0.8496094,0.4350586,0.09716797,0.9370117,-0.3510742,-0.07617188,0,0,1,4,3,2,0,1,-2,-1,-1,0,-3,-1,-1,-2,9.25,9.25,9.25,-3.25,-3.25,-3.25,7.21661,6.595139,3.456977,2.179369,3.091248,3.641166,-0.1975326,-0.54489,1.516706,0.06818208,-0.01424387,1.515963,0.007616874,0.2014333,1.63035,-0.1615204,-0.5229989,1.532387,0.02269849,-0.06456089,1.520165,0.001557554,-0.2185456,1.621561,-0.006407201,-0.518289,1.605055,-0.1514151,-0.05655813,1.603462,-0.0818013,-0.5081896,1.579471,-0.2032043,-0.2942368,1.582844,0.2006124,-0.2291482,1.456792,NA,NA,NotTracked,NotTracked,
-0.800293,0.4926758,0.05322266,0.9384766,-0.3383789,-0.08984375,0,0,2,0,3,0,-2,-3,-1,-1,-1,0,-1,-2,-1,-1,-1.125,-1.125,-1.125,-1.75,-1.75,-1.75,7.246944,6.583147,3.489338,2.178102,3.089194,3.640804,-0.1979752,-0.5448785,1.516093,0.06946427,-0.0190804,1.516317,0.007725716,0.2010488,1.630542,-0.1469364,-0.5006294,1.516643,0.02606294,-0.06384378,1.521896,0.001991763,-0.2188212,1.621793,-0.006300465,-0.518435,1.60499,-0.1506997,-0.05682132,1.601473,-0.08168679,-0.5083145,1.579448,-0.2032035,-0.2939635,1.582231,0.201913,-0.2288309,1.456596,NA,NA,NotTracked,NotTracked,
-0.7680664,0.4936523,0.09326172,0.9335938,-0.331543,-0.07324219,-7,-6,-4,-2,-1,0,0,0,-2,-1,0,-1,0,-2,-1,-2,1.4375,1.4375,1.4375,-5.75,-5.75,-5.75,7.166897,6.562014,3.385876,2.177754,3.088364,3.633802,-0.1966005,-0.5446991,1.514759,0.06973355,-0.01843301,1.513466,0.007814712,0.2007617,1.63063,-0.1516046,-0.5144349,1.521775,0.02262171,-0.06527136,1.520034,0.001489533,-0.2191553,1.621492,-0.00603611,-0.5186546,1.604988,-0.150839,-0.05703763,1.601836,-0.08138585,-0.5085269,1.57941,-0.2030787,-0.2940738,1.581619,0.2022891,-0.2286611,1.456723,NA,NA,NotTracked,NotTracked,
-0.6606445,0.5068359,0.1035156,0.9248047,-0.3369141,-0.08691406,-2,-1,2,2,0,0,0,0,-2,-2,-1,1,-2,-1,0,-1,-0.125,-0.125,-0.125,-8.25,-8.25,-8.25,7.019909,6.485807,3.201291,2.178823,3.083381,3.616161,-0.1963877,-0.5451014,1.514311,0.06684629,-0.006432736,1.500496,0.007771764,0.2005056,1.630787,-0.1482845,-0.5103254,1.518587,0.02790195,-0.0627204,1.523146,0.001577514,-0.2193435,1.621618,-0.005840139,-0.5190164,1.604933,-0.1503547,-0.05721256,1.600223,-0.08126933,-0.5087709,1.579347,-0.2029527,-0.293874,1.580996,0.2038466,-0.2306692,1.460978,NA,NA,NotTracked,NotTracked,
-0.6289063,0.487793,0.1972656,0.9370117,-0.3457031,-0.09130859,18,2,2,-3,0,0,0,-20,-2,-1,0,-1,-1,-1,0,-1,5.5625,5.5625,5.5625,15.75,15.75,15.75,6.766182,6.181751,2.873924,2.18836,3.076963,3.619514,-0.1953299,-0.5452647,1.514213,0.06377891,0.003880462,1.452967,0.007679993,0.2006699,1.630971,-0.1474664,-0.5284603,1.517846,0.04023864,-0.0317944,1.519,0.002775481,-0.2189077,1.6225,-0.005613758,-0.5191501,1.604988,-0.1503217,-0.05726393,1.599729,-0.08104379,-0.5089033,1.579244,-0.2028182,-0.293871,1.580854,0.2059851,-0.2360731,1.472645,NA,NA,NotTracked,Unknown,
-0.4238281,0.6323242,0.3613281,0.9243164,-0.3540039,-0.06689453,1,7,6,-6,2,0,-3,0,-1,0,-2,-1,0,-2,-1,-2,2.3125,2.3125,2.3125,31,31,31,6.673921,5.782923,2.691505,2.199427,3.075492,3.654661,-0.1962575,-0.5455053,1.516917,0.06287192,-0.06966875,1.414008,0.007933768,0.20049,1.631416,-0.1485488,-0.5157166,1.51873,0.03014383,-0.09034518,1.489714,0.002676735,-0.2187243,1.622982,-0.005475889,-0.5191098,1.60512,-0.1498201,-0.05683801,1.599014,-0.08085631,-0.5087849,1.579138,-0.2025597,-0.2937088,1.580971,0.2271899,-0.2407093,1.500097,NA,NA,NotTracked,Unknown,
-0.2446289,0.7421875,0.4711914,0.9287109,-0.3505859,-0.05175781,-16,-1,-1,1,2,0,-3,-3,-1,-1,-2,-1,0,0,-2,0,0.3125,0.3125,0.3125,27.875,27.875,27.875,6.63451,5.326849,2.555479,2.211017,3.070842,3.696457,-0.1983257,-0.5459496,1.519728,0.07317551,-0.1673456,1.380871,0.007966892,0.2002639,1.631814,-0.1467151,-0.5069142,1.517,0.0487641,-0.1217122,1.467445,0.003154247,-0.2187238,1.624147,-0.004840233,-0.5185427,1.605531,-0.1492399,-0.05743686,1.601915,-0.0797374,-0.5077223,1.577871,-0.2025799,-0.2940233,1.581203,0.2365062,-0.2393228,1.512662,NA,NA,NotTracked,Unknown,
0.1005859,0.8022461,0.4980469,0.9350586,-0.3466797,-0.04296875,-5,0,0,-3,0,-1,-1,-1,-1,0,-1,-1,-1,0,-1,-2,15.4375,15.4375,15.4375,8,8,8,6.638439,4.700919,2.394989,2.222608,3.065089,3.724546,-0.1998902,-0.5471511,1.523904,0.0844421,-0.2728497,1.370111,0.007478772,0.2000377,1.632204,-0.1469279,-0.504148,1.518875,0.08542299,-0.2373919,1.302958,0.003360342,-0.2184941,1.625004,-0.004461998,-0.5174686,1.606089,-0.1491099,-0.05778987,1.603165,-0.07922405,-0.5064117,1.577006,-0.2028104,-0.2945911,1.582073,0.2429519,-0.2518755,1.521542,NA,NA,NotTracked,Closed,
0.7299805,0.7099609,0.4501953,0.9394531,-0.3544922,-0.05761719,0,2,2,3,-3,-4,-7,-5,-1,-1,0,0,-1,-1,0,-1,18.8125,18.8125,18.8125,-10.125,-10.125,-10.125,6.72659,4.207764,2.248847,2.224778,3.063597,3.715908,-0.1995115,-0.547165,1.524186,0.1052695,-0.37449,1.406439,0.007062905,0.2000188,1.632448,-0.1507864,-0.5148144,1.523345,0.0629302,-0.4192195,1.430667,0.003217173,-0.2183789,1.625474,-0.005048371,-0.5170912,1.60657,-0.1487667,-0.0574304,1.604153,-0.07964611,-0.5059283,1.577017,-0.2028321,-0.2947841,1.582769,0.2383703,-0.253787,1.530733,NA,NA,NotTracked,Unknown,
0.6396484,0.8022461,0.3740234,0.9267578,-0.3647461,-0.08007813,-7,-6,9,-2,-1,-1,1,0,-2,-3,-1,-2,-2,0,-1,-1,-14.0625,-14.0625,-14.0625,-11.125,-11.125,-11.125,6.788673,3.773733,2.128209,2.210863,3.067577,3.707742,-0.198721,-0.5468899,1.523854,0.1308886,-0.4432181,1.428014,0.006876482,0.2000226,1.63248,-0.1498574,-0.5139875,1.522191,0.1137882,-0.5067006,1.4618,0.002583996,-0.2184791,1.625599,-0.007398542,-0.5171888,1.606234,-0.1487662,-0.05787194,1.604628,-0.08230776,-0.5053101,1.575857,-0.2028397,-0.2948129,1.583118,0.2048875,-0.2572908,1.577049,NA,NA,NotTracked,Unknown,
0.9741211,0.6625977,0.1645508,0.9335938,-0.3476563,-0.08105469,15,5,0,-2,2,0,0,-1,-1,1,-1,-1,-2,0,1,0,-10.9375,-10.9375,-10.9375,-1.75,-1.75,-1.75,7.009357,3.310667,1.824207,2.186899,3.078197,3.721535,-0.1986337,-0.5465444,1.522413,0.1692731,-0.4958281,1.441015,0.006775569,0.1999828,1.632303,-0.1473263,-0.506493,1.519459,0.2055946,-0.5146512,1.440555,0.002560915,-0.2185453,1.625594,-0.007401263,-0.5173185,1.606122,-0.1483792,-0.05815953,1.601916,-0.08234432,-0.5053436,1.575333,-0.2028886,-0.2954104,1.583561,0.2028499,-0.2659216,1.576458,NA,NA,NotTracked,Unknown,
1.020996,0.4985352,0.02734375,0.925293,-0.3349609,-0.07568359,-2,-2,2,0,0,0,-1,1,-1,-1,-1,-2,-2,-3,-2,-2,-35.0625,-35.0625,-35.0625,3.5625,3.5625,3.5625,7.320734,3.068787,1.448001,2.172967,3.083348,3.741863,-0.2004817,-0.5466494,1.522974,0.190873,-0.5288438,1.472375,0.006790171,0.1999633,1.632182,-0.1484888,-0.5065313,1.521711,0.2273046,-0.5469704,1.467133,0.003046866,-0.218848,1.625651,-0.005972143,-0.5179416,1.606221,-0.1482787,-0.05827248,1.601567,-0.08102351,-0.5059457,1.574993,-0.2030204,-0.296014,1.583851,0.2039414,-0.2802684,1.57462,NA,NA,NotTracked,Unknown,
1.074707,0.2744141,-0.02539063,0.9331055,-0.3603516,-0.07861328,-3,-3,-1,0,1,-2,-5,-4,-1,-3,0,-1,-1,0,0,-1,-11.4375,-11.4375,-11.4375,-3.375,-3.375,-3.375,7.883276,2.943218,0.8153102,2.140323,3.085846,3.770971,-0.2003861,-0.546573,1.523236,0.2114366,-0.5450256,1.503579,0.006894313,0.1999256,1.631697,-0.1608866,-0.5245005,1.534175,0.2308716,-0.5416108,1.473937,0.003990703,-0.2192835,1.62569,-0.003606837,-0.5187075,1.606652,-0.148189,-0.05824603,1.600419,-0.07865747,-0.5068411,1.575051,-0.2030962,-0.2962889,1.584026,0.2058172,-0.2883299,1.574348,NA,NA,NotTracked,NotTracked,
0.9926758,0.1777344,-0.1264648,0.918457,-0.3491211,-0.08496094,0,-2,-3,2,0,-3,-1,0,-1,0,0,-1,0,-1,0,-1,12.375,12.375,12.375,4.9375,4.9375,4.9375,8.5905,2.914924,0.1164896,2.126652,3.092585,3.788478,-0.2009699,-0.5460701,1.523963,0.2220544,-0.5504733,1.530165,0.007239816,0.1997498,1.630895,-0.1474044,-0.5050463,1.5185,0.2669634,-0.5679998,1.5226,0.004628067,-0.2196933,1.625572,-0.002294859,-0.5192153,1.606933,-0.1480045,-0.05858805,1.599118,-0.0773742,-0.5074317,1.575028,-0.2032722,-0.2964869,1.584056,0.207931,-0.2934694,1.575981,NA,NA,NotTracked,NotTracked,
0.9853516,0.125,-0.105957,0.9243164,-0.3481445,-0.0703125,-1,0,-1,-2,-2,-4,-2,0,0,-1,-1,-2,-2,-1,-1,-3,30.9375,30.9375,30.9375,3.125,3.125,3.125,8.887271,2.908857,9.84427,2.132213,3.096555,3.792152,-0.201564,-0.5458157,1.522565,0.2297016,-0.5527045,1.543728,0.007710758,0.1995579,1.630147,-0.152593,-0.5179222,1.523539,0.2755008,-0.541389,1.545091,0.004931402,-0.2198692,1.625432,-0.001709457,-0.5193976,1.607022,-0.1479678,-0.05860483,1.598405,-0.07683485,-0.5076362,1.575028,-0.2035659,-0.2968211,1.584028,0.210885,-0.2976147,1.579186,NA,NA,NotTracked,NotTracked,
0.9750977,0.2299805,-0.09765625,0.9257813,-0.3486328,-0.06640625,0,-1,-1,-5,-1,1,0,-3,-2,-2,-1,-3,-1,0,-2,0,7.25,7.25,7.25,-6.75,-6.75,-6.75,9.018803,2.900847,9.74052,2.12783,3.091113,3.791456,-0.2027202,-0.5455536,1.523714,0.2308496,-0.5531147,1.553507,0.008264057,0.1994677,1.629058,-0.1485886,-0.5076464,1.520125,0.2771667,-0.5488626,1.556615,0.005369225,-0.2199972,1.62527,-0.001235267,-0.5195077,1.607153,-0.1479135,-0.05859058,1.597956,-0.07637931,-0.5078025,1.575091,-0.2037222,-0.2968061,1.584041,0.2130026,-0.2996688,1.583223,NA,NA,NotTracked,NotTracked,
0.9541016,0.184082,-0.1645508,0.9326172,-0.3637695,-0.07666016,-1,-1,-1,-2,0,-1,0,-2,-2,-2,-1,-2,-2,-1,-1,0,-15.5,-15.5,-15.5,-1.3125,-1.3125,-1.3125,9.035218,2.872005,9.680387,2.134067,3.081273,3.775413,-0.2022312,-0.5455245,1.522969,0.2265842,-0.5543445,1.558065,0.008606253,0.1992796,1.628285,-0.1538869,-0.5211262,1.524862,0.2716543,-0.5706075,1.557333,0.005851856,-0.2202092,1.625096,-0.0006294355,-0.5196977,1.60727,-0.1477749,-0.05858683,1.597478,-0.07570861,-0.5080244,1.575145,-0.2037759,-0.2968138,1.584006,0.2137524,-0.3012386,1.585715,NA,NA,NotTracked,NotTracked,
0.9384766,0.1523438,-0.2260742,0.9257813,-0.3520508,-0.08886719,0,-1,0,0,-1,0,0,-1,0,-1,-1,-1,-1,-1,-2,-1,33.875,33.875,33.875,-4.5,-4.5,-4.5,9.046358,2.856123,9.697502,2.144536,3.079722,3.758464,-0.2006926,-0.5464754,1.522678,0.220233,-0.555703,1.560011,0.008675976,0.1991127,1.627594,-0.1507128,-0.5100049,1.52213,0.2635172,-0.5402761,1.55685,0.006220483,-0.2203743,1.625003,-1.746903E-05,-0.5198718,1.60731,-0.1476841,-0.05861367,1.597057,-0.07505106,-0.5082436,1.575081,-0.2037355,-0.2969514,1.583916,0.2139193,-0.3023644,1.587251,NA,NA,NotTracked,NotTracked,
0.9360352,0.1586914,-0.2055664,0.9311523,-0.3334961,-0.08886719,-1,0,-1,0,-3,0,-1,-1,-2,-1,-2,0,-1,0,-1,-1,32.75,32.75,32.75,-10.25,-10.25,-10.25,9.014967,2.859341,9.792437,2.147957,3.07876,3.740325,-0.1996112,-0.5463994,1.520601,0.2182834,-0.5549271,1.55611,0.008861082,0.1991033,1.627285,-0.1662624,-0.5249968,1.539803,0.2642105,-0.5326364,1.557812,0.006637991,-0.2205595,1.625028,0.0008384295,-0.5200288,1.60761,-0.1474449,-0.05827174,1.596588,-0.07415561,-0.5084353,1.575383,-0.203646,-0.2970255,1.583778,0.2138583,-0.3025007,1.588136,NA,NA,NotTracked,NotTracked,
0.9350586,0.1904297,-0.1694336,0.9360352,-0.3300781,-0.07519531,0,1,-2,-3,-2,-2,-2,0,0,0,-2,-1,-2,-1,-2,0,40.75,40.75,40.75,-19.25,-19.25,-19.25,8.92444,2.87105,9.951747,2.14635,3.068594,3.703766,-0.1992813,-0.5459667,1.518466,0.2182748,-0.5539698,1.548763,0.008877812,0.1990879,1.626989,-0.1476599,-0.4981715,1.519091,0.2640367,-0.5353348,1.546672,0.006987915,-0.2206522,1.624812,0.001386591,-0.5201266,1.607445,-0.1472918,-0.05839678,1.596136,-0.07357598,-0.5086088,1.575004,-0.2033965,-0.2976082,1.583172,0.2138578,-0.3023866,1.588283,NA,NA,NotTracked,NotTracked,
0.9599609,0.1806641,-0.1557617,0.9418945,-0.3388672,-0.09326172,-2,-1,-2,-2,-1,-2,-2,0,0,0,-1,-1,-2,-1,1,-2,7.5,7.5,7.5,-9.8125,-9.8125,-9.8125,8.750158,2.89758,0.1758934,2.135774,3.059704,3.688507,-0.1977057,-0.5456821,1.518698,0.2181398,-0.5533816,1.540416,0.008873611,0.1991645,1.626731,-0.1471803,-0.5033564,1.518813,0.2650764,-0.5478073,1.535467,0.007229514,-0.2207854,1.624597,0.001958626,-0.5201593,1.607273,-0.1471529,-0.05833342,1.595659,-0.07300524,-0.5086836,1.574703,-0.2031438,-0.2976849,1.58272,0.2138127,-0.3020032,1.587821,NA,NA,NotTracked,NotTracked,
0.953125,0.1337891,-0.1513672,0.9335938,-0.3417969,-0.0859375,1,-2,0,-1,0,-1,0,0,-2,-1,0,-1,-1,1,0,-1,-10.375,-10.375,-10.375,11,11,11,8.633857,2.902377,0.2823176,2.142307,3.058768,3.689547,-0.197054,-0.5464085,1.519918,0.2153685,-0.5516476,1.531551,0.008772231,0.1991542,1.626646,-0.151938,-0.5132995,1.525213,0.2400936,-0.5546699,1.494756,0.007518207,-0.220835,1.624436,0.002545251,-0.5201885,1.607116,-0.1468953,-0.0580511,1.596291,-0.07247562,-0.5087616,1.574482,-0.2027187,-0.2976985,1.582478,0.213258,-0.3011675,1.586136,NA,NA,NotTracked,NotTracked,
0.9204102,0.1147461,-0.1875,0.940918,-0.3349609,-0.0859375,-2,-1,-1,-3,0,-2,-1,-3,-2,-2,-1,0,-2,-1,-1,1,24.5,24.5,24.5,16.5,16.5,16.5,8.551727,2.890157,0.3872462,2.152771,3.060168,3.706807,-0.1973318,-0.5457057,1.519974,0.2114243,-0.5510453,1.524232,0.008696247,0.1990521,1.626496,-0.1528162,-0.5149566,1.526218,0.2530925,-0.5335849,1.51437,0.00767232,-0.2208738,1.62429,0.00267914,-0.5201701,1.607043,-0.146846,-0.0574761,1.597256,-0.07235697,-0.5087291,1.574446,-0.2024695,-0.2978165,1.582352,0.2124209,-0.3001648,1.583219,NA,NA,NotTracked,NotTracked,
0.9467773,0.1689453,-0.1933594,0.9365234,-0.3364258,-0.07226563,-1,-2,0,-1,0,-1,-1,0,-1,-1,0,-1,-1,0,1,-1,30.5625,30.5625,30.5625,14.75,14.75,14.75,8.551712,2.885441,0.4473604,2.158185,3.061684,3.727817,-0.1980506,-0.5462074,1.52164,0.2078092,-0.5496542,1.52093,0.008566712,0.1990248,1.62642,-0.1528307,-0.5142297,1.526516,0.2505688,-0.5465041,1.511238,0.008015456,-0.2209606,1.624125,0.003021626,-0.5202874,1.606887,-0.1468187,-0.05756556,1.596838,-0.07200894,-0.5088612,1.574282,-0.2023755,-0.2978331,1.582394,0.211518,-0.2994699,1.580954,NA,NA,NotTracked,NotTracked,
0.9326172,0.1635742,-0.1748047,0.9394531,-0.3442383,-0.06591797,-1,-1,-1,-1,1,1,1,-1,-1,-2,-1,-1,-1,0,-1,0,2.875,2.875,2.875,9.625,9.625,9.625,8.550859,2.886837,0.46908,2.164263,3.064024,3.741881,-0.1987485,-0.5466096,1.521775,0.2068969,-0.5510032,1.519618,0.008462041,0.1990351,1.626377,-0.1472958,-0.5087173,1.520836,0.2483633,-0.5468121,1.506642,0.008305291,-0.2211055,1.624076,0.003345873,-0.5204373,1.606822,-0.1471486,-0.05819624,1.598241,-0.07164329,-0.5090712,1.57426,-0.2020114,-0.298754,1.582664,0.2108479,-0.2989159,1.578907,NA,NA,NotTracked,NotTracked,
0.9448242,0.1699219,-0.1542969,0.934082,-0.3525391,-0.06787109,0,-1,-1,0,-2,0,0,-1,-2,-1,-1,-1,-1,-1,-1,-1,-17.25,-17.25,-17.25,8.875,8.875,8.875,8.548083,2.885852,0.4524575,2.172724,3.067882,3.754482,-0.1986508,-0.5471073,1.524925,0.2078012,-0.5508115,1.520805,0.008403334,0.1990536,1.626375,-0.1489775,-0.5098928,1.523822,0.2479771,-0.5458275,1.50774,0.008496058,-0.2211454,1.624128,0.003540623,-0.5204953,1.606864,-0.1469975,-0.05772533,1.599789,-0.07139798,-0.5091542,1.574362,-0.202058,-0.2989103,1.583106,0.2105977,-0.2987273,1.578003,NA,NA,NotTracked,NotTracked,
0.9462891,0.1704102,-0.1323242,0.9272461,-0.3549805,-0.05957031,-2,-1,-1,-1,-2,-1,-1,0,0,-1,-1,0,0,-2,0,-1,-10.375,-10.375,-10.375,7.3125,7.3125,7.3125,8.546627,2.882732,0.4205954,2.179316,3.068931,3.756072,-0.1991479,-0.5461463,1.52387,0.2077287,-0.5506855,1.520256,0.008360248,0.1990478,1.62636,-0.1495477,-0.5103971,1.523769,0.2501495,-0.540812,1.510679,0.008745959,-0.2211767,1.624098,0.003755644,-0.5204908,1.606864,-0.1469868,-0.05783024,1.599211,-0.07114066,-0.5091671,1.574514,-0.2019928,-0.2990873,1.583543,0.2107742,-0.2984455,1.576905,NA,NA,NotTracked,NotTracked,
0.9433594,0.1713867,-0.1362305,0.9326172,-0.3544922,-0.06396484,0,-1,-1,0,-2,0,-1,0,-1,-1,-1,-2,-1,-1,-2,-1,2.1875,2.1875,2.1875,1,1,1,8.551299,2.881077,0.411914,2.19427,3.069062,3.749532,-0.1979346,-0.5459816,1.523492,0.2073322,-0.5513877,1.519438,0.008150957,0.1989847,1.62637,-0.1520521,-0.5167572,1.52749,0.2487656,-0.5435616,1.506097,0.008933481,-0.2212651,1.624057,0.003885587,-0.5205395,1.606812,-0.1469513,-0.0575165,1.600262,-0.07102921,-0.5092274,1.574505,-0.2019178,-0.29912,1.583756,0.2108355,-0.2986074,1.576153,NA,NA,NotTracked,NotTracked,
0.9394531,0.1806641,-0.1469727,0.9272461,-0.3510742,-0.07275391,-1,-2,0,-2,-1,-1,0,-1,-2,-1,-3,0,-2,-2,-1,-1,6.125,6.125,6.125,-4.125,-4.125,-4.125,8.554548,2.882602,0.4182495,2.196743,3.070951,3.741071,-0.1975881,-0.5447083,1.524094,0.2074468,-0.5509005,1.519555,0.00799891,0.1989552,1.626369,-0.1553923,-0.5245817,1.53122,0.2489938,-0.545377,1.50815,0.009130567,-0.2213327,1.623971,0.004169231,-0.5206137,1.606678,-0.1470063,-0.05768393,1.599532,-0.07078432,-0.5093195,1.574478,-0.2018383,-0.2992423,1.583953,0.2109094,-0.2986591,1.575623,NA,NA,NotTracked,NotTracked,
0.9423828,0.190918,-0.1572266,0.934082,-0.3442383,-0.07177734,0,-2,-4,0,-2,-2,0,0,0,0,-3,0,-3,-1,0,0,0,0,0,-7.4375,-7.4375,-7.4375,8.555848,2.887548,0.4244403,2.196776,3.071923,3.729959,-0.1973177,-0.5441494,1.523339,0.2073096,-0.5503811,1.519619,0.007916262,0.1989757,1.626349,-0.1552106,-0.5346121,1.532022,0.2486988,-0.5438082,1.507362,0.009251978,-0.221296,1.623969,0.004313382,-0.5205919,1.60665,-0.14693,-0.05765626,1.59897,-0.07064653,-0.5093167,1.574533,-0.2018041,-0.2993083,1.584138,0.2109305,-0.2984426,1.575323,NA,NA,NotTracked,NotTracked,
0.9433594,0.1811523,-0.1557617,0.9321289,-0.340332,-0.0703125,-1,-1,0,0,-1,0,-2,0,-1,-2,0,-2,-1,-1,0,-2,-6.125,-6.125,-6.125,-6,-6,-6,8.553195,2.890142,0.4197951,2.194159,3.071529,3.720506,-0.196734,-0.5444245,1.522992,0.2078659,-0.5498461,1.519508,0.007837675,0.1990066,1.626429,-0.15482,-0.5345603,1.53087,0.2469424,-0.5446457,1.496667,0.009339945,-0.2212861,1.623971,0.004429875,-0.5206169,1.60659,-0.146912,-0.05779742,1.59849,-0.07054762,-0.5093643,1.574517,-0.2017219,-0.2992324,1.584189,0.2109668,-0.2981922,1.575059,NA,NA,NotTracked,NotTracked,
0.9370117,0.1811523,-0.1464844,0.9321289,-0.3417969,-0.07226563,-3,-2,0,-1,0,0,0,1,-1,-1,-1,0,-2,-2,0,-2,-7.0625,-7.0625,-7.0625,-0.0625,-0.0625,-0.0625,8.547745,2.892535,0.409164,2.19371,3.07133,3.714943,-0.1959716,-0.5438348,1.521646,0.207612,-0.5501068,1.519675,0.007760375,0.1990795,1.626544,-0.1505709,-0.5281423,1.525614,0.2483594,-0.544188,1.503885,0.009424048,-0.2212646,1.623954,0.004554145,-0.5206023,1.606492,-0.1468565,-0.05792338,1.598062,-0.07044611,-0.509357,1.574483,-0.2016585,-0.2994037,1.58416,0.2110179,-0.298095,1.57488,NA,NA,NotTracked,NotTracked,
0.9443359,0.1831055,-0.144043,0.9345703,-0.3369141,-0.07080078,0,-1,-1,-2,0,0,0,-2,-1,-1,-1,-1,-1,0,-2,-2,-4.625,-4.625,-4.625,2,2,2,8.543446,2.892167,0.404365,2.195415,3.070846,3.716661,-0.1967048,-0.5449381,1.522805,0.2081932,-0.5497863,1.52035,0.007659434,0.199171,1.626755,-0.1509432,-0.5389167,1.526609,0.2485633,-0.5433818,1.504244,0.009472549,-0.2211846,1.623946,0.004657014,-0.5205598,1.606479,-0.1468359,-0.05791256,1.597835,-0.07035076,-0.5093139,1.574498,-0.2014657,-0.2993005,1.58413,0.2110193,-0.2980422,1.574838,NA,NA,NotTracked,NotTracked,
0.9394531,0.1879883,-0.1479492,0.9331055,-0.3461914,-0.06640625,-2,-1,-1,-3,-1,0,-1,-2,-2,-1,-1,-2,0,-2,-2,-2,-1.75,-1.75,-1.75,-0.0625,-0.0625,-0.0625,8.544367,2.891915,0.3990434,2.195622,3.070453,3.717236,-0.1965549,-0.5438838,1.522175,0.208286,-0.5492891,1.520239,0.007519685,0.1992013,1.62688,-0.1476071,-0.5118032,1.52138,0.2483654,-0.545702,1.503339,0.009494388,-0.2211541,1.623919,0.00474984,-0.5205307,1.606393,-0.1468493,-0.05801146,1.597501,-0.07027243,-0.5093063,1.574438,-0.2014173,-0.2993082,1.584083,0.2110535,-0.2979137,1.574729,NA,NA,NotTracked,NotTracked,
0.9418945,0.1865234,-0.1430664,0.9321289,-0.3442383,-0.06835938,-1,-1,-2,-1,0,-1,-1,0,-2,-2,0,-2,-2,0,-1,-1,-0.875,-0.875,-0.875,-1,-1,-1,8.544596,2.891772,0.398387,2.195096,3.070367,3.716733,-0.1965455,-0.5438984,1.522144,0.2085611,-0.5491274,1.520552,0.007451223,0.1992219,1.626969,-0.1581171,-0.5248848,1.5348,0.2488188,-0.5427682,1.5048,0.009520157,-0.2211235,1.623931,0.004870911,-0.5204861,1.606348,-0.1468534,-0.05803123,1.597298,-0.07014263,-0.5092834,1.574474,-0.2013608,-0.2992858,1.584071,0.2111022,-0.2978476,1.57469,NA,NA,NotTracked,NotTracked,
0.9394531,0.1870117,-0.1386719,0.9326172,-0.3457031,-0.07666016,1,-1,-1,-1,-2,0,-1,0,1,1,-2,0,0,-1,-1,-1,1.3125,1.3125,1.3125,0.625,0.625,0.625,8.545521,2.891588,0.3982649,2.195096,3.070367,3.716733,-0.1962528,-0.5443314,1.522404,0.2084938,-0.5492992,1.520669,0.007196818,0.1992289,1.627122,-0.1559774,-0.5386873,1.533038,0.2486061,-0.5431106,1.504671,0.009558083,-0.2210923,1.623959,0.004937532,-0.520444,1.606315,-0.1467288,-0.05762729,1.599527,-0.07007566,-0.5092342,1.574501,-0.2013559,-0.2991371,1.584054,0.2111136,-0.2976905,1.57469,NA,NA,NotTracked,NotTracked,
0.9394531,0.1865234,-0.1557617,0.9321289,-0.34375,-0.07080078,-1,-2,0,0,-3,-1,-3,0,0,-2,-2,0,-3,-1,0,-1,2.25,2.25,2.25,2.8125,2.8125,2.8125,8.55007,2.89258,0.3969917,2.19499,3.070063,3.720748,-0.1976711,-0.543823,1.52389,0.2089493,-0.5498391,1.52124,0.006974642,0.1992444,1.627281,-0.153007,-0.528782,1.528819,0.24838,-0.5441397,1.504775,0.009578489,-0.221055,1.624,0.004956522,-0.5204372,1.606321,-0.1468035,-0.05788561,1.598852,-0.07004193,-0.5092281,1.574565,-0.2013798,-0.2991699,1.584112,0.2111483,-0.2975128,1.574676,NA,NA,NotTracked,NotTracked,
0.9316406,0.1850586,-0.1484375,0.9277344,-0.347168,-0.06738281,1,-1,0,-1,-1,0,0,-2,-2,-1,-1,-3,-3,1,-1,-1,2.4375,2.4375,2.4375,2.3125,2.3125,2.3125,8.552468,2.892174,0.3987215,2.198221,3.069264,3.723432,-0.1973874,-0.5445796,1.523992,0.208662,-0.5498495,1.520832,0.006841164,0.1993046,1.627409,-0.1468627,-0.5154992,1.52155,0.248953,-0.5423687,1.505317,0.009592414,-0.2210388,1.624092,0.004973899,-0.5204372,1.60634,-0.146889,-0.05796659,1.598512,-0.0700131,-0.5092373,1.574646,-0.2013526,-0.2993509,1.584175,0.2111541,-0.2975476,1.574677,NA,NA,NotTracked,NotTracked,
0.940918,0.1831055,-0.159668,0.9345703,-0.3505859,-0.06640625,-1,-2,0,-1,-1,-1,-1,-1,-1,-1,-1,-1,0,-1,0,0,1,1,1,1.5,1.5,1.5,8.557796,2.891264,0.3978278,2.200607,3.069787,3.724654,-0.1963127,-0.5451224,1.523468,0.2082966,-0.5503771,1.52011,0.00667095,0.1993406,1.627477,-0.1493195,-0.5406227,1.524458,0.2492805,-0.5460447,1.506531,0.0095985,-0.2210241,1.624106,0.004983929,-0.5204285,1.606333,-0.1470552,-0.05799932,1.598263,-0.06999704,-0.5092432,1.574654,-0.2013648,-0.2995486,1.584204,0.2111549,-0.2975326,1.574615,NA,NA,NotTracked,NotTracked,
0.9418945,0.184082,-0.1459961,0.9321289,-0.3461914,-0.06591797,-1,-1,1,1,-2,1,0,0,-1,-1,-1,-2,-2,-2,-1,-1,1.1875,1.1875,1.1875,1.125,1.125,1.125,8.558392,2.891095,0.3979919,2.201798,3.070374,3.726125,-0.1966854,-0.544577,1.523661,0.2076655,-0.5482937,1.519709,0.006350392,0.1993932,1.627469,-0.1484499,-0.5259636,1.523038,0.2494065,-0.5409532,1.506803,0.009594335,-0.2210195,1.624084,0.004978691,-0.5204462,1.606292,-0.1470838,-0.05805899,1.598003,-0.06999797,-0.5092685,1.574631,-0.2013632,-0.2995526,1.584224,0.2111055,-0.2976112,1.574535,NA,NA,NotTracked,NotTracked,
0.9448242,0.1835938,-0.1503906,0.9287109,-0.3447266,-0.06884766,0,-1,-2,-1,-1,-1,-1,0,1,1,0,0,-2,0,-2,-1,2.0625,2.0625,2.0625,0.4375,0.4375,0.4375,8.565338,2.889672,0.3952958,2.202031,3.070497,3.72568,-0.1975209,-0.5448824,1.524846,0.2087473,-0.5485647,1.52108,0.00615593,0.1994393,1.62756,-0.1511804,-0.5279425,1.526543,0.2494161,-0.5427558,1.507298,0.00960315,-0.2210169,1.624167,0.004985769,-0.5204272,1.606352,-0.1473515,-0.05766535,1.600501,-0.06996804,-0.5092641,1.574717,-0.2014037,-0.2995493,1.584328,0.2110831,-0.2976662,1.574547,NA,NA,NotTracked,NotTracked,
0.9399414,0.184082,-0.1484375,0.9301758,-0.3452148,-0.06591797,-1,-1,-1,-1,-2,0,-2,-1,-1,-2,-2,-2,-2,-3,-2,-2,0.6875,0.6875,0.6875,-0.9375,-0.9375,-0.9375,8.568548,2.889924,0.3920943,2.202031,3.070497,3.72568,-0.1978181,-0.5448447,1.524215,0.2081745,-0.5489662,1.521095,0.005776541,0.1993666,1.627766,-0.1561622,-0.5250982,1.532753,0.249955,-0.5398358,1.509339,0.009601165,-0.2209871,1.624239,0.004993849,-0.5204397,1.6064,-0.1473749,-0.05791311,1.599774,-0.06995247,-0.5092912,1.574776,-0.2014851,-0.2996238,1.584408,0.2110305,-0.2983999,1.574388,NA,NA,NotTracked,NotTracked,
0.9428711,0.1860352,-0.1621094,0.9345703,-0.3461914,-0.06835938,1,0,-1,0,0,-1,-1,-1,-1,-2,-1,-1,-1,-2,-1,-2,-1.5625,-1.5625,-1.5625,-0.5625,-0.5625,-0.5625,8.573807,2.889135,0.3866653,2.201123,3.069863,3.72515,-0.1973465,-0.544847,1.524398,0.2081099,-0.5485012,1.521493,0.005603735,0.1993901,1.627855,-0.1493959,-0.5235158,1.524348,0.2514438,-0.5297647,1.516226,0.009618095,-0.2209551,1.624248,0.00498324,-0.5204322,1.606412,-0.1474676,-0.05799279,1.599394,-0.06996398,-0.5092929,1.574846,-0.2014447,-0.299675,1.584578,0.2109649,-0.2984009,1.574449,NA,NA,NotTracked,NotTracked,
0.9389648,0.1831055,-0.1494141,0.9287109,-0.3408203,-0.07080078,-1,-1,1,0,0,0,-2,0,-1,0,0,-2,0,-2,-1,-2,0.0625,0.0625,0.0625,-0.0625,-0.0625,-0.0625,8.571724,2.888857,0.3856057,2.2006,3.069649,3.724739,-0.1972197,-0.5451161,1.524955,0.2083816,-0.548695,1.521691,0.005554477,0.1994302,1.627961,-0.1476596,-0.5341631,1.522524,0.2501042,-0.5381293,1.510163,0.009621664,-0.2209562,1.624319,0.004992022,-0.52043,1.606449,-0.1474751,-0.05803365,1.599151,-0.06994877,-0.5093104,1.574974,-0.2015572,-0.29962,1.584742,0.2108826,-0.2984509,1.574569,NA,NA,NotTracked,NotTracked,
0.9458008,0.1787109,-0.1494141,0.9418945,-0.3442383,-0.06396484,-1,0,-1,1,-1,0,-2,1,-2,-2,-1,-3,-2,-2,-1,0,0.875,0.875,0.875,-0.0625,-0.0625,-0.0625,8.572093,2.889001,0.3852489,2.203275,3.067148,3.722746,-0.1974086,-0.5449984,1.524822,0.2079398,-0.5485107,1.521469,0.005419198,0.1994546,1.627991,-0.1497905,-0.532261,1.524392,0.250275,-0.5383352,1.510664,0.009594741,-0.2209635,1.624343,0.004960025,-0.5204548,1.606489,-0.1475342,-0.05825099,1.598766,-0.06998377,-0.5093912,1.575092,-0.2016176,-0.2995949,1.584768,0.2107936,-0.2984568,1.574596,NA,NA,NotTracked,NotTracked,
0.9399414,0.1835938,-0.1547852,0.9321289,-0.3457031,-0.06591797,0,-2,-1,-2,0,0,1,-2,-1,0,0,-1,-2,-1,-2,-1,2.625,2.625,2.625,-1.375,-1.375,-1.375,8.581612,2.889123,0.3791527,2.202121,3.065982,3.722049,-0.1976144,-0.5454293,1.524983,0.2084574,-0.5488405,1.522022,0.005267951,0.1994925,1.62815,-0.1553089,-0.5341122,1.532112,0.2501025,-0.5382699,1.510219,0.009573418,-0.2209484,1.624408,0.004961325,-0.5204791,1.606603,-0.1476211,-0.05830057,1.598585,-0.06995948,-0.5094572,1.575194,-0.2017144,-0.2996297,1.584912,0.2106965,-0.2985254,1.574671,NA,NA,NotTracked,NotTracked,
0.9438477,0.1757813,-0.1484375,0.9311523,-0.3422852,-0.06445313,0,-2,-1,-1,-1,-2,-1,-2,-2,0,-2,-1,0,0,0,-2,-0.875,-0.875,-0.875,-1,-1,-1,8.58152,2.888136,0.3797609,2.201453,3.066135,3.722371,-0.197541,-0.5452235,1.524438,0.2076758,-0.5489417,1.521127,0.005046833,0.1994281,1.628144,-0.1482397,-0.5374583,1.522553,0.2491425,-0.5419027,1.506855,0.009547936,-0.2209576,1.624439,0.004932889,-0.5205202,1.60664,-0.1477173,-0.05847402,1.598212,-0.06998616,-0.5094913,1.575232,-0.2017739,-0.2997814,1.584982,0.2105432,-0.2985649,1.574699,NA,NA,NotTracked,NotTracked,
0.9404297,0.1831055,-0.1523438,0.9345703,-0.3461914,-0.06787109,-1,-2,-4,-2,0,-1,-2,-1,-1,-1,1,-2,-1,-1,-2,-1,-0.3125,-0.3125,-0.3125,-0.5,-0.5,-0.5,8.58089,2.885441,0.3803793,2.200031,3.066353,3.723337,-0.1969487,-0.5457332,1.525243,0.2076581,-0.5486646,1.521625,0.004914827,0.1994338,1.628288,-0.1477106,-0.5194876,1.521104,0.2506668,-0.5404841,1.512599,0.009504494,-0.2209589,1.624508,0.004925257,-0.5205501,1.606713,-0.1477851,-0.05845906,1.598092,-0.06998609,-0.5095306,1.575307,-0.2018,-0.2995699,1.585205,0.2103953,-0.2987526,1.574764,NA,NA,NotTracked,NotTracked,
0.9399414,0.1767578,-0.1508789,0.934082,-0.3413086,-0.06689453,-1,-1,0,0,-2,-1,0,-2,-2,1,0,0,-2,0,0,-2,-0.5,-0.5,-0.5,0.6875,0.6875,0.6875,8.584321,2.884106,0.3764921,2.200031,3.066353,3.723337,-0.1978313,-0.5448248,1.524472,0.2074434,-0.5494143,1.521827,0.00467078,0.1993821,1.62845,-0.1491913,-0.5279174,1.523306,0.250525,-0.5395862,1.511819,0.009410866,-0.2209849,1.624586,0.004887214,-0.5205453,1.606776,-0.1479386,-0.05846884,1.597978,-0.07001203,-0.5095483,1.575343,-0.2018075,-0.2996789,1.585238,0.2102695,-0.2987534,1.574819,NA,NA,NotTracked,NotTracked,
0.940918,0.1845703,-0.1430664,0.9316406,-0.3393555,-0.06884766,-1,-2,0,-1,-2,-1,0,-1,-1,-2,-3,-2,-1,-2,1,0,-0.75,-0.75,-0.75,0.3125,0.3125,0.3125,8.583744,2.884455,0.3762672,2.200183,3.066388,3.723211,-0.1982604,-0.5450943,1.525803,0.2076859,-0.5493374,1.522495,0.004438435,0.1993752,1.62873,-0.1468114,-0.5197867,1.519667,0.2540611,-0.5438575,1.524572,0.009431656,-0.2209639,1.624644,0.004932345,-0.5205732,1.606855,-0.147905,-0.05845343,1.597832,-0.06996744,-0.5095821,1.575393,-0.2018542,-0.2996825,1.585309,0.2100964,-0.2989396,1.574904,NA,NA,NotTracked,NotTracked,
0.9414063,0.1816406,-0.1430664,0.9321289,-0.3432617,-0.06542969,-1,-1,-4,-1,0,-1,-2,0,-3,0,-1,-2,0,-1,-1,-2,1.8125,1.8125,1.8125,-0.3125,-0.3125,-0.3125,8.584039,2.883947,0.3779079,2.200183,3.066388,3.723211,-0.1982382,-0.545583,1.524751,0.2070037,-0.5493586,1.521995,0.004394503,0.1993919,1.628724,-0.1576175,-0.5270044,1.532945,0.2487511,-0.5517998,1.50715,0.00940724,-0.220971,1.624674,0.004924984,-0.5205751,1.606864,-0.1478915,-0.05849008,1.597705,-0.06998199,-0.5095792,1.575421,-0.201879,-0.29962,1.585409,0.2099858,-0.2989953,1.574959,NA,NA,NotTracked,NotTracked,
0.9423828,0.1757813,-0.1503906,0.9345703,-0.3422852,-0.06542969,-1,0,-1,-2,-1,-1,-3,-1,0,-1,0,-1,-1,-1,-1,-2,-0.4375,-0.4375,-0.4375,-1.1875,-1.1875,-1.1875,8.582764,2.882924,0.380548,2.197218,3.067039,3.723983,-0.1978447,-0.5452927,1.524863,0.2062345,-0.5515097,1.521533,0.004350135,0.1994312,1.628698,-0.1482789,-0.5297907,1.520841,0.2499536,-0.545252,1.51118,0.009378084,-0.2209638,1.624725,0.00489955,-0.5205855,1.606935,-0.1477899,-0.0576396,1.59981,-0.07000367,-0.5095791,1.575498,-0.2019022,-0.2997989,1.585416,0.2098963,-0.2990628,1.574943,NA,NA,NotTracked,NotTracked,
0.9404297,0.1826172,-0.1513672,0.9311523,-0.3457031,-0.06152344,0,0,-3,-1,0,-2,-2,-1,-1,-1,-3,-2,-1,-1,0,-3,-0.3125,-0.3125,-0.3125,-0.625,-0.625,-0.625,8.584092,2.882219,0.3795369,2.197294,3.06699,3.723747,-0.1978218,-0.5453373,1.525477,0.2067901,-0.551051,1.522194,0.004335816,0.1994501,1.628695,-0.1480647,-0.5185145,1.522127,0.2531766,-0.5575442,1.519,0.009382964,-0.2209831,1.624885,0.004906983,-0.5205892,1.607136,-0.1480706,-0.05765747,1.60124,-0.06998245,-0.5095935,1.575736,-0.2019437,-0.2997589,1.585654,0.2097164,-0.2998025,1.57511,NA,NA,NotTracked,NotTracked,
