ALX,ALY,ALZ,ARX,ARY,ARZ,EMG0L,EMG1L,EMG2L,EMG3L,EMG4L,EMG5L,EMG6L,EMG7L,EMG0R,EMG1R,EMG2R,EMG3R,EMG4R,EMG5R,EMG6R,EMG7R,GLX,GLY,GLZ,GRX,GRY,GRZ,ORL,OPL,OYL,ORR,OPR,OYR,LHNX,LHNY,LHNZ,RHNX,RHNY,RHNZ,HX,HY,HZ,LTX,LTY,LTZ,RTX,RTY,RTZ,SpineMidX,SpineMidY,SpineMidZ,SpineBaseX,SpineBaseY,SpineBaseZ,ShoulderLeftX,ShoulderLeftY,ShoulderLeftZ,ShoulderRightX,ShoulderRightY,ShoulderRightZ,ElbowLeftX,ElbowLeftY,ElbowLeftZ,ElbowRightX,ElbowRightY,ElbowRightZ,Myo_Pose_left,Myo_Pose_Right,Kinect_pose_left,Kinect_pose_right
0.9448242,0.09619141,-0.1826172,0.949707,-0.2983398,-0.07275391,-1,-1,0,-1,-2,0,-2,-2,1,-3,-1,-2,-1,-1,0,-1,-1.5625,-1.5625,-1.5625,-0.25,-0.25,-0.25,9.258399,2.850114,7.176601,2.088088,3.007173,3.132512,-0.2011008,-0.5524902,1.57146,0.2253128,-0.5568414,1.568842,0.01241015,0.1977123,1.646105,-0.15396,-0.5251052,1.549953,0.1757222,-0.5144131,1.542664,0.009141832,-0.2178322,1.641103,0.004495982,-0.5151599,1.623556,-0.1423241,-0.05602664,1.629606,-0.07046366,-0.5037144,1.59497,-0.2036184,-0.2972353,1.627359,0.2263176,-0.2968046,1.607124,NA,NA,NotTracked,NotTracked,
0.9482422,0.09619141,-0.1811523,0.9438477,-0.2939453,-0.078125,-1,-2,-2,-2,-2,-2,0,1,0,-1,0,-2,-2,-1,-1,-1,-1.875,-1.875,-1.875,-1.125,-1.125,-1.125,9.255924,2.847893,7.176051,2.084812,3.007688,3.134418,-0.201431,-0.5514404,1.570998,0.2252612,-0.5575939,1.56934,0.0123016,0.1977111,1.646205,-0.15399,-0.5173667,1.548867,0.1758412,-0.5207666,1.54418,0.008997374,-0.2179529,1.640681,0.004536183,-0.5151489,1.623566,-0.1423495,-0.05603275,1.62962,-0.07041901,-0.5037085,1.594965,-0.2035843,-0.2971796,1.627378,0.2262196,-0.2969966,1.607247,NA,NA,NotTracked,NotTracked,
0.9472656,0.09326172,-0.1860352,0.949707,-0.3022461,-0.07568359,0,-2,-2,-1,-1,-2,-1,1,-3,-2,-2,-1,-1,0,-1,-1,-1.125,-1.125,-1.125,0.25,0.25,0.25,9.256148,2.846059,7.173905,2.084821,3.007233,3.133626,-0.2013941,-0.5520435,1.573104,0.2253727,-0.5577431,1.570816,0.01217925,0.1976584,1.646261,-0.1537523,-0.521533,1.550335,0.1756133,-0.525685,1.545497,0.008951913,-0.2178693,1.641324,0.004560199,-0.5151384,1.623641,-0.1423786,-0.05601378,1.629666,-0.07039157,-0.5037258,1.595023,-0.2036204,-0.2972089,1.627424,0.2261689,-0.296995,1.60739,NA,NA,NotTracked,NotTracked,
0.9477539,0.09570313,-0.1845703,0.9501953,-0.3041992,-0.07568359,-1,0,-2,-2,-1,-1,0,0,0,0,0,-2,-2,-2,-2,-1,-2.1875,-2.1875,-2.1875,2.25,2.25,2.25,9.250198,2.845623,7.174101,2.086621,3.007884,3.134301,-0.2013482,-0.5517582,1.572623,0.2248999,-0.5574642,1.570655,0.01212915,0.1976689,1.646229,-0.1538078,-0.5212854,1.549628,0.1760399,-0.5163577,1.544742,0.009068741,-0.2178422,1.641593,0.004618823,-0.5151382,1.623672,-0.1423874,-0.05600383,1.629675,-0.07031601,-0.5037374,1.595078,-0.2036766,-0.2971083,1.627442,0.226103,-0.296889,1.607416,NA,NA,NotTracked,NotTracked,
0.9472656,0.09326172,-0.1821289,0.9487305,-0.3017578,-0.07714844,-1,0,-1,-1,0,0,1,0,-1,-2,-1,1,0,-2,-1,-1,-1.625,-1.625,-1.625,1.3125,1.3125,1.3125,9.248787,2.845814,7.173418,2.091303,3.008941,3.135109,-0.2018016,-0.551536,1.573101,0.2252111,-0.557543,1.570698,0.01208645,0.1976508,1.646249,-0.1537723,-0.5194696,1.549559,0.175694,-0.5228488,1.545164,0.009021132,-0.2179371,1.641284,0.004667255,-0.5151688,1.623765,-0.1424318,-0.05603837,1.629738,-0.07027474,-0.5038012,1.595177,-0.2037168,-0.2971323,1.627507,0.2260455,-0.2968869,1.60754,NA,NA,NotTracked,NotTracked,
0.9511719,0.09521484,-0.1801758,0.9501953,-0.2993164,-0.08154297,0,0,-2,-2,0,0,0,0,-1,-1,-1,-2,-2,-3,-2,-2,-0.5625,-0.5625,-0.5625,-0.8125,-0.8125,-0.8125,9.246903,2.846012,7.17419,2.091152,3.008809,3.135509,-0.2017512,-0.55211,1.573541,0.2251054,-0.558362,1.571289,0.01198149,0.1977171,1.646299,-0.1538423,-0.5230911,1.549921,0.1760982,-0.5156188,1.544018,0.00886783,-0.2180039,1.641087,0.004587911,-0.5152009,1.623824,-0.1424866,-0.05607256,1.629812,-0.07036379,-0.5038204,1.595247,-0.2037925,-0.2971717,1.62772,0.2259724,-0.2968175,1.607654,NA,NA,NotTracked,NotTracked,
0.9453125,0.09130859,-0.184082,0.9458008,-0.3041992,-0.07568359,1,-2,-1,-1,-1,-1,-1,0,-2,-1,-1,-1,-3,-1,0,-2,-0.1875,-0.1875,-0.1875,-0.9375,-0.9375,-0.9375,9.247157,2.845069,7.175077,2.089865,3.008409,3.133968,-0.2016868,-0.5527197,1.573549,0.2249665,-0.5579943,1.571062,0.01196281,0.1977215,1.646322,-0.1539815,-0.518417,1.549916,0.1758955,-0.5197166,1.544918,0.008824104,-0.2180385,1.640971,0.004590203,-0.5152401,1.623881,-0.1425077,-0.05606213,1.62987,-0.07036223,-0.5038714,1.595331,-0.2037511,-0.297156,1.627765,0.2258849,-0.2967211,1.607807,NA,NA,NotTracked,NotTracked,
0.949707,0.09765625,-0.1757813,0.9438477,-0.3041992,-0.08056641,0,0,1,-1,-2,-1,-1,0,-3,-3,-3,-1,0,-1,0,-2,-1.5,-1.5,-1.5,0.5,0.5,0.5,9.243359,2.844151,7.177031,2.089865,3.008409,3.133968,-0.2015187,-0.5515811,1.572508,0.2249472,-0.5576303,1.570269,0.01191112,0.1976782,1.646401,-0.1536821,-0.5167723,1.549162,0.1761323,-0.5149173,1.545628,0.008640503,-0.2181878,1.640859,0.004455823,-0.515383,1.624076,-0.1425108,-0.05607013,1.629875,-0.07052337,-0.5039493,1.595472,-0.2037408,-0.2969395,1.627837,0.2258579,-0.2967208,1.607959,NA,NA,NotTracked,NotTracked,
0.9648438,0.1040039,-0.1899414,0.9482422,-0.3085938,-0.07714844,11,14,16,8,3,3,2,2,1,-1,-2,1,-1,-2,-1,-1,-2.5,-2.5,-2.5,1.6875,1.6875,1.6875,9.234449,2.844235,7.1821,2.092018,3.009701,3.134707,-0.2018283,-0.5526621,1.574866,0.2248755,-0.5576949,1.571602,0.0119461,0.1976794,1.646488,-0.1539674,-0.5225175,1.550468,0.1760629,-0.517345,1.546308,0.008529125,-0.2182547,1.64081,0.004326406,-0.5154621,1.624283,-0.1425762,-0.05605312,1.630045,-0.07062864,-0.5039618,1.595603,-0.2039945,-0.2972739,1.628176,0.2258669,-0.2967369,1.608233,NA,NA,NotTracked,NotTracked,
1.175781,0.3007813,-0.2651367,0.9589844,-0.3173828,-0.08154297,-24,-17,24,9,1,-1,-7,-14,-1,-1,-1,-1,-3,0,-1,-1,-62.4375,-62.4375,-62.4375,2.5,2.5,2.5,8.951392,2.868492,7.416759,2.086727,3.01477,3.144081,-0.2016128,-0.5527914,1.57335,0.2176171,-0.5479976,1.555732,0.01202754,0.1976407,1.646648,-0.1537842,-0.5196623,1.550027,0.1713718,-0.5247594,1.539273,0.008461508,-0.2183094,1.641119,0.00422025,-0.5155458,1.62436,-0.1426693,-0.05608416,1.630159,-0.07072031,-0.5039891,1.595654,-0.2040959,-0.2973184,1.628329,0.2262528,-0.296028,1.610548,NA,NA,NotTracked,NotTracked,
1.433105,0.5644531,0.1210938,0.9291992,-0.2993164,-0.08496094,-11,-11,-27,-15,-6,-3,1,-1,-1,0,0,-2,-2,0,-1,-2,-173.5625,-173.5625,-173.5625,18.4375,18.4375,18.4375,7.299154,3.056161,8.748885,2.101492,3.027175,3.158861,-0.2017585,-0.5519582,1.571598,0.197066,-0.5044348,1.496987,0.01201577,0.1976645,1.6467,-0.1643081,-0.5287589,1.564548,0.1665709,-0.5383846,1.51,0.007898037,-0.2179927,1.640735,0.002424056,-0.5146715,1.623872,-0.1427203,-0.05597677,1.630278,-0.07265469,-0.5027815,1.595225,-0.204,-0.2970191,1.628405,0.2289925,-0.2839434,1.624849,NA,NA,NotTracked,NotTracked,
1.029785,0.9204102,0.3847656,0.9414063,-0.324707,-0.0546875,-4,-15,-21,8,-2,0,-2,-8,-1,-3,-1,-2,-1,-2,-3,-2,-12.25,-12.25,-12.25,0.25,0.25,0.25,6.796873,3.576208,9.224397,2.115468,3.02878,3.156698,-0.2019853,-0.5515102,1.571164,0.1654975,-0.3985845,1.451989,0.01214787,0.1977215,1.646821,-0.1623764,-0.532311,1.561174,0.1375623,-0.4379158,1.491846,0.00694291,-0.2173785,1.640724,-0.001151639,-0.5131293,1.623037,-0.1426687,-0.05585321,1.630317,-0.0763544,-0.5009686,1.594336,-0.2034594,-0.2958914,1.628854,0.2177042,-0.2984383,1.624879,NA,NA,NotTracked,Unknown,
0.5664063,0.9287109,0.5073242,0.9467773,-0.3173828,-0.07470703,14,6,21,10,-5,-5,-7,-2,-1,-1,-1,-1,-1,-1,-1,0,-15.375,-15.375,-15.375,-7.75,-7.75,-7.75,6.71271,4.260902,9.329656,2.112586,3.022248,3.14924,-0.2019837,-0.5521313,1.571731,0.1676018,-0.2383428,1.36801,0.01266841,0.1978064,1.64706,-0.1546981,-0.5245903,1.55021,0.1390239,-0.2250503,1.363409,0.006740599,-0.2171511,1.640741,-0.002277993,-0.512649,1.623313,-0.1426143,-0.05592274,1.630344,-0.07751636,-0.5005537,1.594496,-0.2034976,-0.2957599,1.628783,0.2623559,-0.241055,1.608927,NA,NA,NotTracked,Unknown,
0.1308594,0.6708984,0.4433594,0.9594727,-0.3095703,-0.08349609,-5,16,24,14,-6,-8,-4,3,1,-1,-1,0,-2,0,-1,-1,24.5625,24.5625,24.5625,-7.125,-7.125,-7.125,6.708398,5.01207,9.403926,2.1193,3.030206,3.122221,-0.2019432,-0.5513702,1.569649,0.1614699,-0.07993717,1.403458,0.01469356,0.1975555,1.647814,-0.1541142,-0.5233788,1.547895,0.1334422,-0.04306318,1.4518,0.00668289,-0.2170023,1.64101,-0.003369157,-0.5123871,1.623423,-0.1425352,-0.05604417,1.630444,-0.07856217,-0.5004888,1.594745,-0.20383,-0.2957275,1.628368,0.2691492,-0.2398287,1.566227,NA,NA,NotTracked,Closed,
-0.3911133,0.559082,0.4321289,0.9438477,-0.3139648,-0.07519531,-5,-5,-2,0,-4,5,1,-12,-1,-1,0,0,-2,-1,-1,-1,67.5,67.5,67.5,-8.75,-8.75,-8.75,6.892698,5.973888,9.499722,2.140178,3.050294,3.086729,-0.2011953,-0.5509606,1.566848,0.1556406,0.02554545,1.461787,0.01586448,0.1978936,1.648347,-0.1537371,-0.5448345,1.548125,0.1133293,0.04044785,1.5388,0.006844135,-0.2165522,1.642056,-0.004777182,-0.5123341,1.623491,-0.1422543,-0.05584222,1.630788,-0.08053745,-0.5001003,1.595403,-0.2041608,-0.2957846,1.62811,0.2695115,-0.2198244,1.51869,NA,NA,NotTracked,Unknown,
-0.4042969,0.5292969,0.2958984,0.9345703,-0.3037109,-0.07910156,3,-3,-5,-3,-1,-1,-3,-17,-2,-2,-2,-1,0,0,-2,-1,20.125,20.125,20.125,-5.875,-5.875,-5.875,7.012215,6.33435,9.633193,2.154931,3.068724,3.05703,-0.2002783,-0.5491813,1.561786,0.1491238,0.06592953,1.510721,0.01679216,0.1983183,1.648493,-0.153603,-0.5124809,1.545769,0.1145874,0.03052413,1.558386,0.007987311,-0.2153753,1.642516,-0.00570609,-0.5104539,1.622879,-0.1417942,-0.0554346,1.631222,-0.08166508,-0.4983746,1.595283,-0.2047054,-0.2954119,1.627873,0.2794708,-0.1876895,1.479078,NA,NA,NotTracked,Unknown,
-0.5053711,0.3945313,0.1381836,0.9331055,-0.3222656,-0.07714844,43,14,7,3,4,7,7,40,0,-1,-2,-2,0,-2,0,0,18.125,18.125,18.125,17.5,17.5,17.5,7.30612,6.694819,9.956877,2.180063,3.07808,3.045848,-0.200848,-0.5486912,1.561892,0.1328914,0.09811945,1.541559,0.01899592,0.1983154,1.649193,-0.1537868,-0.5199059,1.546524,0.1208614,0.03111519,1.570957,0.007992216,-0.2151013,1.643193,-0.006462626,-0.5098981,1.622411,-0.1412379,-0.05507326,1.631845,-0.08253346,-0.4976831,1.595466,-0.2050624,-0.2952116,1.627977,0.2870407,-0.1394405,1.442645,NA,NA,NotTracked,NotTracked,
-0.621582,0.2875977,-0.02636719,0.934082,-0.3334961,-0.06396484,-16,-6,-4,-3,-3,0,3,-9,-1,-1,-1,0,-1,-1,-1,0,-7.3125,-7.3125,-7.3125,27.4375,27.4375,27.4375,7.780474,6.874046,0.4877909,2.215461,3.071602,3.067279,-0.2005182,-0.5502145,1.563464,0.0971062,0.1614911,1.556,0.02126275,0.1982201,1.650055,-0.1537881,-0.5166955,1.546649,0.1600459,0.1597735,1.603311,0.007808628,-0.2150295,1.643663,-0.007968402,-0.5096489,1.62199,-0.1407468,-0.05471371,1.632415,-0.08422981,-0.4973736,1.596077,-0.2053037,-0.2952239,1.628244,0.2885627,-0.1282401,1.434629,NA,NA,NotTracked,NotTracked,
-0.6323242,0.3032227,-0.08007813,0.9311523,-0.3569336,-0.05371094,9,4,0,-2,-4,-1,-2,2,-2,-1,1,-3,-1,0,-3,0,-33.3125,-33.3125,-33.3125,22.625,22.625,22.625,7.721341,6.852649,0.4695067,2.227704,3.05665,3.099096,-0.2008431,-0.5503809,1.568136,0.0975904,0.1557899,1.553459,0.02217729,0.1982306,1.650566,-0.1536142,-0.5146784,1.547538,0.1503387,0.1454841,1.595625,0.007484924,-0.2150725,1.644122,-0.009361884,-0.5098006,1.621856,-0.1404613,-0.05447721,1.632949,-0.0857054,-0.4972416,1.59691,-0.205582,-0.2951851,1.628972,0.295331,-0.129062,1.430215,NA,NA,NotTracked,NotTracked,
-0.5976563,0.3398438,0.03076172,0.9575195,-0.3452148,-0.06103516,-1,1,-3,-3,-4,-1,0,0,0,-1,-2,-2,0,0,1,-1,-44.125,-44.125,-44.125,11.4375,11.4375,11.4375,7.385044,6.761439,0.1709151,2.221563,3.039698,3.142646,-0.2011741,-0.5517113,1.573071,0.1124889,0.1273485,1.52665,0.02259851,0.198572,1.651186,-0.1543312,-0.524588,1.54808,0.0969171,0.07326292,1.569615,0.006945624,-0.2150472,1.644703,-0.01051887,-0.5098809,1.621839,-0.140209,-0.05410929,1.633562,-0.08692959,-0.497266,1.597512,-0.206164,-0.294488,1.63102,0.2824799,-0.192258,1.466726,NA,NA,NotTracked,NotTracked,
-0.6289063,0.5107422,0.2084961,0.9746094,-0.3520508,-0.08837891,22,13,4,1,1,2,-1,8,0,1,-2,3,2,2,4,2,-34.6875,-34.6875,-34.6875,12.375,12.375,12.375,6.947805,6.344328,9.763589,2.212681,3.046915,3.171965,-0.2017906,-0.5520961,1.574321,0.1370103,0.01900893,1.446952,0.02281265,0.1990746,1.651859,-0.1541888,-0.5247816,1.548113,0.1223648,-0.008457613,1.529182,0.006569657,-0.2151897,1.645138,-0.01103631,-0.5105175,1.621767,-0.1401049,-0.05391186,1.63401,-0.08737729,-0.4978549,1.597771,-0.2063304,-0.2947224,1.63209,0.2324269,-0.2406818,1.496778,NA,NA,NotTracked,Unknown,
-0.690918,0.8588867,0.5507813,1.182617,-0.4868164,-0.08251953,-11,-24,-11,4,4,0,0,-11,3,2,1,0,0,-3,2,-16,-32.125,-32.125,-32.125,71.625,71.625,71.625,6.782077,5.889293,9.573866,2.28768,3.165292,3.175253,-0.2012924,-0.5506831,1.569346,0.1395058,-0.05306155,1.410758,0.02375198,0.1993039,1.652806,-0.1540241,-0.5161861,1.550267,0.108756,-0.03242793,1.493286,0.006869652,-0.2155161,1.64583,-0.01073919,-0.51165,1.622078,-0.1403639,-0.05430717,1.634513,-0.08683028,-0.4993989,1.598201,-0.2066148,-0.2938945,1.634519,0.2553921,-0.2447458,1.532047,NA,NA,NotTracked,Closed,
-0.5039063,1.183594,0.6943359,1.428711,-1.033691,0.2910156,-16,-1,9,0,-1,0,-2,3,-3,-1,-3,-11,-6,8,2,-5,-53.6875,-53.6875,-53.6875,111.75,111.75,111.75,6.704284,5.643183,9.532388,2.702911,3.473415,2.873668,-0.205858,-0.5261563,1.533369,0.1416251,-0.07715594,1.410452,0.02459432,0.1991276,1.653146,-0.1621724,-0.5073612,1.559564,0.1138216,-0.07938195,1.506667,0.007735446,-0.2155811,1.646315,-0.008617339,-0.5119833,1.622458,-0.140362,-0.05444451,1.634652,-0.0845364,-0.4998203,1.597924,-0.207718,-0.2930414,1.64405,0.2568166,-0.2443635,1.542325,NA,NA,NotTracked,Closed,
-0.4799805,1.320313,0.7255859,0.7890625,-1.08252,0.4428711,-15,-4,0,-2,-4,-4,-7,-14,-9,-7,-7,-8,-8,-29,-44,-16,-44.125,-44.125,-44.125,75.5,75.5,75.5,6.675241,5.571252,9.518176,3.052246,4.157249,2.644322,-0.2077124,-0.4434469,1.493378,0.149048,-0.07215109,1.436701,0.02468716,0.1992411,1.652922,-0.2161453,-0.4010393,1.4699,0.1072267,-0.05538467,1.521143,0.008567496,-0.2151629,1.646162,-0.005248984,-0.5106522,1.621538,-0.1401892,-0.05395087,1.63496,-0.08105864,-0.4988565,1.595702,-0.2045928,-0.2724698,1.664405,0.2513463,-0.2496121,1.562223,NA,NA,Unknown,Closed,
-0.5742188,1.003418,0.4726563,0.2104492,-0.6435547,0.2724609,-19,-11,5,3,-2,-6,-1,-4,-6,-5,-3,-5,3,8,1,-5,-14.625,-14.625,-14.625,86.125,86.125,86.125,6.582561,5.550602,9.456628,3.221392,4.771989,2.560504,-0.2195838,-0.3021267,1.437215,0.1533545,-0.06243268,1.470681,0.02454298,0.1995367,1.652577,-0.193415,-0.2759808,1.414667,0.1126503,-0.03307452,1.45525,0.01168558,-0.213747,1.644892,-0.002013876,-0.5090938,1.620717,-0.1399027,-0.05324011,1.635229,-0.07817822,-0.4976684,1.594185,-0.201346,-0.2480986,1.669756,0.2511291,-0.2510218,1.57756,NA,NA,Unknown,Unknown,
-0.4404297,0.8764648,0.4394531,-0.07324219,-0.07861328,0.01806641,-7,-15,-11,-6,-3,-2,-2,-6,-3,3,-1,-2,2,3,-11,-8,20.5,20.5,20.5,-18.1875,-18.1875,-18.1875,6.597747,5.600258,9.435313,3.246976,5.301517,2.496871,-0.2000571,-0.1830887,1.460373,0.1525861,-0.05328565,1.479621,0.02388427,0.200377,1.651341,-0.2042486,-0.2311128,1.463875,0.1130212,-0.03501706,1.490941,0.01358556,-0.212742,1.643743,0.0006763073,-0.5081664,1.620009,-0.1393534,-0.05125365,1.634869,-0.0755825,-0.4969351,1.592823,-0.1922556,-0.267887,1.597852,0.253581,-0.247542,1.575766,NA,NA,Unknown,Unknown,
-0.4516602,0.5244141,0.3706055,-0.2412109,-0.3212891,0.02392578,-34,-7,-1,-2,-1,-6,4,0,2,2,1,0,4,23,14,7,-2.4375,-2.4375,-2.4375,12.6875,12.6875,12.6875,6.677902,5.74161,9.524268,3.162404,5.579947,2.384149,-0.1857591,-0.1234753,1.461576,0.1500212,-0.07214989,1.471219,0.02319054,0.2007701,1.650618,-0.2159434,-0.1347267,1.409978,0.1127357,-0.05173431,1.454455,0.01405939,-0.212558,1.643449,0.003226416,-0.5076482,1.619673,-0.1379535,-0.0487546,1.63272,-0.07341592,-0.4967006,1.592194,-0.2004203,-0.2540654,1.590959,0.2535879,-0.2471303,1.581452,NA,NA,Unknown,Unknown,
-0.4731445,0.3793945,0.2275391,-0.2246094,-0.3500977,0.07373047,1,7,3,0,-1,2,3,10,-4,-4,-2,2,5,7,3,4,-27.375,-27.375,-27.375,26.25,26.25,26.25,6.622251,5.514684,9.515929,3.194856,5.378275,2.356343,-0.1817215,-0.1408863,1.439538,0.1522143,-0.1458666,1.44475,0.02310342,0.2008194,1.65045,-0.2179213,-0.1508474,1.4076,0.1078358,-0.1259522,1.467667,0.01439103,-0.2121504,1.643073,0.004572365,-0.5072055,1.619248,-0.1373745,-0.04900448,1.63133,-0.07182916,-0.4963304,1.590991,-0.2002075,-0.2528204,1.580751,0.2505236,-0.244277,1.558882,NA,NA,Open,Open,
0.2929688,0.746582,0.5068359,0.4643555,-0.8085938,0.3852539,-22,-3,-7,-4,-7,-8,-2,8,-2,1,0,1,9,0,-19,-8,11.1875,11.1875,11.1875,-29.6875,-29.6875,-29.6875,6.603693,4.843354,9.378105,3.175374,4.747917,2.380907,-0.1857618,-0.2328769,1.410323,0.1510797,-0.2446523,1.421961,0.02306253,0.2008187,1.650462,-0.2193423,-0.2489788,1.399059,0.1290159,-0.2202706,1.365529,0.01460001,-0.2117472,1.642907,0.005371449,-0.5067109,1.618792,-0.1373571,-0.04898914,1.631319,-0.07085505,-0.4957782,1.58991,-0.1876495,-0.2540946,1.608531,0.2803945,-0.2415959,1.580173,NA,NA,Unknown,Unknown,
0.6743164,0.9985352,0.6352539,0.746582,-1.111328,0.4863281,-17,1,1,-2,-3,-4,-6,-6,2,0,-2,-1,-4,-8,-5,-5,16,16,16,22.4375,22.4375,22.4375,6.628922,4.4324,9.298308,3.176596,4.305869,2.373808,-0.1912359,-0.329643,1.386434,0.1977492,-0.3222501,1.343835,0.0230209,0.2009568,1.651037,-0.2225439,-0.360986,1.361778,0.1390834,-0.3125313,1.349778,0.01459525,-0.2116373,1.642821,0.005875666,-0.5066266,1.618546,-0.1378602,-0.05041802,1.631353,-0.07020196,-0.4957627,1.589249,-0.1947777,-0.2537562,1.610026,0.233324,-0.252547,1.5999,NA,NA,Open,Lasso,
0.6904297,1.042969,0.6181641,0.9794922,-1.293457,0.6601563,2,-7,-4,-4,-3,-4,-3,-8,0,1,1,3,-4,-9,-4,0,-46.8125,-46.8125,-46.8125,11.375,11.375,11.375,6.587902,4.123546,9.272963,3.16714,4.063471,2.366163,-0.1878358,-0.3947699,1.392796,0.1640839,-0.5111635,1.392765,0.02292105,0.2009289,1.651388,-0.2235854,-0.4483535,1.37375,0.1330119,-0.4833163,1.367514,0.01470043,-0.2114241,1.642456,0.006608445,-0.5061666,1.617715,-0.1381415,-0.05231787,1.631025,-0.06932648,-0.4953565,1.587909,-0.1951291,-0.2556439,1.612032,0.1690227,-0.2717852,1.54729,NA,NA,Unknown,Unknown,
0.6542969,0.9023438,0.5063477,0.4956055,-0.9902344,0.3227539,-4,3,4,5,3,3,2,-1,1,-1,-3,-3,-3,-1,1,-3,-28.3125,-28.3125,-28.3125,7.6875,7.6875,7.6875,6.547849,3.971731,9.261786,3.195284,4.083322,2.376329,-0.2027393,-0.4295117,1.377461,0.1533963,-0.5099978,1.393935,0.02281841,0.2011685,1.651547,-0.2123903,-0.4613493,1.396143,0.1238915,-0.4823116,1.368486,0.01491388,-0.2110392,1.641989,0.006637055,-0.5058942,1.617283,-0.1378704,-0.05201257,1.63051,-0.06931865,-0.4950896,1.587217,-0.1758332,-0.3115542,1.593031,0.1683178,-0.2704508,1.547579,NA,NA,Unknown,Unknown,
0.4692383,0.7182617,0.4428711,0.3618164,-0.902832,0.3979492,-4,0,-1,1,-2,-2,-1,-11,1,2,-2,-1,-1,1,3,2,5.875,5.875,5.875,0,0,0,6.550765,4.009503,9.255156,3.167278,4.185676,2.385503,-0.1789428,-0.3918809,1.408472,0.1798731,-0.508414,1.394109,0.02217534,0.2015894,1.651136,-0.2108635,-0.422886,1.381773,0.1657952,-0.4881425,1.34694,0.01515287,-0.2103621,1.641294,0.007370284,-0.5047108,1.616735,-0.1365452,-0.04830019,1.628719,-0.06857152,-0.4938945,1.586373,-0.1937367,-0.2609066,1.628523,0.1675171,-0.269006,1.548057,NA,NA,Unknown,Unknown,
0.4438477,0.6577148,0.3852539,0.4052734,-0.6000977,0.2539063,-6,0,-6,-2,-1,-1,-3,-11,1,0,-1,0,1,3,3,0,10.0625,10.0625,10.0625,10.875,10.875,10.875,6.568839,4.0416,9.254928,3.173326,4.215752,2.402234,-0.1839166,-0.379977,1.403982,0.1770743,-0.5097087,1.397037,0.0214323,0.2019713,1.650547,-0.2139421,-0.4089301,1.380294,0.1646341,-0.4886864,1.348173,0.01510178,-0.2102304,1.641214,0.007764596,-0.5042064,1.616194,-0.1369236,-0.04831139,1.628699,-0.06822377,-0.4935696,1.585742,-0.19508,-0.2594655,1.628826,0.1671291,-0.2684195,1.54802,NA,NA,Lasso,Unknown,
0.4692383,0.5874023,0.3339844,0.4902344,-0.5830078,0.215332,7,0,4,1,1,1,1,-2,1,0,-1,-1,1,5,3,3,18.75,18.75,18.75,-10.125,-10.125,-10.125,6.608318,4.011536,9.237196,3.129799,4.153893,2.465384,-0.1928091,-0.3847701,1.399183,0.173438,-0.5120878,1.401423,0.020338,0.2022404,1.649797,-0.2221983,-0.3773814,1.389909,0.1594668,-0.4917989,1.354246,0.01465911,-0.2096282,1.639861,0.007734235,-0.5036623,1.615635,-0.1374089,-0.0474572,1.628091,-0.06837913,-0.4929911,1.585218,-0.1970194,-0.2579524,1.62681,0.1671453,-0.268139,1.547994,NA,NA,Unknown,Unknown,
0.4824219,0.4814453,0.2519531,0.628418,-0.5400391,0.1289063,3,17,1,-1,-2,-5,0,9,-12,-9,-2,-3,-6,-15,-28,-27,22.6875,22.6875,22.6875,-5.375,-5.375,-5.375,6.711902,3.838732,9.152704,3.011342,3.923365,2.649956,-0.2079319,-0.4158832,1.401886,0.1867403,-0.4206212,1.412378,0.01908926,0.2024018,1.649269,-0.2396319,-0.4259163,1.391667,0.1893403,-0.3893966,1.360909,0.0140829,-0.2097192,1.639249,0.007295117,-0.5039235,1.614971,-0.1384771,-0.04872035,1.628155,-0.0688792,-0.4932436,1.584454,-0.1987884,-0.2587484,1.624449,0.2309076,-0.2518799,1.601797,NA,NA,Lasso,Unknown,
0.7583008,0.425293,0.1762695,0.8808594,-0.5107422,0.08154297,-1,-1,1,-3,0,1,-3,-13,1,2,0,-1,-2,-2,7,5,56.75,56.75,56.75,-14.6875,-14.6875,-14.6875,6.897217,3.572877,8.99579,2.801566,3.636926,2.923809,-0.2193245,-0.4679444,1.439684,0.2138977,-0.4766104,1.417722,0.01818698,0.2024465,1.64915,-0.2402938,-0.4428025,1.416727,0.22009,-0.4631107,1.360638,0.01368457,-0.2101062,1.639282,0.007041043,-0.5047837,1.614661,-0.1394841,-0.05018331,1.628012,-0.06905167,-0.4938837,1.584132,-0.2039383,-0.265925,1.619464,0.230344,-0.2557302,1.598731,NA,NA,Lasso,Unknown,
0.9785156,0.4233398,0.08203125,1.276367,-0.3603516,0.05566406,-1,2,-1,0,-1,0,-2,-3,0,-1,-1,-1,-2,-2,-3,-2,44.5,44.5,44.5,-20.1875,-20.1875,-20.1875,7.287244,3.285771,8.639621,2.373398,3.317071,3.41243,-0.2315757,-0.5225419,1.490671,0.2325479,-0.5265294,1.469718,0.0172088,0.2025493,1.64905,-0.2639437,-0.5138422,1.46903,0.2689109,-0.5155283,1.460375,0.01350371,-0.2105867,1.639323,0.007332358,-0.506242,1.614494,-0.1398554,-0.05068188,1.62684,-0.06866635,-0.495136,1.584127,-0.2085931,-0.2780507,1.61291,0.2305292,-0.2727315,1.591852,NA,NA,Unknown,NotTracked,
1.284668,0.2548828,-0.1894531,1.149902,-0.3369141,-0.04931641,-4,-7,-14,-12,-5,-3,-1,-2,0,-1,-1,-2,-1,-2,0,-1,5.75,5.75,5.75,-50.5,-50.5,-50.5,8.152263,3.002043,7.734108,1.639237,3.126135,4.118143,-0.2326088,-0.5479853,1.565231,0.2485566,-0.5536977,1.530414,0.01651741,0.2024765,1.648906,-0.2738411,-0.5255013,1.5616,0.2865039,-0.53905,1.525278,0.0126471,-0.2113332,1.638308,0.006790251,-0.5074794,1.614408,-0.140429,-0.05188858,1.626467,-0.068993,-0.4963309,1.584294,-0.2107332,-0.285854,1.609738,0.230333,-0.2803715,1.590561,NA,NA,NotTracked,NotTracked,
1.056641,0.05273438,-0.2119141,0.9438477,-0.4287109,-0.2617188,0,0,-2,0,-2,-3,-1,-1,-1,-2,-1,-2,-1,-3,-1,-1,-20.25,-20.25,-20.25,-30.875,-30.875,-30.875,8.753763,2.934282,7.060142,1.544559,3.047366,4.145067,-0.2326254,-0.54295,1.614991,0.253016,-0.5537609,1.574194,0.01591875,0.2022964,1.648452,-0.274025,-0.5368931,1.606667,0.2930164,-0.5454224,1.575118,0.01195888,-0.2118006,1.638377,0.005815097,-0.5083103,1.614717,-0.1409402,-0.0525629,1.626115,-0.069741,-0.4969568,1.584781,-0.2119462,-0.2904072,1.615733,0.2299227,-0.2866982,1.593986,NA,NA,NotTracked,NotTracked,
1.018555,0.2036133,-0.1469727,0.925293,-0.3295898,-0.05566406,0,-1,-3,-1,0,-2,-1,-1,0,0,-2,1,-1,-3,-1,-2,55.0625,55.0625,55.0625,43,43,43,9.336594,2.897665,6.554789,1.546147,2.984333,4.214136,-0.2252285,-0.5603415,1.638008,0.2468693,-0.55506,1.599524,0.01496176,0.2018924,1.646688,-0.2618197,-0.545846,1.628885,0.2872942,-0.534915,1.598733,0.01104978,-0.2122529,1.638434,0.004400793,-0.5090302,1.615619,-0.1395386,-0.05011292,1.622381,-0.07097063,-0.4974975,1.585936,-0.2140339,-0.2954565,1.629537,0.2302264,-0.2940032,1.603688,NA,NA,NotTracked,NotTracked,
0.965332,0.3359375,-0.08349609,0.9360352,-0.3369141,-0.06152344,0,0,-2,-2,0,-2,0,-1,-2,-2,-1,0,0,-1,0,0,16.75,16.75,16.75,24.75,24.75,24.75,9.530981,2.874433,6.401529,1.678174,2.964846,4.149966,-0.2143749,-0.5671939,1.635453,0.2399345,-0.5561252,1.612333,0.01456119,0.201784,1.644695,-0.2440909,-0.5476986,1.616105,0.2772381,-0.5400733,1.60445,0.0104681,-0.2127929,1.638498,0.00381374,-0.5099751,1.616715,-0.1389948,-0.04918743,1.620326,-0.07148489,-0.4983471,1.587173,-0.2138765,-0.2969093,1.638092,0.2304475,-0.2976695,1.610971,NA,NA,NotTracked,NotTracked,
0.9550781,0.1586914,-0.2197266,0.9423828,-0.2387695,-0.1616211,-2,-1,-2,-1,-2,-1,1,-1,0,-1,-2,-1,0,-1,-2,0,25.9375,25.9375,25.9375,-83.6875,-83.6875,-83.6875,9.657615,2.833442,6.293325,1.787436,2.967353,3.956347,-0.2135432,-0.5638783,1.625161,0.2350246,-0.5543075,1.618736,0.01482966,0.2014094,1.642175,-0.2482921,-0.5331057,1.62325,0.2681154,-0.5484466,1.60944,0.009889212,-0.2132777,1.638454,0.003132541,-0.5106644,1.617512,-0.1381764,-0.04769092,1.618794,-0.0720719,-0.4989209,1.588101,-0.2129612,-0.2978153,1.642419,0.2295984,-0.2992024,1.613392,NA,NA,NotTracked,NotTracked,
0.9882813,0.004882813,-0.2685547,0.956543,-0.2910156,-0.1386719,-1,-1,0,1,2,9,2,0,-1,-2,0,-1,-2,-2,-2,-1,84.6875,84.6875,84.6875,-97.5625,-97.5625,-97.5625,9.754867,2.816522,6.306767,1.854963,2.986327,3.710245,-0.2151288,-0.5543401,1.609847,0.2314115,-0.5527744,1.611484,0.01504626,0.2008062,1.640362,-0.2581076,-0.5209132,1.633,0.2650039,-0.54308,1.600889,0.009085813,-0.2140939,1.638217,0.002340841,-0.5115813,1.617821,-0.1386517,-0.04871028,1.619602,-0.0727442,-0.499785,1.588801,-0.2127374,-0.3000505,1.643177,0.2291681,-0.2992707,1.613729,NA,NA,NotTracked,NotTracked,
0.9399414,0.04003906,-0.2216797,0.921875,-0.3779297,-0.05664063,0,-1,0,0,-1,-5,-3,-1,0,-1,0,-2,-1,-1,-2,-1,85.625,85.625,85.625,-49.75,-49.75,-49.75,9.656756,2.822474,6.612013,1.932109,3.054364,3.465739,-0.2167486,-0.5523377,1.594085,0.2318467,-0.55222,1.601743,0.01499012,0.2003748,1.639313,-0.2567535,-0.5336722,1.590715,0.2717548,-0.5404117,1.601687,0.008132807,-0.2150616,1.636198,0.001963354,-0.5121038,1.617914,-0.1391672,-0.04974464,1.620382,-0.07303917,-0.5002164,1.589051,-0.2125828,-0.3007667,1.642719,0.2287213,-0.2992348,1.613545,NA,NA,NotTracked,NotTracked,
0.9291992,0.0546875,-0.1811523,0.9672852,-0.2402344,-0.0703125,1,-3,-2,-2,-1,0,0,1,0,1,-2,-1,-1,0,0,-1,48.3125,48.3125,48.3125,2.25,2.25,2.25,9.500094,2.835164,6.87901,1.993612,3.088331,3.379051,-0.2159213,-0.5492781,1.581873,0.2332536,-0.5537952,1.592022,0.01499925,0.2001489,1.638648,-0.2567129,-0.5397566,1.565789,0.27286,-0.5441446,1.58415,0.007645142,-0.2160474,1.634743,0.001897775,-0.5126442,1.61782,-0.1394845,-0.05024597,1.620383,-0.07306867,-0.500671,1.589024,-0.2128175,-0.300997,1.640777,0.2282286,-0.2989936,1.612136,NA,NA,NotTracked,NotTracked,
0.9521484,-0.05371094,-0.1694336,0.9638672,-0.1762695,-0.1298828,-1,0,-2,-2,-2,-7,-5,-2,-1,-1,-3,0,-2,-2,-1,-1,13.6875,13.6875,13.6875,-27.625,-27.625,-27.625,9.417697,2.837794,7.011976,2.033402,3.080093,3.313017,-0.2120041,-0.5482409,1.570518,0.2323823,-0.5555889,1.58319,0.01508077,0.1997885,1.637872,-0.2532511,-0.5552365,1.549727,0.27251,-0.5482241,1.573852,0.007658782,-0.2164611,1.634961,0.002030319,-0.5134088,1.617496,-0.1401264,-0.05140443,1.621022,-0.07291602,-0.5014102,1.588789,-0.2120897,-0.3008673,1.636427,0.2277136,-0.2994753,1.609281,NA,NA,NotTracked,NotTracked,
0.9506836,-0.002929688,-0.1982422,0.965332,-0.2841797,-0.1396484,-2,-1,-1,1,0,1,0,-2,-2,-1,0,-2,-1,1,0,0,19.6875,19.6875,19.6875,-31.625,-31.625,-31.625,9.431969,2.833442,7.029294,2.042653,3.055991,3.201121,-0.206564,-0.5484969,1.565677,0.2296543,-0.5547006,1.580891,0.01511368,0.1992895,1.637552,-0.2463415,-0.5432933,1.542032,0.2707118,-0.5487483,1.572304,0.007482226,-0.2173456,1.633617,0.002055818,-0.5141196,1.61722,-0.1404991,-0.05206448,1.621544,-0.07282149,-0.5021209,1.588531,-0.2112711,-0.2997516,1.63227,0.2270554,-0.299729,1.607067,NA,NA,NotTracked,NotTracked,
0.9521484,0.04150391,-0.2211914,0.9472656,-0.2851563,-0.09814453,0,-1,0,-1,0,0,1,-1,0,0,0,-2,-3,-2,-1,-3,-2.1875,-2.1875,-2.1875,1.25,1.25,1.25,9.462902,2.827008,7.023193,2.036723,3.049047,3.193336,-0.2034994,-0.5491886,1.564422,0.2284297,-0.5538673,1.580267,0.01515601,0.1987952,1.637247,-0.2439786,-0.5311294,1.551325,0.268529,-0.549487,1.570618,0.007034846,-0.218204,1.631995,0.002085679,-0.5147909,1.616945,-0.1407491,-0.05324508,1.620676,-0.07276977,-0.5027931,1.58835,-0.2107364,-0.3001151,1.629814,0.2264119,-0.2998613,1.605651,NA,NA,NotTracked,NotTracked,
0.9438477,0.02783203,-0.206543,0.9345703,-0.2827148,-0.08691406,-3,-2,0,-2,0,0,-1,-1,-1,1,-1,-2,-2,0,0,-2,-17.75,-17.75,-17.75,17.875,17.875,17.875,9.465309,2.82818,6.998872,2.016998,3.040514,3.237828,-0.2042881,-0.5478704,1.568383,0.229207,-0.5541202,1.581069,0.01495101,0.1985914,1.637015,-0.2480228,-0.5330433,1.5642,0.2718436,-0.5478141,1.578985,0.006804647,-0.2187581,1.630725,0.002279096,-0.5152506,1.616589,-0.1409697,-0.05414655,1.619419,-0.07254524,-0.5032653,1.588066,-0.2105051,-0.2995459,1.628147,0.2260702,-0.300088,1.604655,NA,NA,NotTracked,NotTracked,
0.9550781,0.03027344,-0.1806641,0.9487305,-0.2895508,-0.09765625,1,0,-1,1,-4,2,2,-1,0,-1,0,-1,-1,-1,-1,-1,-19.5625,-19.5625,-19.5625,22.8125,22.8125,22.8125,9.474713,2.83088,6.955593,1.980441,3.023327,3.315993,-0.2059259,-0.5511561,1.572924,0.2297072,-0.5543071,1.582004,0.01491538,0.1984838,1.636924,-0.2499796,-0.5365797,1.570261,0.2708907,-0.5483056,1.576467,0.006812909,-0.2188778,1.631168,0.00233869,-0.5154113,1.616436,-0.1413605,-0.05442733,1.620125,-0.0724716,-0.5034333,1.587976,-0.2104421,-0.2992151,1.627705,0.2259841,-0.3000466,1.604428,NA,NA,NotTracked,NotTracked,
0.9521484,0.04150391,-0.1787109,0.9614258,-0.2763672,-0.09619141,-2,1,-1,0,0,2,1,-1,-2,-3,-2,0,0,-2,-2,0,-7.5625,-7.5625,-7.5625,10.875,10.875,10.875,9.490441,2.831952,6.918847,1.944514,3.008338,3.393272,-0.206761,-0.5513233,1.576401,0.2308707,-0.5552326,1.582529,0.01472753,0.1983809,1.636878,-0.2499615,-0.5299119,1.57208,0.2732835,-0.544693,1.577927,0.006658474,-0.2189147,1.631593,0.002399662,-0.5154861,1.616389,-0.1415416,-0.05457929,1.620582,-0.07239946,-0.5035688,1.587888,-0.2105082,-0.2990062,1.627391,0.2259494,-0.3000709,1.604382,NA,NA,NotTracked,NotTracked,
0.9482422,0.04882813,-0.1850586,0.9506836,-0.277832,-0.09130859,1,-1,-1,1,0,0,0,-2,0,-1,-2,0,0,-1,0,-1,4.5625,4.5625,4.5625,-3.6875,-3.6875,-3.6875,9.509654,2.829638,6.90351,1.945809,3.007056,3.394044,-0.2073783,-0.5520126,1.575862,0.2293289,-0.556664,1.581154,0.01470653,0.1983065,1.636767,-0.2505359,-0.5316625,1.569077,0.2701721,-0.5520109,1.571083,0.006660515,-0.2189019,1.632399,0.002277482,-0.5156246,1.616234,-0.1416163,-0.05452624,1.620855,-0.07250776,-0.5037203,1.587749,-0.2104011,-0.2993722,1.626888,0.2259614,-0.2999335,1.604126,NA,NA,NotTracked,NotTracked,
0.9511719,0.03808594,-0.1899414,0.9521484,-0.2739258,-0.1025391,0,0,0,0,2,2,0,-1,-2,-1,-2,-1,-2,-1,-1,-1,3.5,3.5,3.5,-17.5,-17.5,-17.5,9.529368,2.825825,6.891688,1.961091,3.006802,3.34611,-0.2067164,-0.551387,1.575058,0.2295099,-0.5566952,1.581602,0.01476518,0.1983017,1.636595,-0.2498514,-0.5305358,1.568236,0.2722696,-0.5474536,1.577543,0.006738911,-0.2186967,1.632985,0.002242162,-0.5156215,1.616133,-0.1417542,-0.05452548,1.620789,-0.07254096,-0.5037274,1.587667,-0.210359,-0.2993874,1.626537,0.2258598,-0.299603,1.603939,NA,NA,NotTracked,NotTracked,
0.9536133,0.03955078,-0.1914063,0.9467773,-0.2783203,-0.1069336,0,-2,0,0,-1,0,0,0,-2,0,0,0,0,-2,0,0,0.5,0.5,0.5,-13.375,-13.375,-13.375,9.546246,2.822252,6.875971,1.966281,3.007503,3.312368,-0.2058741,-0.5508859,1.573228,0.2291926,-0.5564266,1.582643,0.01467061,0.1983246,1.636427,-0.250862,-0.5316824,1.570994,0.2720957,-0.5476067,1.578147,0.006614681,-0.2187356,1.632032,0.002227754,-0.5156344,1.616105,-0.1418876,-0.0546257,1.621052,-0.07257748,-0.5037799,1.587553,-0.2103083,-0.2994187,1.626157,0.225782,-0.2994794,1.603909,NA,NA,NotTracked,NotTracked,
0.9458008,0.03564453,-0.1962891,0.9506836,-0.269043,-0.1035156,-1,-3,0,-1,2,-1,-2,-1,-1,-1,-1,-1,-1,-2,-1,0,-0.375,-0.375,-0.375,-5.5625,-5.5625,-5.5625,9.569518,2.821366,6.852811,1.961664,3.00678,3.303627,-0.205538,-0.5512679,1.570992,0.229072,-0.5563407,1.582572,0.01464742,0.1981923,1.636317,-0.2474717,-0.5398766,1.559438,0.2718981,-0.5466549,1.577378,0.006768302,-0.2186703,1.632844,0.002224642,-0.5156844,1.616093,-0.1419866,-0.05472264,1.6212,-0.07258839,-0.5038466,1.587504,-0.2100724,-0.2991184,1.625435,0.225741,-0.2995624,1.603841,NA,NA,NotTracked,NotTracked,
0.9482422,0.03369141,-0.1777344,0.9472656,-0.262207,-0.09912109,-1,-1,-1,0,-1,-1,0,-1,-1,-2,-1,-1,-2,-2,-2,-1,-0.6875,-0.6875,-0.6875,-0.0625,-0.0625,-0.0625,9.596474,2.821968,6.82526,1.9498,3.001241,3.312714,-0.2064249,-0.551074,1.572326,0.2288994,-0.5566632,1.584033,0.01461317,0.198209,1.636189,-0.2475238,-0.5421948,1.559476,0.271559,-0.5478945,1.576383,0.006848655,-0.2185498,1.633384,0.002211606,-0.5156988,1.616101,-0.1420367,-0.05482155,1.621252,-0.07261397,-0.5038583,1.587476,-0.2103454,-0.2980159,1.624905,0.2256534,-0.2995057,1.603822,NA,NA,NotTracked,NotTracked,
0.9560547,0.03222656,-0.1914063,0.956543,-0.2714844,-0.1035156,-2,0,-1,-2,-1,-3,-3,1,-1,-1,-2,-1,-1,-1,0,-2,-2.25,-2.25,-2.25,1.625,1.625,1.625,9.61759,2.820817,6.800593,1.937744,2.99031,3.328644,-0.2068419,-0.5518398,1.571952,0.2286059,-0.5563672,1.582562,0.01449525,0.1982339,1.635843,-0.2514436,-0.5335953,1.569561,0.2761981,-0.5543087,1.5898,0.006537615,-0.2186172,1.631825,0.002164938,-0.5157344,1.616077,-0.1421924,-0.05459276,1.61871,-0.07266749,-0.503889,1.587428,-0.2102884,-0.2979806,1.624441,0.2255755,-0.2995426,1.603796,NA,NA,NotTracked,NotTracked,
0.9506836,0.03222656,-0.1914063,0.9580078,-0.2719727,-0.1020508,-1,-1,1,-1,-3,-6,0,-2,0,-1,-1,-1,-3,-1,-2,-2,-5.625,-5.625,-5.625,0.9375,0.9375,0.9375,9.626056,2.818985,6.784297,1.931358,2.984481,3.337431,-0.2063609,-0.5513638,1.574305,0.228007,-0.556502,1.584878,0.01432424,0.1981602,1.635378,-0.2496773,-0.5357703,1.565026,0.2729765,-0.5494643,1.581371,0.006615095,-0.218535,1.632749,0.00211622,-0.5157962,1.616127,-0.1422808,-0.05450404,1.619148,-0.07270946,-0.5039605,1.587426,-0.2103465,-0.2980977,1.624184,0.2254096,-0.2994268,1.603857,NA,NA,NotTracked,NotTracked,
0.9453125,0.03564453,-0.1835938,0.9487305,-0.2709961,-0.1025391,0,0,-2,-2,-1,2,0,-1,1,-2,0,-1,-2,-1,-1,1,-5.5,-5.5,-5.5,-2.9375,-2.9375,-2.9375,9.63621,2.816736,6.765178,1.923762,2.981592,3.343649,-0.2075183,-0.5522489,1.57526,0.2279898,-0.5574177,1.585558,0.01418017,0.1980384,1.634972,-0.2551893,-0.5466735,1.576,0.2707042,-0.5495508,1.579312,0.006436342,-0.2185117,1.632406,0.002004377,-0.5157846,1.61622,-0.1423441,-0.05442782,1.619427,-0.0728129,-0.5039333,1.587481,-0.2103825,-0.2982153,1.623903,0.2252384,-0.2993512,1.603971,NA,NA,NotTracked,NotTracked,
0.9575195,0.03466797,-0.1782227,0.9541016,-0.265625,-0.09765625,0,-1,-2,1,-2,-3,-3,-1,-1,-3,-2,-1,0,-1,-1,0,-1.375,-1.375,-1.375,-3.8125,-3.8125,-3.8125,9.649855,2.814195,6.742887,1.920264,2.979976,3.340035,-0.2072636,-0.5520719,1.574024,0.2279512,-0.5575903,1.585187,0.01403306,0.1979809,1.634587,-0.2565502,-0.5218995,1.584571,0.2703474,-0.5482012,1.579805,0.006069588,-0.2187561,1.63119,0.001919772,-0.5158875,1.616331,-0.142469,-0.05450587,1.619584,-0.07291271,-0.5040089,1.587492,-0.2104604,-0.2984588,1.623765,0.2250809,-0.2993554,1.604065,NA,NA,NotTracked,NotTracked   ,
0.9506836,0.03710938,-0.1826172,0.9516602,-0.2607422,-0.1005859,1,2,-2,-1,1,0,-2,-1,-2,0,-1,-2,0,-1,0,-1,0.5625,0.5625,0.5625,-3,-3,-3,9.649855,2.814195,6.742887,1.925199,2.978343,3.329534,-0.2074945,-0.5521653,1.573322,0.2281172,-0.5560989,1.585945,0.01376979,0.1977801,1.633985,-0.2496796,-0.5368208,1.5625,0.2695319,-0.547725,1.579076,0.006127536,-0.2188516,1.63141,0.001938933,-0.515976,1.61645,-0.1425556,-0.05454427,1.619732,-0.07291523,-0.5040643,1.587497,-0.2103664,-0.2980337,1.623378,0.2248477,-0.2994333,1.60436,NA,NA,NotTracked,NotTracked,
0.9516602,0.03027344,-0.1845703,0.9536133,-0.2670898,-0.1000977,1,-2,1,-2,-1,-2,0,-1,0,-1,0,-2,-1,-2,-1,-2,2,2,2,-1.8125,-1.8125,-1.8125,9.660337,2.81256,6.733822,1.931026,2.976032,3.319317,-0.2074206,-0.5519594,1.573898,0.227822,-0.5581583,1.585588,0.01357792,0.1977285,1.633701,-0.2514367,-0.5338344,1.569264,0.270575,-0.5469398,1.580205,0.006139289,-0.2189078,1.632451,0.001865999,-0.5161212,1.616597,-0.1426232,-0.05456493,1.61988,-0.07302158,-0.5042472,1.587567,-0.2103732,-0.2981195,1.623224,0.2246643,-0.2994198,1.604524,NA,NA,NotTracked,NotTracked,
0.9609375,0.02978516,-0.1904297,0.9536133,-0.2607422,-0.1030273,-1,-1,-1,-3,-2,0,-2,-2,0,0,0,-1,-1,0,-1,0,2.125,2.125,2.125,0.6875,0.6875,0.6875,9.687614,2.813353,6.710443,1.930755,2.975906,3.319817,-0.2080089,-0.5511982,1.572538,0.2284765,-0.5582166,1.585,0.01343944,0.1976661,1.633303,-0.2516458,-0.5304915,1.567074,0.2708536,-0.5469942,1.579573,0.005917425,-0.2191869,1.63189,0.001837852,-0.5162585,1.616655,-0.1432483,-0.05516097,1.617795,-0.07307471,-0.5044123,1.587558,-0.2103923,-0.2977452,1.622771,0.2243465,-0.2992178,1.604523,NA,NA,NotTracked,NotTracked,
0.9536133,0.03222656,-0.1782227,0.9550781,-0.2626953,-0.09863281,0,0,-2,-1,-1,0,1,-1,1,0,0,-3,-1,-1,-1,0,-4.125,-4.125,-4.125,2.25,2.25,2.25,9.69173,2.816825,6.701293,1.931765,2.975186,3.321945,-0.2087722,-0.5520071,1.572891,0.2277435,-0.5578243,1.584415,0.01301061,0.1975951,1.632789,-0.2542642,-0.5256277,1.574925,0.2686158,-0.5485979,1.575853,0.005705176,-0.2193198,1.630877,0.001797844,-0.5162985,1.616756,-0.1432487,-0.05503199,1.618267,-0.07311945,-0.5044472,1.587635,-0.2104354,-0.2978124,1.622648,0.2241631,-0.2994533,1.60455,NA,NA,NotTracked,NotTracked,
0.9492188,0.03125,-0.1855469,0.9501953,-0.2651367,-0.09814453,1,-1,0,-2,0,-1,0,-2,-2,-1,-1,-1,-2,-1,-2,1,-1.5,-1.5,-1.5,2.875,2.875,2.875,9.684643,2.817373,6.704272,1.944099,2.975987,3.315053,-0.2088514,-0.5527308,1.572893,0.2281173,-0.557876,1.584085,0.01263482,0.1975227,1.632234,-0.2537996,-0.5269996,1.574611,0.2713258,-0.5483921,1.581857,0.005300987,-0.21934,1.630933,0.001633934,-0.5163732,1.616741,-0.1440217,-0.05562084,1.617024,-0.0733033,-0.5045775,1.587549,-0.2105499,-0.2978373,1.622396,0.2238449,-0.2995891,1.604497,NA,NA,NotTracked,NotTracked,
0.9541016,0.03125,-0.1899414,0.9609375,-0.2651367,-0.09814453,-1,-2,-1,-2,2,-3,-1,0,-3,-1,0,0,-1,-1,-2,-1,1.125,1.125,1.125,3.4375,3.4375,3.4375,9.680185,2.815382,6.710579,1.955804,2.976275,3.307916,-0.2087072,-0.5522491,1.571425,0.2274227,-0.5577282,1.582435,0.0122329,0.1973747,1.631646,-0.2494501,-0.5370806,1.561209,0.2688112,-0.5472329,1.575447,0.004980962,-0.2197546,1.629753,0.001449396,-0.516651,1.616571,-0.1442844,-0.05635164,1.614949,-0.07356616,-0.5048836,1.587275,-0.2105928,-0.2978694,1.621993,0.2235768,-0.2997008,1.604329,NA,NA,NotTracked,NotTracked,
0.9560547,0.02880859,-0.190918,0.953125,-0.2592773,-0.1025391,-1,-1,0,-1,-1,-3,-1,-1,-2,-2,-1,1,-1,-2,-1,-1,2.375,2.375,2.375,-1.125,-1.125,-1.125,9.67733,2.815542,6.717244,1.951157,2.974361,3.314348,-0.209316,-0.5520345,1.571859,0.2263576,-0.5579521,1.580868,0.01169555,0.1972519,1.631044,-0.2494856,-0.5451146,1.54997,0.2673193,-0.5473938,1.573127,0.004596994,-0.2199154,1.629069,0.001278051,-0.5167467,1.616468,-0.1444652,-0.05601813,1.615502,-0.07372243,-0.5049765,1.587157,-0.2110675,-0.2983895,1.621748,0.2232749,-0.2999333,1.604015,NA,NA,NotTracked,NotTracked,
0.9560547,0.01074219,-0.1875,0.9560547,-0.2788086,-0.08984375,-1,-2,-2,0,-2,-1,2,0,0,-1,1,-1,-2,-2,-1,-1,5.5,5.5,5.5,-1.0625,-1.0625,-1.0625,9.689548,2.81709,6.711709,1.939482,2.972791,3.323824,-0.2093988,-0.5527014,1.571594,0.2250704,-0.5574811,1.579733,0.01145119,0.1972276,1.630659,-0.2539599,-0.5317384,1.57052,0.2670245,-0.5513598,1.574062,0.004099776,-0.2200762,1.62834,0.001034245,-0.517061,1.616272,-0.1449434,-0.05634761,1.614101,-0.07395739,-0.5052678,1.58699,-0.2112493,-0.298546,1.621541,0.2229639,-0.3002867,1.603656,NA,NA,NotTracked,NotTracked,
0.9472656,0.03369141,-0.1855469,0.9482422,-0.2553711,-0.1010742,-2,-1,-2,-1,1,-1,1,1,-1,-1,-1,-1,-1,0,1,0,6.4375,6.4375,6.4375,1.25,1.25,1.25,9.721716,2.818707,6.696822,1.918911,2.969485,3.346977,-0.2103702,-0.5516579,1.572053,0.2255134,-0.556103,1.579822,0.0110534,0.1971216,1.630015,-0.252368,-0.5344058,1.563557,0.268919,-0.5512968,1.576275,0.003850206,-0.220281,1.627278,0.0008683684,-0.5172799,1.615978,-0.1453668,-0.05672918,1.612852,-0.07410471,-0.5054652,1.586772,-0.2116083,-0.2988613,1.621172,0.2225823,-0.3005159,1.602958,NA,NA,NotTracked,NotTracked,
0.9506836,0.02246094,-0.190918,0.9506836,-0.2675781,-0.09667969,-1,-1,0,2,0,0,-2,-1,-1,-1,0,0,-3,-2,-1,0,3.1875,3.1875,3.1875,0.875,0.875,0.875,9.734727,2.818388,6.691336,1.915734,2.968823,3.351323,-0.2100451,-0.5512766,1.571118,0.2251053,-0.5560989,1.578337,0.01066204,0.1971685,1.629279,-0.2520417,-0.5353488,1.563623,0.2676247,-0.551022,1.572065,0.003690887,-0.2203133,1.626675,0.0007381057,-0.5174333,1.615804,-0.1455459,-0.05696591,1.611511,-0.0742472,-0.5056017,1.586668,-0.2118674,-0.2992244,1.620666,0.2222031,-0.300824,1.602371,NA,NA,NotTracked,NotTracked,
0.953125,0.03417969,-0.1899414,0.9506836,-0.2695313,-0.1044922,0,0,-1,1,-2,0,0,-1,-2,-2,1,0,1,0,1,-2,0.6875,0.6875,0.6875,0.6875,0.6875,0.6875,9.741588,2.817128,6.687486,1.920104,2.967483,3.347647,-0.210394,-0.5511798,1.571417,0.225041,-0.5561993,1.578606,0.01042346,0.197175,1.628515,-0.2554452,-0.5314502,1.56916,0.2682083,-0.5485565,1.57443,0.003290289,-0.2204489,1.62602,0.000574197,-0.5175883,1.615727,-0.1458225,-0.05724968,1.610679,-0.07446311,-0.5058405,1.586646,-0.212098,-0.2992693,1.620371,0.2218781,-0.3009372,1.601882,NA,NA,NotTracked,NotTracked,
0.953125,0.02246094,-0.1928711,0.9589844,-0.2666016,-0.1030273,-1,-1,-1,0,2,-2,-1,1,0,0,-1,-1,-2,-1,-1,-1,-2.25,-2.25,-2.25,1.75,1.75,1.75,9.735798,2.820696,6.690255,1.921077,2.968229,3.350319,-0.2102549,-0.5516011,1.56987,0.224855,-0.5553766,1.576863,0.009886685,0.1971216,1.627323,-0.254201,-0.5338255,1.567038,0.2658525,-0.549662,1.568896,0.00318131,-0.2205624,1.625174,0.0003710664,-0.517719,1.615454,-0.1460499,-0.05685995,1.609887,-0.07464064,-0.505962,1.586453,-0.2123277,-0.2992933,1.619949,0.2214568,-0.3009919,1.600983,NA,NA,NotTracked,NotTracked,
0.9472656,0.02636719,-0.1923828,0.9492188,-0.2646484,-0.09814453,0,0,-1,-1,-1,-2,-1,0,-1,-2,-1,0,-1,-1,-3,0,-1.6875,-1.6875,-1.6875,-0.75,-0.75,-0.75,9.724884,2.821237,6.698632,1.915161,2.970047,3.356324,-0.2109746,-0.5510977,1.571034,0.2245566,-0.5558805,1.57691,0.009773619,0.1971098,1.626601,-0.2554859,-0.5291538,1.567627,0.268309,-0.5605403,1.577143,0.003106411,-0.2206171,1.624417,0.0002816433,-0.5177665,1.615137,-0.1462487,-0.05686387,1.609618,-0.0747428,-0.5060605,1.586159,-0.2126232,-0.2998459,1.619308,0.2212515,-0.3009341,1.600399,NA,NA,NotTracked,NotTracked,
0.953125,0.02734375,-0.1884766,0.9550781,-0.2573242,-0.1020508,-3,-1,-1,1,-2,-2,-1,0,-3,0,-1,-1,-1,0,0,-2,0.875,0.875,0.875,-1.5,-1.5,-1.5,9.720079,2.823442,6.703556,1.914188,2.971817,3.355846,-0.2104872,-0.5511683,1.570357,0.2240191,-0.5562029,1.576331,0.009464188,0.1973029,1.625921,-0.2566558,-0.5272415,1.574308,0.2660128,-0.5515651,1.570214,0.002931048,-0.2206694,1.624022,0.0001493273,-0.5178925,1.614836,-0.1465785,-0.05728624,1.608987,-0.07486919,-0.5061776,1.585957,-0.2127585,-0.3000071,1.619071,0.2210415,-0.3010084,1.599787,NA,NA,NotTracked,NotTracked,
