ALX,ALY,ALZ,ARX,ARY,ARZ,EMG0L,EMG1L,EMG2L,EMG3L,EMG4L,EMG5L,EMG6L,EMG7L,EMG0R,EMG1R,EMG2R,EMG3R,EMG4R,EMG5R,EMG6R,EMG7R,GLX,GLY,GLZ,GRX,GRY,GRZ,ORL,OPL,OYL,ORR,OPR,OYR,LHNX,LHNY,LHNZ,RHNX,RHNY,RHNZ,HX,HY,HZ,LTX,LTY,LTZ,RTX,RTY,RTZ,SpineMidX,SpineMidY,SpineMidZ,SpineBaseX,SpineBaseY,SpineBaseZ,ShoulderLeftX,ShoulderLeftY,ShoulderLeftZ,ShoulderRightX,ShoulderRightY,ShoulderRightZ,ElbowLeftX,ElbowLeftY,ElbowLeftZ,ElbowRightX,ElbowRightY,ElbowRightZ,Myo_Pose_left,Myo_Pose_Right,Kinect_pose_left,Kinect_pose_right
0.2041016,0.8427734,0.2822266,0.9272461,-0.3149414,-0.05908203,3,-1,-3,1,-3,-4,0,14,0,-1,0,-1,-1,0,2,0,5.25,5.25,5.25,1.3125,1.3125,1.3125,7.151648,4.592825,0.9121811,2.084674,3.04179,3.53108,-0.1490672,-0.4450865,1.117925,0.1535576,-0.1821271,0.979239,0.05299523,0.3976848,1.152591,-0.1937161,-0.4319929,1.123944,0.1088219,-0.1715417,1.021672,0.0567181,-0.04058032,1.196055,0.05084686,-0.3656282,1.180159,-0.1226877,0.1424458,1.196807,-0.04009159,-0.3532318,1.154037,-0.1639977,-0.1217309,1.203651,0.3265813,-0.07011709,1.199616,NA,NA,NotTracked,Unknown,
0.01171875,0.793457,0.2080078,0.9272461,-0.3149414,-0.05908203,0,2,10,8,3,1,-1,-8,0,-1,0,-1,-1,0,2,0,0.6875,0.6875,0.6875,1.3125,1.3125,1.3125,7.115726,4.892163,1.146161,2.084674,3.04179,3.53108,-0.1474829,-0.4449857,1.116218,0.1174475,-0.1046275,0.9789899,0.05349467,0.3980067,1.153855,-0.193098,-0.4530904,1.1186,0.08564064,-0.05620137,1.016611,0.05638849,-0.0401812,1.196393,0.05029972,-0.3648337,1.180477,-0.1246743,0.142135,1.199717,-0.04041492,-0.3526024,1.154193,-0.1640667,-0.1216104,1.203838,0.3372278,-0.07107224,1.162161,NA,NA,NotTracked,Unknown,
-0.152832,0.909668,0.2514648,0.9272461,-0.3149414,-0.05908203,2,3,-1,-4,0,1,2,-14,0,-1,0,-1,-1,0,2,0,6.125,6.125,6.125,1.3125,1.3125,1.3125,7.117572,5.144448,1.376824,2.084674,3.04179,3.53108,-0.1479932,-0.4452335,1.114846,0.07480112,-0.05228853,0.9858862,0.0544013,0.3983092,1.155481,-0.1938423,-0.4343408,1.124929,0.07024249,0.01025944,0.9985715,0.05635826,-0.0399439,1.196702,0.04999789,-0.364327,1.180666,-0.1225688,0.1423716,1.198897,-0.04059194,-0.3518967,1.154606,-0.163997,-0.1215589,1.203949,0.3340744,-0.0728913,1.139238,NA,NA,NotTracked,Unknown,
-0.1586914,0.9956055,0.2363281,0.9272461,-0.3149414,-0.05908203,2,-6,-6,-8,-1,1,0,3,0,-1,0,-1,-1,0,2,0,14,14,14,1.3125,1.3125,1.3125,7.175336,5.361259,1.583647,2.084674,3.04179,3.53108,-0.1472035,-0.4441125,1.114347,0.05081172,-0.004226832,1.001009,0.05567787,0.3987746,1.157854,-0.1909402,-0.4557487,1.118833,0.04842913,0.05715578,1.013037,0.05656602,-0.03975828,1.197204,0.04991677,-0.3636083,1.181023,-0.1212947,0.1441216,1.199936,-0.04028576,-0.3506885,1.156421,-0.163818,-0.1215844,1.204361,0.3275525,-0.07113384,1.108821,NA,NA,NotTracked,Closed,
-0.2739258,0.9169922,0.1645508,0.9272461,-0.3149414,-0.05908203,-8,-7,-3,1,-1,-1,1,-22,0,-1,0,-1,-1,0,2,0,18.3125,18.3125,18.3125,1.3125,1.3125,1.3125,7.280718,5.586514,1.852182,2.084674,3.04179,3.53108,-0.1465809,-0.4440629,1.114427,0.0924465,0.02701525,1.013896,0.05697267,0.399003,1.159882,-0.1888816,-0.4397422,1.114671,0.1216838,0.07122912,1.052,0.05690712,-0.03969331,1.197714,0.04994012,-0.3634264,1.181071,-0.1196804,0.1447226,1.198419,-0.04016186,-0.3503829,1.157455,-0.1633352,-0.121796,1.204702,0.3132798,-0.07353224,1.092668,NA,NA,NotTracked,Closed,
-0.3847656,0.9287109,0.1806641,0.9272461,-0.3149414,-0.05908203,2,-1,-3,-2,0,-4,0,4,0,-1,0,-1,-1,0,2,0,14.0625,14.0625,14.0625,1.3125,1.3125,1.3125,7.382583,5.69992,2.035045,2.084674,3.04179,3.53108,-0.1464809,-0.4475346,1.115667,0.06081697,0.0675176,1.009141,0.05843968,0.3992502,1.162506,-0.1906368,-0.4312606,1.122136,0.06283206,0.110561,1.030833,0.05771037,-0.03991762,1.198454,0.05017611,-0.3634912,1.181187,-0.1117297,0.1435516,1.189956,-0.03994962,-0.3504926,1.157896,-0.1629123,-0.1217338,1.205389,0.3045615,-0.06944218,1.071266,NA,NA,NotTracked,Unknown,
-0.3867188,0.8115234,0.1098633,0.9272461,-0.3149414,-0.05908203,42,15,3,0,2,1,8,6,0,-1,0,-1,-1,0,2,0,11.875,11.875,11.875,1.3125,1.3125,1.3125,7.510442,5.78215,2.272313,2.084674,3.04179,3.53108,-0.1466378,-0.4471767,1.116447,0.051117,0.08434194,1.010646,0.06093426,0.3995928,1.164582,-0.1914034,-0.4260269,1.128727,0.06019749,0.1162307,1.007,0.05854924,-0.04028495,1.198896,0.05085749,-0.3641064,1.181141,-0.1074477,0.14264,1.185089,-0.03953836,-0.3509885,1.157837,-0.1624726,-0.1208563,1.206172,0.2958593,-0.06249078,1.049318,NA,NA,NotTracked,Unknown,
-0.2114258,0.793457,-0.02685547,0.9272461,-0.3149414,-0.05908203,4,0,-6,-4,-3,-1,10,6,0,-1,0,-1,-1,0,2,0,8.375,8.375,8.375,1.3125,1.3125,1.3125,7.610965,5.802433,2.432004,2.084674,3.04179,3.53108,-0.1470558,-0.4479611,1.117024,0.04222248,0.09608109,1.016087,0.06347162,0.4000974,1.16625,-0.1891901,-0.4372016,1.118749,0.04708565,0.103266,0.9804484,0.05905006,-0.04052261,1.199108,0.0514194,-0.3646317,1.180946,-0.1036412,0.1415487,1.179468,-0.03925566,-0.3514517,1.157633,-0.1621577,-0.120251,1.206683,0.2769668,-0.06062981,1.039209,NA,NA,NotTracked,Unknown,
-0.25,0.8706055,-0.1225586,0.9272461,-0.3149414,-0.05908203,-37,-13,2,4,3,-1,-3,-6,0,-1,0,-1,-1,0,2,0,-1.625,-1.625,-1.625,1.3125,1.3125,1.3125,7.654994,5.808946,2.515917,2.084674,3.04179,3.53108,-0.1470847,-0.446809,1.115627,0.04017972,0.1018073,1.017258,0.06576887,0.4002418,1.167345,-0.1920691,-0.4333112,1.124438,0.06464787,0.0963747,0.9838924,0.0595714,-0.04065073,1.199339,0.05183357,-0.3649893,1.18083,-0.102148,0.1411757,1.177145,-0.03901305,-0.3517653,1.157411,-0.1617922,-0.1197301,1.206914,0.2675235,-0.05962736,1.036569,NA,NA,NotTracked,Unknown,
-0.3164063,0.8779297,-0.1635742,0.9272461,-0.3149414,-0.05908203,-7,-9,-7,1,-2,3,2,-23,0,-1,0,-1,-1,0,2,0,6.5,6.5,6.5,1.3125,1.3125,1.3125,7.667889,5.814516,2.50735,2.084674,3.04179,3.53108,-0.1471775,-0.4468557,1.11393,0.03291666,0.1096971,1.015994,0.06720827,0.4001927,1.167854,-0.1910069,-0.4636572,1.113333,0.04849451,0.1097499,0.9832728,0.05983958,-0.04069644,1.19945,0.05200052,-0.3652478,1.180787,-0.1012766,0.141219,1.176175,-0.03897884,-0.3520091,1.157194,-0.1616521,-0.1189993,1.207026,0.2660199,-0.05851858,1.034808,NA,NA,NotTracked,Unknown,
-0.4980469,0.8242188,-0.1176758,0.9272461,-0.3149414,-0.05908203,-2,-4,1,-7,-2,0,10,23,0,-1,0,-1,-1,0,2,0,13.8125,13.8125,13.8125,1.3125,1.3125,1.3125,7.659499,5.818043,2.44543,2.084674,3.04179,3.53108,-0.1476778,-0.4461218,1.114342,0.04420796,0.1113863,1.006934,0.06807187,0.4003501,1.168362,-0.1909963,-0.4196045,1.063,0.02143752,0.1297448,0.9781668,0.06035043,-0.04104197,1.199576,0.05231597,-0.3660544,1.18065,-0.1009378,0.1412149,1.176005,-0.03888766,-0.3528848,1.156665,-0.1616561,-0.1187511,1.207085,0.2673277,-0.05777733,1.033108,NA,NA,NotTracked,Unknown,
-0.5263672,0.8740234,-0.09375,0.9272461,-0.3149414,-0.05908203,-3,3,10,7,4,-1,4,18,0,-1,0,-1,-1,0,2,0,25.1875,25.1875,25.1875,1.3125,1.3125,1.3125,7.662567,5.828876,2.368682,2.084674,3.04179,3.53108,-0.1475272,-0.4465908,1.115112,-0.004199165,0.1372804,1.007952,0.06835989,0.4003636,1.168444,-0.1932398,-0.4354206,1.1265,-0.01146831,0.1609885,0.96988,0.06058439,-0.04194226,1.198943,0.05273733,-0.3675365,1.180192,-0.1008107,0.1417842,1.176402,-0.03882674,-0.3542634,1.156389,-0.1616436,-0.1182476,1.207022,0.2774226,-0.05166745,1.025003,NA,NA,NotTracked,Unknown,
-0.4433594,0.8579102,-0.1000977,0.9272461,-0.3149414,-0.05908203,15,8,7,1,1,1,0,22,0,-1,0,-1,-1,0,2,0,26.25,26.25,26.25,1.3125,1.3125,1.3125,7.658602,5.84212,2.282316,2.084674,3.04179,3.53108,-0.1484213,-0.4459645,1.115628,0.03279011,0.1334497,0.9946709,0.06842359,0.4003902,1.168518,-0.1930772,-0.4430621,1.121467,0.01037712,0.1590241,0.9580605,0.06038886,-0.04279365,1.198226,0.05251635,-0.3682829,1.180244,-0.1058009,0.144848,1.182822,-0.03928184,-0.3552248,1.156985,-0.1616381,-0.1178306,1.206843,0.2815436,-0.05153146,1.025397,NA,NA,NotTracked,Unknown,
-0.4897461,0.8339844,-0.07275391,0.9272461,-0.3149414,-0.05908203,0,-3,-11,-17,-7,-3,-2,-3,0,-1,0,-1,-1,0,2,0,21.625,21.625,21.625,1.3125,1.3125,1.3125,7.6297,5.85407,2.140018,2.084674,3.04179,3.53108,-0.1469396,-0.4472306,1.113559,0.03994623,0.138552,0.988941,0.06825906,0.4005155,1.168617,-0.1925816,-0.445535,1.121583,0.0270496,0.1593673,0.9465862,0.0602924,-0.04362587,1.197453,0.05255483,-0.3692098,1.180067,-0.1086411,0.1457292,1.185881,-0.03938073,-0.356377,1.157528,-0.161681,-0.1176967,1.206592,0.29447,-0.05250012,1.030231,NA,NA,NotTracked,Unknown,
-0.5439453,0.8652344,-0.04199219,0.9272461,-0.3149414,-0.05908203,1,2,3,6,3,3,1,9,0,-1,0,-1,-1,0,2,0,30.875,30.875,30.875,1.3125,1.3125,1.3125,7.624121,5.864471,2.028894,2.084674,3.04179,3.53108,-0.147483,-0.4465043,1.112393,0.05509916,0.1412412,0.9810288,0.06713109,0.4007161,1.168705,-0.1924081,-0.4447835,1.119178,0.04905605,0.1607582,0.938625,0.06011894,-0.04393488,1.19711,0.05230413,-0.3697893,1.179953,-0.1115013,0.1459205,1.189161,-0.03987533,-0.3572127,1.158038,-0.1617967,-0.1177138,1.206398,0.3201756,-0.04752342,1.035982,NA,NA,NotTracked,Closed,
-0.5107422,0.8623047,-0.06738281,0.9272461,-0.3149414,-0.05908203,-1,3,-3,4,-1,-6,-7,-12,0,-1,0,-1,-1,0,2,0,39.375,39.375,39.375,1.3125,1.3125,1.3125,7.620187,5.877141,1.883792,2.084674,3.04179,3.53108,-0.1482855,-0.446448,1.113022,0.09422704,0.136983,0.9763471,0.06543718,0.401172,1.168744,-0.1916272,-0.4591018,1.117,0.07835165,0.1570546,0.9329809,0.05984594,-0.04415407,1.197162,0.051859,-0.3706308,1.179889,-0.1137207,0.1455872,1.191538,-0.0406279,-0.3582712,1.158651,-0.161944,-0.1177088,1.206212,0.3244292,-0.04754186,1.038498,NA,NA,NotTracked,Unknown,
-0.4711914,0.8671875,-0.05078125,0.9272461,-0.3149414,-0.05908203,0,-2,6,-1,3,1,3,-7,0,-1,0,-1,-1,0,2,0,40.5625,40.5625,40.5625,1.3125,1.3125,1.3125,7.624414,5.887599,1.761584,2.084674,3.04179,3.53108,-0.1480247,-0.4469012,1.112678,0.127143,0.1370202,0.9720174,0.06335641,0.4012798,1.168579,-0.192253,-0.4404078,1.115616,0.1130151,0.1584794,0.9287657,0.05912466,-0.04491545,1.196523,0.0513761,-0.3713172,1.179792,-0.124702,0.1442253,1.20313,-0.04126453,-0.3590585,1.159275,-0.1623264,-0.1176864,1.205938,0.3338883,-0.04731056,1.044264,NA,NA,NotTracked,Unknown,
-0.5239258,0.8515625,-0.08251953,0.9272461,-0.3149414,-0.05908203,-7,-8,-2,-1,-3,-1,-3,-4,0,-1,0,-1,-1,0,2,0,65.125,65.125,65.125,1.3125,1.3125,1.3125,7.639037,5.900208,1.614655,2.084674,3.04179,3.53108,-0.1484175,-0.446568,1.111438,0.1537586,0.1410575,0.9684409,0.06091781,0.401329,1.168234,-0.1945733,-0.417916,1.118611,0.1440835,0.1585739,0.9226742,0.05833169,-0.04541028,1.195947,0.05062798,-0.371954,1.179415,-0.1239507,0.1440623,1.202109,-0.04202405,-0.3595833,1.159218,-0.1624358,-0.1180376,1.205539,0.349128,-0.04681128,1.05559,NA,NA,NotTracked,Closed,
-0.59375,0.8300781,-0.01806641,0.9272461,-0.3149414,-0.05908203,3,5,7,21,4,0,0,-17,0,-1,0,-1,-1,0,2,0,72.75,72.75,72.75,1.3125,1.3125,1.3125,7.656343,5.915552,1.378003,2.084674,3.04179,3.53108,-0.1484064,-0.4469524,1.112306,0.1846971,0.1458313,0.9645839,0.05942751,0.4009981,1.167585,-0.1918404,-0.4316348,1.114484,0.1834695,0.1650414,0.9200256,0.0574475,-0.04552991,1.195861,0.04981393,-0.3726213,1.178885,-0.1241597,0.1433181,1.202034,-0.04281348,-0.3601894,1.158659,-0.162797,-0.1182915,1.205335,0.3767799,-0.04687274,1.079406,NA,NA,NotTracked,Closed,
-0.546875,0.8081055,0.01123047,0.9272461,-0.3149414,-0.05908203,7,7,8,7,5,4,10,4,0,-1,0,-1,-1,0,2,0,75,75,75,1.3125,1.3125,1.3125,7.667789,5.931441,1.182796,2.084674,3.04179,3.53108,-0.1487551,-0.4470063,1.112806,0.2212757,0.1495565,0.965346,0.05857578,0.4009739,1.166951,-0.1938191,-0.4306807,1.121,0.2263303,0.1730876,0.9214687,0.05701307,-0.04537815,1.196042,0.04929008,-0.3728241,1.178601,-0.1249432,0.1430063,1.202597,-0.04348818,-0.3603782,1.157619,-0.1629207,-0.1185154,1.205155,0.3925666,-0.04081228,1.097657,NA,NA,NotTracked,Unknown,
-0.6318359,0.7480469,0.008789063,0.9272461,-0.3149414,-0.05908203,7,6,3,-3,2,4,9,14,0,-1,0,-1,-1,0,2,0,69.6875,69.6875,69.6875,1.3125,1.3125,1.3125,7.665573,5.951255,0.9862252,2.084674,3.04179,3.53108,-0.1486039,-0.4467699,1.113472,0.2526491,0.1515285,0.9687711,0.05798488,0.4008952,1.166358,-0.1907388,-0.4464387,1.108963,0.2784078,0.1627676,0.9330282,0.05682842,-0.04500803,1.196133,0.04919168,-0.3723819,1.178305,-0.1254567,0.1428313,1.202974,-0.04344261,-0.3597772,1.156145,-0.163134,-0.1186482,1.20497,0.4009817,-0.03094398,1.104672,NA,NA,NotTracked,Unknown,
-0.6098633,0.7416992,0.03759766,0.9272461,-0.3149414,-0.05908203,-16,-12,0,-6,0,-1,2,1,0,-1,0,-1,-1,0,2,0,69.8125,69.8125,69.8125,1.3125,1.3125,1.3125,7.664074,5.965294,0.852192,2.084674,3.04179,3.53108,-0.1485854,-0.4464055,1.111469,0.2868123,0.1505727,0.9714534,0.05751301,0.4008043,1.165322,-0.1917375,-0.4412946,1.106812,0.2533968,0.1355053,0.9470271,0.05670523,-0.04451824,1.195994,0.04926896,-0.3716515,1.177594,-0.1230031,0.142662,1.199816,-0.04309006,-0.3589396,1.154152,-0.1632715,-0.1188045,1.204283,0.4071628,-0.02456986,1.124101,NA,NA,NotTracked,Unknown,
-0.6264648,0.7407227,0.01464844,0.9272461,-0.3149414,-0.05908203,11,2,-1,-5,-1,1,0,-2,0,-1,0,-1,-1,0,2,0,63.375,63.375,63.375,1.3125,1.3125,1.3125,7.642277,5.977466,0.6542581,2.084674,3.04179,3.53108,-0.1478487,-0.445644,1.112385,0.3173501,0.146555,0.9743761,0.05730091,0.4007267,1.164691,-0.1967511,-0.4331386,1.1222,0.3274124,0.130133,0.9345624,0.05652906,-0.04378968,1.195958,0.04936025,-0.3706665,1.177211,-0.1238103,0.1426429,1.200444,-0.04273987,-0.3579355,1.152985,-0.1632198,-0.1190838,1.20386,0.4098781,-0.02130413,1.136425,NA,NA,NotTracked,Unknown,
-0.6166992,0.7866211,0.09423828,0.9272461,-0.3149414,-0.05908203,16,6,-1,-5,-1,1,8,12,0,-1,0,-1,-1,0,2,0,34.8125,34.8125,34.8125,1.3125,1.3125,1.3125,7.578592,5.976705,0.4023547,2.084674,3.04179,3.53108,-0.1484765,-0.4455799,1.110352,0.3405686,0.1421166,0.9754228,0.05732694,0.4006697,1.16389,-0.1928282,-0.437681,1.113659,0.2729051,0.1331176,0.9547334,0.05660711,-0.04330193,1.195679,0.04961486,-0.3699726,1.176732,-0.1242074,0.1424574,1.200585,-0.04226582,-0.3572384,1.151764,-0.1630536,-0.1193555,1.203025,0.4434714,-0.061921,1.168116,NA,NA,NotTracked,Unknown,
-0.6557617,0.7612305,0.1035156,0.9272461,-0.3149414,-0.05908203,-12,-3,-2,-5,-1,0,3,20,0,-1,0,-1,-1,0,2,0,13.875,13.875,13.875,1.3125,1.3125,1.3125,7.515848,5.981753,0.2179066,2.084674,3.04179,3.53108,-0.1474843,-0.4454347,1.110746,0.3548825,0.1410803,0.9793627,0.05774426,0.4007608,1.163192,-0.1952402,-0.4356095,1.117632,0.3670188,0.1239434,0.9422144,0.05675942,-0.04296537,1.195525,0.04997124,-0.3694699,1.176441,-0.122081,0.1425538,1.198519,-0.0417366,-0.3567019,1.150978,-0.1628924,-0.1194209,1.202539,0.4421793,-0.06372226,1.171161,NA,NA,NotTracked,Unknown,
-0.640625,0.7763672,0.09179688,0.9272461,-0.3149414,-0.05908203,2,-2,2,3,3,1,3,-8,0,-1,0,-1,-1,0,2,0,2.25,2.25,2.25,1.3125,1.3125,1.3125,7.457973,5.993323,0.1196841,2.084674,3.04179,3.53108,-0.1475791,-0.4449552,1.109336,0.360647,0.1393853,0.9807712,0.05868148,0.4008925,1.162135,-0.1935698,-0.4352224,1.114995,0.3612454,0.1933891,1.032446,0.05704854,-0.04283798,1.195064,0.05039208,-0.3690413,1.17617,-0.1206952,0.1427264,1.197025,-0.0411884,-0.3562787,1.150304,-0.1624591,-0.1197791,1.201631,0.4409969,-0.06507821,1.172421,NA,NA,NotTracked,Unknown,
-0.625,0.7949219,0.03222656,0.9272461,-0.3149414,-0.05908203,-14,-3,-7,-10,-1,-1,0,11,0,-1,0,-1,-1,0,2,0,-3.3125,-3.3125,-3.3125,1.3125,1.3125,1.3125,7.435496,5.999595,0.08967213,2.084674,3.04179,3.53108,-0.1472073,-0.4438326,1.108349,0.36106,0.138045,0.9811029,0.06005533,0.4008859,1.161033,-0.1931154,-0.4342852,1.113854,0.3384639,0.1873687,1.041587,0.05738955,-0.04257264,1.194856,0.05079433,-0.3687025,1.175915,-0.1192762,0.143128,1.195307,-0.04062708,-0.3558163,1.149528,-0.1621156,-0.1193626,1.200348,0.4402481,-0.06635796,1.172629,NA,NA,NotTracked,Unknown,
-0.6079102,0.8178711,0.03369141,0.9272461,-0.3149414,-0.05908203,-9,-7,-1,-2,0,-2,-11,-22,0,-1,0,-1,-1,0,2,0,-3.0625,-3.0625,-3.0625,1.3125,1.3125,1.3125,7.416324,5.992172,0.07291845,2.084674,3.04179,3.53108,-0.146848,-0.4440495,1.107655,0.3626759,0.1346534,0.9785529,0.06114855,0.4011129,1.160578,-0.1888577,-0.4452771,1.101619,0.3736865,0.177936,1.018625,0.05799321,-0.04214806,1.194755,0.05164593,-0.3679793,1.17576,-0.1176002,0.1435053,1.193629,-0.03966651,-0.3551377,1.148953,-0.1617324,-0.1194339,1.199349,0.4392184,-0.06795371,1.17293,NA,NA,NotTracked,Closed,
-0.5913086,0.8349609,0.04736328,0.9272461,-0.3149414,-0.05908203,-9,-3,-3,0,-1,2,-1,-6,0,-1,0,-1,-1,0,2,0,-1.9375,-1.9375,-1.9375,1.3125,1.3125,1.3125,7.409867,5.98718,0.0693797,2.084674,3.04179,3.53108,-0.1472391,-0.4436667,1.105023,0.3635865,0.1338887,0.9788574,0.06210107,0.4010618,1.160102,-0.1921714,-0.4354929,1.110285,0.3763459,0.1840875,1.0208,0.05837178,-0.04196405,1.194619,0.05202808,-0.3678595,1.175571,-0.1167114,0.1435719,1.19267,-0.03926937,-0.3550236,1.148501,-0.1615342,-0.1196208,1.198702,0.437611,-0.0699732,1.173831,NA,NA,NotTracked,Unknown,
-0.6030273,0.8173828,0.03417969,0.9272461,-0.3149414,-0.05908203,-2,2,3,7,4,5,17,35,0,-1,0,-1,-1,0,2,0,-0.25,-0.25,-0.25,1.3125,1.3125,1.3125,7.410967,5.990131,0.07227307,2.084674,3.04179,3.53108,-0.1464284,-0.4456804,1.103587,0.3623704,0.1347421,0.9800362,0.0628505,0.4009503,1.159502,-0.190325,-0.4447607,1.1025,0.3704208,0.190451,1.032125,0.05870902,-0.04183454,1.194371,0.05236202,-0.3677684,1.175274,-0.1159709,0.1435514,1.191821,-0.0389079,-0.3549524,1.14784,-0.1614175,-0.1195385,1.198145,0.4371467,-0.07059735,1.173564,NA,NA,NotTracked,Closed,
-0.5976563,0.8125,0.04638672,0.9272461,-0.3149414,-0.05908203,9,6,3,-2,-2,0,1,-2,0,-1,0,-1,-1,0,2,0,0.875,0.875,0.875,1.3125,1.3125,1.3125,7.411924,5.997553,0.07368987,2.084674,3.04179,3.53108,-0.1465358,-0.4451531,1.104196,0.362951,0.1352336,0.9783955,0.06327154,0.4010492,1.159304,-0.1920285,-0.4385959,1.110401,0.352654,0.1895574,1.0386,0.05902374,-0.04162605,1.194154,0.05260642,-0.3675686,1.175035,-0.1155652,0.143702,1.19148,-0.03868051,-0.3547375,1.147401,-0.1613715,-0.1193531,1.197787,0.436596,-0.07099639,1.173392,NA,NA,NotTracked,Unknown,
-0.5854492,0.7875977,0.04736328,0.9272461,-0.3149414,-0.05908203,-4,0,-4,-3,-1,-3,-7,-7,0,-1,0,-1,-1,0,2,0,1.125,1.125,1.125,1.3125,1.3125,1.3125,7.414155,6.010704,0.07485282,2.084674,3.04179,3.53108,-0.146674,-0.4435131,1.104873,0.3628304,0.13706,0.9798881,0.06360377,0.4012363,1.159209,-0.1925433,-0.4342557,1.113688,0.3312972,0.183114,1.0274,0.05921774,-0.04147894,1.193977,0.0528375,-0.3674133,1.17479,-0.1160782,0.1440006,1.192026,-0.0384533,-0.3546017,1.147043,-0.1612064,-0.1191478,1.197176,0.4362839,-0.07144368,1.173168,NA,NA,NotTracked,Unknown,
-0.5668945,0.769043,0.04833984,0.9272461,-0.3149414,-0.05908203,5,-3,0,-4,-2,8,1,13,0,-1,0,-1,-1,0,2,0,-1.3125,-1.3125,-1.3125,1.3125,1.3125,1.3125,7.411957,6.014561,0.07610409,2.084674,3.04179,3.53108,-0.1469046,-0.4431395,1.105384,0.3617969,0.1384744,0.9822264,0.06389301,0.401206,1.158976,-0.1923072,-0.4322689,1.1105,0.3559293,0.1940079,1.0384,0.05937143,-0.041368,1.19389,0.05296487,-0.3673385,1.174672,-0.1167318,0.1441916,1.19256,-0.03831988,-0.3545181,1.146818,-0.1610086,-0.1192323,1.196823,0.4363135,-0.07159188,1.173008,NA,NA,NotTracked,Unknown,
-0.4970703,0.7324219,0.09033203,0.9272461,-0.3149414,-0.05908203,-5,-4,-13,-14,-5,-5,-5,-17,0,-1,0,-1,-1,0,2,0,-1.5,-1.5,-1.5,1.3125,1.3125,1.3125,7.404816,6.003192,0.0703525,2.084674,3.04179,3.53108,-0.1463097,-0.4450871,1.105104,0.3605717,0.1348563,0.9813727,0.06401142,0.4012873,1.158903,-0.1905675,-0.471637,1.110667,0.3733589,0.1918149,1.02783,0.05946839,-0.04119845,1.193832,0.05303412,-0.3671759,1.17461,-0.1176247,0.1441441,1.193571,-0.03826832,-0.3544026,1.146724,-0.1609729,-0.1192237,1.196673,0.4362649,-0.07207955,1.173085,NA,NA,NotTracked,Closed,
-0.4155273,0.6933594,0.1308594,0.9272461,-0.3149414,-0.05908203,4,0,7,9,-2,1,1,12,0,-1,0,-1,-1,0,2,0,-17.3125,-17.3125,-17.3125,1.3125,1.3125,1.3125,7.34044,5.929155,0.0200437,2.084674,3.04179,3.53108,-0.1454134,-0.4449858,1.105621,0.3563944,0.1234045,0.9785106,0.06416275,0.4012681,1.158727,-0.191524,-0.4384881,1.109467,0.3661559,0.1790382,1.031461,0.05958923,-0.04105997,1.193777,0.05314621,-0.3671029,1.174518,-0.1165683,0.1441483,1.192508,-0.03819175,-0.3543413,1.14658,-0.1609496,-0.1192454,1.19659,0.4336206,-0.07482781,1.174149,NA,NA,NotTracked,Unknown,
-0.3051758,0.8168945,0.1181641,0.9272461,-0.3149414,-0.05908203,4,3,12,17,-1,-3,-2,7,0,-1,0,-1,-1,0,2,0,-25.9375,-25.9375,-25.9375,1.3125,1.3125,1.3125,7.278018,5.791759,9.962535,2.084674,3.04179,3.53108,-0.1456632,-0.4451772,1.104734,0.3555516,0.09196651,0.9740173,0.0641901,0.401237,1.158407,-0.1916925,-0.4370731,1.107701,0.372407,0.154961,1.043889,0.05970529,-0.04101912,1.193761,0.05318785,-0.3670649,1.174534,-0.116766,0.1441332,1.192869,-0.03816019,-0.3543076,1.146538,-0.1606069,-0.1192943,1.196314,0.4210626,-0.08528398,1.181698,NA,NA,NotTracked,Unknown,
-0.2661133,0.7495117,0.2299805,0.9272461,-0.3149414,-0.05908203,1,-3,-8,-26,-8,-3,5,12,0,-1,0,-1,-1,0,2,0,-3.4375,-3.4375,-3.4375,1.3125,1.3125,1.3125,7.235991,5.616092,9.927478,2.084674,3.04179,3.53108,-0.146058,-0.4433322,1.107224,0.3537714,0.03501375,0.9679914,0.06400543,0.4011368,1.157949,-0.1925543,-0.4165343,1.107478,0.3177959,0.07344444,1.00775,0.05982587,-0.04082349,1.193667,0.05351789,-0.366447,1.174652,-0.1171368,0.1438567,1.193239,-0.03785928,-0.3538808,1.146569,-0.1603207,-0.119436,1.196298,0.3905458,-0.09011971,1.196526,NA,NA,NotTracked,Unknown,
-0.08496094,0.6157227,0.2075195,0.9272461,-0.3149414,-0.05908203,3,2,16,22,3,-4,-5,-3,0,-1,0,-1,-1,0,2,0,8.0625,8.0625,8.0625,1.3125,1.3125,1.3125,7.251843,5.31339,9.92171,2.084674,3.04179,3.53108,-0.1439716,-0.444231,1.108307,0.3487832,-0.05700399,0.9433144,0.06385601,0.4011332,1.157382,-0.1890993,-0.4279424,1.11189,0.3152452,-0.0167907,0.9597999,0.05987879,-0.04069504,1.193621,0.05359893,-0.3662183,1.174757,-0.117331,0.1434346,1.19356,-0.03778328,-0.3536893,1.146741,-0.1599295,-0.1195372,1.196426,0.3346601,-0.1152456,1.246598,NA,NA,NotTracked,Unknown,
-0.02050781,0.5849609,0.02734375,0.9272461,-0.3149414,-0.05908203,10,3,-5,-6,-3,-5,1,5,0,-1,0,-1,-1,0,2,0,14.625,14.625,14.625,1.3125,1.3125,1.3125,7.271122,4.823478,9.963899,2.084674,3.04179,3.53108,-0.1425541,-0.4440173,1.109896,0.3443445,-0.19607,0.9706482,0.06352941,0.4010579,1.157137,-0.1872269,-0.429547,1.111501,0.3335819,-0.1633004,0.9505454,0.05996051,-0.04057143,1.19362,0.05401336,-0.3660381,1.174897,-0.116702,0.1432497,1.192948,-0.03736824,-0.3535878,1.147043,-0.1596657,-0.1196277,1.196469,0.3294322,-0.0842875,1.239868,NA,NA,NotTracked,Unknown,
0.5629883,1.02002,0.1005859,0.9272461,-0.3149414,-0.05908203,11,14,6,-2,-1,0,0,6,0,-1,0,-1,-1,0,2,0,69.9375,69.9375,69.9375,1.3125,1.3125,1.3125,7.364652,4.098312,0.00322533,2.084674,3.04179,3.53108,-0.1419199,-0.4439372,1.108202,0.3253748,-0.3514329,1.020333,0.06305183,0.4009414,1.156978,-0.1881671,-0.431887,1.108601,0.323852,-0.3359405,0.9597142,0.06008282,-0.04051628,1.193636,0.05475778,-0.3658717,1.175182,-0.1184246,0.1425816,1.194758,-0.03652915,-0.353593,1.147513,-0.1594401,-0.1198101,1.196565,0.3259622,-0.09508228,1.2295,NA,NA,NotTracked,Unknown,
1.165039,1.105957,0.06738281,0.9272461,-0.3149414,-0.05908203,14,-2,-1,-2,0,-2,0,4,0,-1,0,-1,-1,0,2,0,30.75,30.75,30.75,1.3125,1.3125,1.3125,7.58243,3.557035,9.88149,2.084674,3.04179,3.53108,-0.1425856,-0.4437165,1.108195,0.3050747,-0.4000959,1.070593,0.06283855,0.4007966,1.156809,-0.1871868,-0.4285123,1.113098,0.2661755,-0.38394,1.024462,0.06052549,-0.04060583,1.193647,0.05709537,-0.3662233,1.175552,-0.1181448,0.1425069,1.194222,-0.0342771,-0.3540592,1.147754,-0.159411,-0.1198698,1.196645,0.3166418,-0.111763,1.218195,NA,NA,NotTracked,NotTracked,
1.080078,0.8442383,-0.1743164,0.9272461,-0.3149414,-0.05908203,7,-1,-3,-2,-1,1,-6,2,0,-1,0,-1,-1,0,2,0,-14,-14,-14,1.3125,1.3125,1.3125,7.727179,3.286071,9.70987,2.084674,3.04179,3.53108,-0.1421901,-0.4431954,1.107314,0.2913905,-0.4256065,1.108041,0.06289678,0.400679,1.15659,-0.1889681,-0.4319844,1.11231,0.2518758,-0.4365622,1.065059,0.06162155,-0.04072394,1.193799,0.06070212,-0.3662826,1.176492,-0.1189799,0.1426015,1.194855,-0.03048083,-0.3544173,1.148533,-0.1593677,-0.1202821,1.196668,0.3080896,-0.1200872,1.209697,NA,NA,NotTracked,NotTracked,
1.063965,0.4614258,-0.2807617,0.9272461,-0.3149414,-0.05908203,-23,-11,-6,-1,-1,-3,-8,-11,0,-1,0,-1,-1,0,2,0,25.1875,25.1875,25.1875,1.3125,1.3125,1.3125,7.8841,3.118591,9.556061,2.084674,3.04179,3.53108,-0.1424606,-0.4441871,1.107684,0.2859252,-0.4271514,1.130013,0.06360451,0.4004043,1.15611,-0.1891659,-0.4499179,1.109385,0.253424,-0.4123245,1.121667,0.06314882,-0.04111666,1.194131,0.06360899,-0.3674846,1.177449,-0.1181083,0.1427393,1.193529,-0.0276939,-0.3555772,1.149175,-0.1594179,-0.1204143,1.196505,0.30324,-0.118473,1.20374,NA,NA,NotTracked,NotTracked,
0.9648438,0.4438477,-0.1923828,0.9272461,-0.3149414,-0.05908203,-1,-3,0,0,1,-1,-15,-3,0,-1,0,-1,-1,0,2,0,48.375,48.375,48.375,1.3125,1.3125,1.3125,8.050825,3.034378,9.515075,2.084674,3.04179,3.53108,-0.1460582,-0.441204,1.11049,0.2806445,-0.420347,1.141711,0.06516591,0.399896,1.155048,-0.1931393,-0.428026,1.117063,0.2398039,-0.3875412,1.11025,0.0639938,-0.04129298,1.194305,0.06444056,-0.3677764,1.177971,-0.1176229,0.1432007,1.192678,-0.02689735,-0.3558235,1.149565,-0.1594841,-0.1205255,1.196368,0.3006541,-0.1168973,1.200289,NA,NA,NotTracked,NotTracked,
0.9091797,0.3598633,-0.1547852,0.9272461,-0.3149414,-0.05908203,2,-2,2,4,0,1,3,4,0,-1,0,-1,-1,0,2,0,10.25,10.25,10.25,1.3125,1.3125,1.3125,8.072332,3.049268,9.533699,2.084674,3.04179,3.53108,-0.1464864,-0.4417346,1.111981,0.282742,-0.4235274,1.140043,0.06688346,0.3997883,1.154383,-0.1903674,-0.4356027,1.111939,0.2567426,-0.3962226,1.135012,0.06486364,-0.04128577,1.194681,0.06512204,-0.3679768,1.178694,-0.1163385,0.1437505,1.191105,-0.02632384,-0.3559476,1.15004,-0.1597881,-0.1205221,1.196311,0.2995413,-0.1163448,1.199167,NA,NA,NotTracked,NotTracked,
