ALX,ALY,ALZ,ARX,ARY,ARZ,EMG0L,EMG1L,EMG2L,EMG3L,EMG4L,EMG5L,EMG6L,EMG7L,EMG0R,EMG1R,EMG2R,EMG3R,EMG4R,EMG5R,EMG6R,EMG7R,GLX,GLY,GLZ,GRX,GRY,GRZ,ORL,OPL,OYL,ORR,OPR,OYR,LHNX,LHNY,LHNZ,RHNX,RHNY,RHNZ,HX,HY,HZ,LTX,LTY,LTZ,RTX,RTY,RTZ,SpineMidX,SpineMidY,SpineMidZ,SpineBaseX,SpineBaseY,SpineBaseZ,ShoulderLeftX,ShoulderLeftY,ShoulderLeftZ,ShoulderRightX,ShoulderRightY,ShoulderRightZ,ElbowLeftX,ElbowLeftY,ElbowLeftZ,ElbowRightX,ElbowRightY,ElbowRightZ,Myo_Pose_left,Myo_Pose_Right,Kinect_pose_left,Kinect_pose_right
0.9165039,-0.3603516,0.01025391,0.9311523,0.4926758,-0.1035156,-1,-1,-1,1,-2,-1,-3,-3,-5,0,-1,-2,-1,-8,-8,-7,0.25,0.25,0.25,1.5,1.5,1.5,2.432432,3.103322,1.715416,7.79057,3.2952,8.232288,-0.1663501,-0.4382921,1.123381,0.2788413,-0.4240649,1.096161,0.0601076,0.3991288,1.150603,-0.209518,-0.4283085,1.112484,0.2359844,-0.4265208,1.111083,0.05593323,-0.04031017,1.199618,0.05640297,-0.3652582,1.189679,-0.1334638,0.1461016,1.195415,-0.03399429,-0.3535962,1.160313,-0.1750218,-0.1239503,1.201564,0.2847663,-0.1342056,1.199552,NA,NA,NotTracked,NotTracked,
0.9106445,-0.3608398,0.006835938,0.9326172,0.675293,-0.09082031,-1,-1,-3,-1,1,-1,-1,-1,0,-3,-4,1,1,2,1,7,-1,-1,-1,-21.8125,-21.8125,-21.8125,2.437083,3.099695,1.709228,7.621891,3.443834,8.4121,-0.1652262,-0.4374076,1.123078,0.2750454,-0.411042,1.075575,0.06005957,0.3991214,1.150633,-0.2088299,-0.4248666,1.110621,0.2342167,-0.4323717,1.044667,0.05591157,-0.04028931,1.199569,0.05639073,-0.3652139,1.189591,-0.1334302,0.146159,1.195208,-0.03400954,-0.3535475,1.160213,-0.1750339,-0.1240076,1.201533,0.2853639,-0.1330722,1.201125,NA,NA,NotTracked,NotTracked,
0.9233398,-0.3671875,0.01904297,0.8608398,0.7294922,0.06054688,1,-2,1,1,-1,-1,0,-1,3,2,-7,-4,-2,-2,-1,2,-1.25,-1.25,-1.25,-15.5,-15.5,-15.5,2.444827,3.096052,1.699929,7.464812,3.620793,8.557579,-0.164859,-0.4372368,1.122775,0.2667464,-0.394466,1.047236,0.05993188,0.3991084,1.15068,-0.2083185,-0.4460459,1.111429,0.2303796,-0.3856165,1.027849,0.05581981,-0.04028863,1.199513,0.05621135,-0.365195,1.189431,-0.1337459,0.1458523,1.195638,-0.0342385,-0.3535449,1.160012,-0.1749824,-0.1240293,1.201505,0.2862887,-0.1313563,1.203055,NA,NA,NotTracked,NotTracked,
0.8974609,-0.3579102,0.0009765625,0.7495117,1.02832,0.04345703,0,-2,0,-1,-2,1,-5,-1,3,8,18,6,4,0,-10,-4,2.3125,2.3125,2.3125,-17.3125,-17.3125,-17.3125,2.458328,3.092827,1.68911,7.369325,3.854191,8.673617,-0.1630071,-0.4362539,1.124318,0.2548743,-0.3573361,1.012281,0.05975091,0.3990245,1.150801,-0.2059259,-0.4361816,1.110422,0.2215764,-0.3403049,0.9936317,0.05525347,-0.04016388,1.199463,0.05501348,-0.3648869,1.189215,-0.1340123,0.1455763,1.196132,-0.03552371,-0.3531121,1.159799,-0.1750017,-0.1240351,1.20151,0.2877511,-0.1277599,1.205663,NA,NA,NotTracked,Unknown,
0.9360352,-0.387207,0.03710938,0.3969727,0.965332,0.1347656,-1,-1,-1,-1,-2,-1,-1,-1,19,4,20,11,6,-1,-1,5,-4.5625,-4.5625,-4.5625,-30.8125,-30.8125,-30.8125,2.46618,3.091839,1.677325,7.254749,4.182819,8.783888,-0.1628973,-0.436319,1.124518,0.2412285,-0.2998073,0.9709461,0.05913349,0.3993071,1.151872,-0.2047198,-0.4233951,1.1126,0.2346694,-0.2537077,0.9535946,0.05395221,-0.03995647,1.199379,0.05231324,-0.3644538,1.188616,-0.134076,0.1454977,1.195988,-0.03854217,-0.3523108,1.158976,-0.1750002,-0.1240263,1.20152,0.2889771,-0.1201748,1.207665,NA,NA,NotTracked,Unknown,
0.9023438,-0.3745117,-0.01855469,0.3930664,1.276855,0.2993164,0,0,-1,0,-2,-1,1,-1,-12,-7,-5,-2,0,1,-2,-12,1.8125,1.8125,1.8125,9.125,9.125,9.125,2.468907,3.092525,1.676669,7.209898,4.730266,8.902258,-0.1615686,-0.4375096,1.124078,0.2328353,-0.1946535,0.9236146,0.05891247,0.3992206,1.152282,-0.2062633,-0.4307643,1.114293,0.2465576,-0.1654578,0.89728,0.05264739,-0.03957295,1.199567,0.04987565,-0.3636953,1.188209,-0.1341487,0.1453854,1.195966,-0.04093533,-0.3513894,1.158796,-0.1751501,-0.1239794,1.201475,0.2907324,-0.09592303,1.207257,NA,NA,NotTracked,Unknown,
0.9492188,-0.4140625,0.00390625,-0.1308594,1.237793,0.2480469,-1,-1,-2,0,-2,-2,1,1,16,-6,-1,-2,-6,0,-2,-12,-9.375,-9.375,-9.375,10.75,10.75,10.75,2.466751,3.09691,1.665428,7.237205,5.305332,9.024641,-0.1623529,-0.4336628,1.122588,0.2169697,-0.06282332,0.8888545,0.05891367,0.3991299,1.152918,-0.2065527,-0.4263645,1.112579,0.2246963,-0.05054755,0.8566667,0.05207767,-0.03948625,1.199607,0.04861987,-0.3633257,1.187955,-0.1342161,0.1454097,1.195814,-0.04226875,-0.3509984,1.15851,-0.1751784,-0.1238344,1.201357,0.3413657,-0.06189074,1.168993,NA,NA,NotTracked,Unknown,
0.8896484,-0.3842773,0.01416016,-0.6396484,0.5385742,0.1274414,1,-2,-2,-1,-2,-2,-1,0,22,1,5,-4,-5,-10,-1,-10,-11.6875,-11.6875,-11.6875,12.9375,12.9375,12.9375,2.468318,3.10735,1.649127,7.314487,5.912418,9.203898,-0.1632062,-0.4337862,1.120779,0.2069321,0.0919712,0.9123027,0.06053831,0.3987294,1.154944,-0.2093904,-0.4211569,1.114,0.2020775,0.07801495,0.8648667,0.05056678,-0.04149605,1.19973,0.04684694,-0.366639,1.187511,-0.134122,0.1452694,1.196202,-0.04437236,-0.3542366,1.158154,-0.1753503,-0.1235171,1.20115,0.3212751,-0.1008527,1.162382,NA,NA,NotTracked,Unknown,
0.9052734,-0.3793945,0.04833984,-0.4194336,0.5039063,0.0234375,0,0,0,1,0,1,0,-3,22,-9,-4,-7,-8,-1,3,23,-10.625,-10.625,-10.625,62.9375,62.9375,62.9375,2.459689,3.138856,1.620932,7.685089,6.513493,9.532118,-0.1656042,-0.4325673,1.116184,0.2024459,0.2056933,0.9656227,0.06229254,0.3978988,1.156306,-0.2074618,-0.4250463,1.099731,0.2081809,0.2046706,0.9139141,0.05208482,-0.04071913,1.19891,0.04544382,-0.3644218,1.186613,-0.133856,0.1453039,1.196993,-0.04642148,-0.3515395,1.156872,-0.1764457,-0.1207527,1.200389,0.3483939,-0.07099593,1.121631,NA,NA,NotTracked,Unknown,
0.9301758,-0.3588867,0.02490234,-0.3286133,0.3979492,-0.02539063,-1,0,-2,0,-2,-3,-3,-2,4,6,5,6,1,2,2,2,6.9375,6.9375,6.9375,34.3125,34.3125,34.3125,2.469496,3.157753,1.613531,8.033816,6.732614,9.852746,-0.1684817,-0.4314923,1.110618,0.1937999,0.2704151,1.006613,0.0671212,0.3953212,1.157724,-0.2026563,-0.4407332,1.08171,0.1830843,0.3019558,0.9482799,0.05503993,-0.03834423,1.197426,0.04330005,-0.3587317,1.184746,-0.131824,0.1452504,1.197692,-0.04917218,-0.3449362,1.153724,-0.1776023,-0.1156046,1.198717,0.3590005,-0.0318648,1.068842,NA,NA,NotTracked,Unknown,
0.9194336,-0.3378906,0.01953125,-0.2172852,0.2583008,-0.08544922,2,0,1,-1,-2,-1,-7,-3,-2,4,1,-5,0,16,-4,-20,11.3125,11.3125,11.3125,3.625,3.625,3.625,2.486471,3.166333,1.610186,8.278882,6.776186,0.101549,-0.1682207,-0.4327024,1.104952,0.1936966,0.2831665,1.029899,0.07144176,0.3937232,1.15884,-0.2114015,-0.423119,1.091766,0.1974033,0.2884434,0.973,0.05657594,-0.03699796,1.19648,0.04201795,-0.3558183,1.183423,-0.1302572,0.1455564,1.198383,-0.05058493,-0.3420525,1.152391,-0.1776385,-0.113782,1.1974,0.3657088,-0.02576455,1.067272,NA,NA,NotTracked,Open,
0.9267578,-0.3510742,0.01416016,-0.4731445,0.3188477,-0.03613281,-4,-1,-1,3,5,5,22,8,-12,4,5,1,0,-2,-8,-18,14.4375,14.4375,14.4375,-30.3125,-30.3125,-30.3125,2.526402,3.172757,1.593151,8.084171,6.682142,9.948816,-0.1662546,-0.433641,1.099759,0.1902667,0.2812394,1.03332,0.07322659,0.3933226,1.160027,-0.1964189,-0.4298733,1.070953,0.1925269,0.2918913,0.9704784,0.05725387,-0.03633767,1.196033,0.04142705,-0.3545523,1.182783,-0.129182,0.1459262,1.19925,-0.0512685,-0.340842,1.151969,-0.1777968,-0.111957,1.197379,0.3657581,-0.02611064,1.067211,NA,NA,NotTracked,Unknown,
1.174316,-0.5585938,0.04492188,-0.7138672,0.6362305,-0.1298828,-3,1,4,5,24,5,17,-17,14,6,4,1,-2,-2,-1,15,129.8125,129.8125,129.8125,-50.625,-50.625,-50.625,2.872212,3.310266,1.446836,7.713859,6.505082,9.579585,-0.162198,-0.4311887,1.06958,0.191598,0.2712301,1.017336,0.0719122,0.394418,1.161645,-0.1937254,-0.4352407,1.043923,0.1998691,0.2694891,0.9406666,0.05764024,-0.03559949,1.19553,0.04081937,-0.3533586,1.1821,-0.1286142,0.1460567,1.199706,-0.05190844,-0.3398536,1.151734,-0.1771588,-0.111284,1.199715,0.3596804,-0.03712141,1.077888,NA,NA,NotTracked,Open,
1.150391,-1.099121,0.4760742,-1.175293,0.8803711,-0.1191406,1,-2,0,-1,-3,-3,-15,2,-9,-4,-5,0,-2,1,-1,-11,41.875,41.875,41.875,-2,-2,-2,3.152952,3.606966,1.247354,7.368915,6.179887,9.204692,-0.1632412,-0.3657482,1.01278,0.2193029,0.2198303,0.9902875,0.06680904,0.3973498,1.163893,-0.1908932,-0.3436615,0.9832333,0.2413234,0.19612,0.9028572,0.05806733,-0.03498806,1.195135,0.0421872,-0.3522885,1.181465,-0.1293222,0.1461224,1.200917,-0.05066207,-0.3395012,1.15164,-0.1767214,-0.1095447,1.208595,0.3467245,-0.0533586,1.099703,NA,NA,Lasso,Open,
0.3818359,-1.081055,0.4365234,-1.07959,1.010742,0.1069336,-4,-4,-1,-4,6,10,7,-11,6,1,-3,-1,2,0,1,9,59.1875,59.1875,59.1875,43.6875,43.6875,43.6875,3.346987,4.291408,1.109461,7.358412,6.078554,9.105961,-0.176347,-0.2380411,0.9477747,0.2416436,0.1923527,0.9730667,0.0635099,0.3985361,1.165455,-0.2022836,-0.2702042,0.9444,0.2611315,0.1671865,0.8859287,0.05794169,-0.0346254,1.195673,0.04589717,-0.3524027,1.18117,-0.1297308,0.1481831,1.203277,-0.04640796,-0.3401667,1.151778,-0.176825,-0.0846092,1.221101,0.3296361,-0.06884884,1.15256,NA,NA,Unknown,Unknown,
0.09179688,-0.859375,0.4980469,-0.9326172,0.8339844,0.08105469,-5,0,4,5,9,14,13,-10,-35,-7,-2,-2,1,-2,-2,-38,-31.0625,-31.0625,-31.0625,43.8125,43.8125,43.8125,3.368482,4.872934,1.059194,7.412498,6.165654,9.094037,-0.1903398,-0.0829034,0.91123,0.2605281,0.1962515,0.9755492,0.06177089,0.3990019,1.166422,-0.2094824,-0.1111767,0.8849,0.282224,0.178103,0.8934706,0.05737871,-0.03421711,1.196705,0.04748815,-0.3526718,1.181315,-0.1305401,0.1483578,1.204575,-0.04461909,-0.340569,1.151718,-0.178661,-0.06868511,1.21431,0.3363003,-0.06160543,1.148812,NA,NA,Unknown,Unknown,
-0.08642578,-0.7797852,0.5166016,-0.668457,0.6884766,0.08447266,-2,-1,7,3,0,-1,-1,-5,17,-2,-1,3,-1,7,-2,15,-52.875,-52.875,-52.875,40.4375,40.4375,40.4375,3.277524,5.438941,1.019636,7.491707,6.34034,9.091,-0.2028541,0.05303821,0.9394892,0.2723584,0.2250583,0.9906077,0.06105223,0.3997808,1.167548,-0.2164869,0.02669518,0.9030477,0.2949044,0.2107446,0.9057273,0.05688409,-0.03374092,1.197623,0.04870428,-0.3525972,1.181398,-0.1305851,0.1486418,1.204834,-0.04343495,-0.3406433,1.151675,-0.1806527,-0.06921484,1.202598,0.3534758,-0.0489023,1.14085,NA,NA,Unknown,Unknown,
-0.2519531,-0.5170898,0.3842773,-0.5092773,0.4179688,0.07617188,0,-2,-1,1,8,11,10,-7,-4,-2,-1,8,-1,-3,-1,-23,-41,-41,-41,38.125,38.125,38.125,3.205128,5.904106,0.9957876,7.544352,6.523767,9.061903,-0.2022803,0.1637539,0.9498576,0.2805897,0.2505527,1.014386,0.06085262,0.4006772,1.168838,-0.2312691,0.1074963,0.9487777,0.3057414,0.244721,0.9306666,0.05710759,-0.03348344,1.197981,0.04955673,-0.3525767,1.18168,-0.1307313,0.1487778,1.204905,-0.04265696,-0.3407525,1.151942,-0.2170444,-0.05685865,1.169936,0.3801365,-0.0243171,1.118678,NA,NA,Unknown,Open,
-0.171875,-0.4492188,0.3569336,-0.4331055,0.4477539,0.08007813,-1,-5,-6,-8,-2,1,3,-1,2,-1,1,-2,-1,0,-5,-2,-41.1875,-41.1875,-41.1875,8.5,8.5,8.5,3.090418,6.254259,0.9872429,7.505857,6.510773,8.97564,-0.2071655,0.2050558,0.9729365,0.2881531,0.2543308,1.01778,0.0610393,0.4013121,1.16995,-0.2330095,0.161125,0.943111,0.3160875,0.2481169,0.9345556,0.05795453,-0.03332196,1.19763,0.05043798,-0.352507,1.181755,-0.1312729,0.1492974,1.205033,-0.04175234,-0.3408061,1.151932,-0.2459867,-0.06694973,1.153768,0.3832935,-0.02030408,1.115837,NA,NA,Unknown,Unknown,
-0.2416992,-0.3876953,0.2924805,-0.4833984,0.5488281,0.1469727,-4,-5,-5,-2,1,3,3,1,20,28,12,5,2,-2,-7,0,-20.4375,-20.4375,-20.4375,-11.125,-11.125,-11.125,3.079371,6.293037,0.9992807,7.398565,6.344153,8.860784,-0.2069343,0.2052921,0.9725754,0.2962436,0.2322563,1.008183,0.06131084,0.4017336,1.170571,-0.2287249,0.1664549,0.9297501,0.2480049,0.2693584,1.067,0.05829481,-0.0333551,1.197347,0.05079476,-0.3526522,1.181703,-0.1316977,0.1496408,1.205052,-0.04129972,-0.3410807,1.151769,-0.2480991,-0.06520562,1.151681,0.3841051,-0.01879606,1.114051,NA,NA,Unknown,Open,
-0.3452148,-0.5332031,0.3540039,-0.5136719,0.6777344,0.1367188,0,4,3,9,0,0,17,5,9,4,2,4,2,-1,-5,-3,26.375,26.375,26.375,-46.75,-46.75,-46.75,3.152398,6.047584,1.060076,7.236112,5.937118,8.743261,-0.2114563,0.1652264,0.9610424,0.3110727,0.1771482,0.9810558,0.06142431,0.4018752,1.170807,-0.2411201,0.1278859,0.9352778,0.3198562,0.2338822,1.027333,0.05810336,-0.03346396,1.197869,0.05106367,-0.3532415,1.181831,-0.1318054,0.1496657,1.205056,-0.040919,-0.3418477,1.151806,-0.2437369,-0.07837586,1.165061,0.3252617,-0.06272773,1.182045,NA,NA,Open,Unknown,
-0.309082,-0.6577148,0.3417969,-0.4492188,0.7890625,0.2109375,4,2,-10,-13,-9,-9,-16,0,17,5,1,2,-2,-1,0,2,8.375,8.375,8.375,-16.625,-16.625,-16.625,3.207064,5.73866,1.112814,7.148697,5.558668,8.662807,-0.2202738,0.08666778,0.9452565,0.3192467,0.08512121,0.961778,0.06148238,0.4019185,1.170839,-0.2383471,0.05706402,0.9094166,0.2611558,0.1001305,0.9526843,0.05750982,-0.03388491,1.198437,0.05153565,-0.3548172,1.181973,-0.1317619,0.149473,1.205006,-0.04040101,-0.3437462,1.151879,-0.1999117,-0.06379907,1.190053,0.315964,-0.1062278,1.222409,NA,NA,Unknown,Open,
-0.3222656,-0.9770508,0.496582,-0.2612305,1.04248,0.1254883,5,-1,-2,-3,-1,-4,-24,3,-41,-33,-13,-15,-2,1,-21,-35,12.625,12.625,12.625,6.5,6.5,6.5,3.240846,5.362083,1.188061,7.145437,5.148785,8.58468,-0.2304999,-0.01074812,0.9436927,0.3258392,-0.01975912,0.9600939,0.0614709,0.4018911,1.170681,-0.2482677,-0.04076049,0.9135385,0.2680419,0.005239079,0.9367858,0.05721398,-0.03396637,1.198784,0.05170175,-0.3549493,1.182143,-0.1301309,0.1508007,1.205002,-0.0401171,-0.3439876,1.152225,-0.1936143,-0.1249271,1.23813,0.2868111,-0.1243087,1.239584,NA,NA,Unknown,Open,
-0.01611328,-1.231445,0.5605469,0.09863281,1.447266,0.2148438,-6,-13,-3,-6,-8,-5,-9,-10,-11,-5,-2,4,1,2,12,10,29.0625,29.0625,29.0625,5.6875,5.6875,5.6875,3.291696,4.880569,1.299922,7.169337,4.785076,8.530657,-0.2379357,-0.1003678,0.9432617,0.3328677,-0.1085987,0.9594272,0.0613559,0.401922,1.170457,-0.2629885,-0.1311179,0.9041001,0.2732055,-0.07964191,0.9288399,0.0572853,-0.03412462,1.19866,0.05178408,-0.3551407,1.182272,-0.1298609,0.1507623,1.205242,-0.0399504,-0.3443629,1.152677,-0.1749952,-0.1087826,1.241791,0.2629788,-0.1337741,1.227037,NA,NA,Unknown,Open,
0.1108398,-1.37207,0.6660156,0.2661133,1.445801,0.2680664,-1,3,7,-17,8,13,22,12,-22,-4,-4,1,-8,-10,-8,1,-3.375,-3.375,-3.375,17.3125,17.3125,17.3125,3.283337,4.645891,1.342066,7.194265,4.531329,8.488605,-0.2367704,-0.1546433,0.9455509,0.3307585,-0.1591342,0.9734361,0.06094333,0.4015383,1.169532,-0.2610042,-0.1852255,0.930923,0.267429,-0.1333474,0.9422309,0.05692493,-0.03418041,1.198943,0.05196479,-0.3553177,1.182536,-0.1302328,0.1499966,1.205533,-0.03968613,-0.3445907,1.153124,-0.1767973,-0.09738719,1.236495,0.2939869,-0.08397831,1.241222,NA,NA,Unknown,Open,
0.1918945,-1.274902,0.7319336,0.1484375,1.054688,0.2265625,23,8,-13,-15,-11,-17,-46,-12,16,1,12,30,6,1,18,35,7.25,7.25,7.25,-8.1875,-8.1875,-8.1875,3.29348,4.599129,1.337406,7.186567,4.524184,8.48585,-0.2328468,-0.157499,0.947511,0.3330817,-0.1692678,0.9797564,0.06031115,0.4010837,1.168165,-0.2567437,-0.2098453,0.9738,0.2695284,-0.1415187,0.9505485,0.0565342,-0.03429375,1.199123,0.05216739,-0.3554749,1.182859,-0.1307273,0.1492454,1.205781,-0.03941817,-0.3447962,1.153705,-0.1788616,-0.09251462,1.23522,0.2939416,-0.08399432,1.241328,NA,NA,Unknown,Unknown,
0.04443359,-0.8652344,0.4550781,0.1484375,0.9433594,0.2001953,1,-2,-7,-14,2,4,14,9,7,6,-2,-9,-4,-4,7,-1,12.6875,12.6875,12.6875,6.3125,6.3125,6.3125,3.316986,4.718904,1.330034,7.187825,4.579212,8.498611,-0.2308057,-0.136623,0.9450845,0.3341053,-0.1618446,0.9814426,0.05958739,0.4008328,1.166801,-0.2486763,-0.1861217,0.9602,0.2684983,-0.1323202,0.9463955,0.05621453,-0.03438873,1.199219,0.05231551,-0.3555617,1.183227,-0.1310505,0.1488489,1.205936,-0.03925208,-0.3449196,1.154284,-0.1789219,-0.0913709,1.235403,0.2939446,-0.08386932,1.241322,NA,NA,Unknown,Unknown,
0.1489258,-0.8427734,0.4438477,0.2470703,0.9287109,0.1953125,8,-5,-3,9,-1,-4,-2,4,-5,-1,-3,-6,-2,-5,-14,-29,-11.375,-11.375,-11.375,9.125,9.125,9.125,3.30452,4.780134,1.335121,7.193974,4.638136,8.503427,-0.2342055,-0.1235195,0.9399437,0.3355394,-0.1521435,0.9755499,0.05897539,0.4005651,1.165921,-0.2539212,-0.1618809,0.92,0.2700311,-0.1193566,0.9435862,0.05636907,-0.03450594,1.198989,0.05239818,-0.3555973,1.183623,-0.1311388,0.1490185,1.206106,-0.03916318,-0.3449704,1.154838,-0.1777829,-0.09165569,1.235364,0.2938873,-0.08360886,1.240619,NA,NA,Unknown,Open,
0.2368164,-0.8789063,0.5175781,0.2739258,0.9199219,0.1660156,-1,-8,-11,0,2,-5,-4,2,9,-2,3,-3,4,0,-11,5,-5,-5,-5,-4.0625,-4.0625,-4.0625,3.298505,4.797147,1.336733,7.195302,4.655667,8.49989,-0.2342562,-0.1169,0.9335274,0.3378103,-0.1478123,0.9739289,0.05881634,0.4004301,1.165695,-0.2544639,-0.1515511,0.8976471,0.2723051,-0.1132306,0.9388148,0.0560883,-0.03459502,1.199214,0.05249597,-0.3557122,1.183931,-0.1313161,0.1488457,1.206116,-0.03906992,-0.3450983,1.155246,-0.1758926,-0.09442431,1.234891,0.2937654,-0.08327489,1.23914,NA,NA,Unknown,Unknown,
0.1708984,-0.8959961,0.4907227,0.1225586,1.011719,0.004882813,1,-3,-2,-8,-4,-3,4,3,-3,-1,-3,-3,-4,-1,3,-4,1.125,1.125,1.125,7.875,7.875,7.875,3.295618,4.809974,1.331966,7.211568,4.678689,8.482637,-0.234493,-0.1142019,0.931738,0.3391019,-0.1400405,0.9564505,0.05886031,0.4003838,1.165421,-0.258123,-0.1534786,0.9156153,0.2779852,-0.1126437,0.9173751,0.05588135,-0.03462701,1.199342,0.05257188,-0.3558032,1.184132,-0.1314916,0.1486318,1.206125,-0.03900537,-0.3452046,1.155473,-0.174877,-0.09303284,1.232297,0.293656,-0.08308306,1.238291,NA,NA,Unknown,Open,
0.09912109,-0.9150391,0.4838867,-0.2231445,0.715332,0.4541016,-13,-12,-12,-20,-5,12,50,7,-4,-3,2,14,2,0,-2,-3,-3.9375,-3.9375,-3.9375,-11.625,-11.625,-11.625,3.293006,4.819859,1.328063,7.220131,4.686661,8.471523,-0.2335021,-0.1130083,0.932451,0.3425702,-0.1413242,0.9574816,0.05890944,0.4004009,1.165208,-0.2542481,-0.1535078,0.9299999,0.277454,-0.1145852,0.922803,0.05567066,-0.03464844,1.199594,0.05263367,-0.3558794,1.184395,-0.131102,0.1491413,1.206165,-0.0389554,-0.3452371,1.155784,-0.1748319,-0.09196953,1.231121,0.2934707,-0.08314069,1.237545,NA,NA,Unknown,Unknown,
0.1313477,-0.9057617,0.4863281,-0.6313477,0.6884766,0.1523438,-1,-5,-18,-7,-6,-12,-14,-4,7,0,0,-4,-2,3,9,14,-0.375,-0.375,-0.375,1.375,1.375,1.375,3.291821,4.823289,1.326232,7.232453,4.695076,8.464911,-0.2327069,-0.1122324,0.9328508,0.3440295,-0.1410098,0.9673934,0.05910787,0.4003031,1.16478,-0.2536657,-0.1512248,0.9145405,0.2765578,-0.1084708,0.9379615,0.05560312,-0.03467714,1.199645,0.05267099,-0.3559439,1.1845,-0.1312075,0.1490062,1.206161,-0.03892506,-0.3452846,1.155891,-0.1741969,-0.09304735,1.230699,0.293462,-0.08302834,1.237154,NA,NA,Unknown,Open,
0.5830078,-0.8461914,0.3452148,-0.5712891,0.7182617,0.1289063,5,6,6,-2,1,1,27,6,-11,-2,-3,-4,-1,-7,-6,-9,-4.125,-4.125,-4.125,-6.625,-6.625,-6.625,3.287813,4.813058,1.324314,7.178451,4.7548,8.465226,-0.2318294,-0.1139721,0.9336716,0.3449853,-0.1392371,0.9660298,0.05934992,0.4001647,1.164429,-0.2616278,-0.1531578,0.947,0.2784052,-0.1101017,0.9316491,0.05555831,-0.03470649,1.199808,0.05280244,-0.3559451,1.184742,-0.1309565,0.1493788,1.206259,-0.03878641,-0.3452716,1.156165,-0.1742682,-0.09281362,1.230456,0.2934932,-0.08308088,1.236873,NA,NA,Unknown,Open,
-0.4077148,-0.8867188,0.5546875,-0.4916992,0.6152344,0.03564453,-2,-5,-3,1,-1,0,-6,-2,1,-1,-1,0,1,3,0,0,0.9375,0.9375,0.9375,-24.625,-24.625,-24.625,3.301121,4.824246,1.307156,7.172518,4.721422,8.419854,-0.2275188,-0.1282935,0.9323225,0.3425481,-0.1461207,0.9686112,0.05968686,0.400158,1.164035,-0.2375385,-0.1690607,0.914923,0.2892208,-0.1068875,0.9461579,0.05551179,-0.03474024,1.19987,0.05287388,-0.3560151,1.18484,-0.1310429,0.1492003,1.206233,-0.03874938,-0.3453053,1.156212,-0.1742935,-0.0921787,1.23044,0.2936921,-0.08308159,1.236923,NA,NA,Unknown,Unknown,
-0.2480469,-0.5551758,-0.006835938,0.1210938,0.5297852,0.07910156,1,-7,-4,-5,-1,1,-5,1,0,2,10,12,5,3,-2,0,12.5,12.5,12.5,11.375,11.375,11.375,3.29793,4.797941,1.303075,7.195842,4.554056,8.351611,-0.2212987,-0.1734736,0.9304051,0.3393915,-0.1817772,0.9581035,0.05995389,0.4002103,1.163782,-0.2411155,-0.1990682,0.9371334,0.2995679,-0.1377246,0.937,0.05546506,-0.03472297,1.199948,0.05303447,-0.3560272,1.184998,-0.1311498,0.1491175,1.206246,-0.03861627,-0.3453125,1.156319,-0.1792484,-0.090351,1.230235,0.295029,-0.08385454,1.237791,NA,NA,Lasso,Lasso,
0.5776367,-0.6455078,0.4882813,0.5810547,0.8408203,0.2260742,1,0,1,3,-1,0,-3,0,-1,-1,-1,0,1,4,1,-2,-100.125,-100.125,-100.125,111.0625,111.0625,111.0625,3.15967,4.308976,1.307593,7.400319,4.251607,8.271904,-0.2138333,-0.2641414,0.9438117,0.3414716,-0.2430375,0.9840441,0.06026989,0.4003014,1.163611,-0.2530974,-0.278183,0.9583077,0.3384837,-0.289068,1.004909,0.05541695,-0.03463296,1.2001,0.05328805,-0.3559929,1.185195,-0.1312881,0.1490193,1.20618,-0.03838546,-0.3452367,1.15641,-0.1872109,-0.08712015,1.224773,0.2990484,-0.08807378,1.238979,NA,NA,Unknown,Unknown,
0.5712891,-0.9086914,0.3139648,0.5981445,0.784668,0.1083984,0,2,0,0,1,-2,1,-2,0,-2,-2,-2,-3,-6,-2,-1,-97.125,-97.125,-97.125,41.1875,41.1875,41.1875,2.965592,4.012403,1.332931,7.523725,3.973734,8.237281,-0.2043773,-0.3546751,1.005524,0.3334287,-0.3268322,1.014483,0.06071108,0.400715,1.163571,-0.2318855,-0.3510464,0.9884401,0.335067,-0.3678475,1.041167,0.05624853,-0.03480427,1.199703,0.05342266,-0.3561573,1.185377,-0.1314869,0.1487691,1.205979,-0.03820226,-0.3453777,1.156515,-0.1891722,-0.09042053,1.218129,0.3047009,-0.09873088,1.236844,NA,NA,Unknown,Unknown,
0.9594727,-0.6337891,0.152832,1.025879,0.6230469,0.0004882813,0,-1,-2,-1,-2,-2,-1,-1,-1,0,-3,-1,-2,3,0,0,-0.9375,-0.9375,-0.9375,46.375,46.375,46.375,2.888729,3.647221,1.383061,7.704444,3.624565,8.069117,-0.1965618,-0.4091282,1.068431,0.327813,-0.3832351,1.063533,0.06088717,0.4008716,1.163654,-0.2386765,-0.4108586,1.052917,0.2880367,-0.3772602,1.076552,0.05604668,-0.03489302,1.199904,0.05332171,-0.3567614,1.185616,-0.1319512,0.1481821,1.205628,-0.0381526,-0.3457897,1.156661,-0.187205,-0.1039182,1.210932,0.307407,-0.1121663,1.232238,NA,NA,Unknown,Lasso,
1.090332,-0.6547852,0.128418,1.058594,0.6435547,-0.1318359,-2,-1,1,-1,-2,2,-1,2,0,-1,-3,-3,-3,1,0,0,-46.875,-46.875,-46.875,30.6875,30.6875,30.6875,2.73776,3.369633,1.498275,7.912197,3.396587,7.89143,-0.1830702,-0.4188102,1.112079,0.3232253,-0.4138181,1.10354,0.06089908,0.4009078,1.163655,-0.2194219,-0.4184497,1.100696,0.2808983,-0.4141931,1.110273,0.055792,-0.03516287,1.200099,0.05320223,-0.3579505,1.185955,-0.1322789,0.1476584,1.205197,-0.03808422,-0.3466607,1.156924,-0.1841724,-0.1125291,1.208179,0.3043211,-0.1204196,1.227783,NA,NA,NotTracked,NotTracked,
1.010742,-0.5473633,0.007324219,1.037109,0.5239258,-0.2143555,1,-1,0,-1,-1,0,-1,0,-3,0,-1,-1,0,-13,-45,-7,-2.0625,-2.0625,-2.0625,22.6875,22.6875,22.6875,2.581201,3.145779,1.646957,8.095265,3.239786,7.727464,-0.1685104,-0.4208133,1.137034,0.3133731,-0.4295208,1.133403,0.06089626,0.4010638,1.1636,-0.2105951,-0.4026869,1.1005,0.2656125,-0.414206,1.104833,0.05563724,-0.03538481,1.200285,0.05336121,-0.3590642,1.186314,-0.1321284,0.1472541,1.203852,-0.0378149,-0.3476543,1.157254,-0.1811619,-0.115479,1.208498,0.298874,-0.129902,1.223605,NA,NA,NotTracked,NotTracked,
0.9257813,-0.6118164,0.01708984,0.925293,0.4135742,-0.2089844,2,-1,0,1,-1,-1,0,-2,-2,-1,-3,-6,-3,-2,6,1,18.4375,18.4375,18.4375,9.375,9.375,9.375,2.54596,3.090306,1.696091,8.194358,3.140238,7.649397,-0.1578147,-0.4239989,1.14329,0.3028162,-0.433114,1.152122,0.06081377,0.4012364,1.163345,-0.1957882,-0.410213,1.135333,0.2527629,-0.4121267,1.125929,0.05584462,-0.03566952,1.200583,0.05490604,-0.3601687,1.187285,-0.1320855,0.1471004,1.203209,-0.0360149,-0.3488794,1.15824,-0.1786665,-0.1174186,1.210085,0.2955394,-0.1317305,1.221735,NA,NA,NotTracked,NotTracked,
0.859375,-0.4101563,-0.004394531,0.9116211,0.4238281,-0.1499023,2,-2,0,0,-2,-3,-2,1,-1,-1,1,3,-2,1,-2,-2,16.0625,16.0625,16.0625,19.25,19.25,19.25,2.594418,3.086921,1.711313,8.238917,3.103977,7.622842,-0.1572234,-0.4290284,1.143458,0.2922392,-0.4274575,1.161142,0.06053541,0.4015393,1.162493,-0.1921958,-0.4174102,1.137429,0.2447089,-0.3923504,1.129071,0.056055,-0.03580768,1.200748,0.05590818,-0.3608406,1.188274,-0.132212,0.1469689,1.202795,-0.03490453,-0.3496103,1.159285,-0.1770849,-0.1180376,1.211394,0.2931194,-0.1297205,1.219998,NA,NA,NotTracked,NotTracked,
0.9116211,-0.3808594,0.04394531,0.9213867,0.3305664,-0.1606445,-4,-3,-2,0,-1,-3,-2,-2,0,0,1,2,0,-3,-1,-1,-10.75,-10.75,-10.75,16,16,16,2.560011,3.091379,1.742812,8.236689,3.089935,7.648103,-0.1578484,-0.4322079,1.142131,0.2899689,-0.4213046,1.164116,0.06016842,0.4022247,1.161717,-0.196944,-0.4111759,1.137,0.255703,-0.4167519,1.153,0.05618097,-0.03584661,1.200892,0.05636429,-0.3611325,1.188931,-0.1322511,0.1467986,1.202595,-0.03436177,-0.3499747,1.16012,-0.1760348,-0.1182587,1.21271,0.2916841,-0.1267898,1.218862,NA,NA,NotTracked,NotTracked,
0.9111328,-0.3618164,0.03710938,0.9257813,0.3310547,-0.1782227,-2,3,2,2,1,-3,2,-3,-1,-2,-2,-1,-1,-3,-3,0,-16.5,-16.5,-16.5,41.875,41.875,41.875,2.525175,3.096493,1.754455,8.264976,3.081002,7.680717,-0.157573,-0.4318188,1.141906,0.2889445,-0.4210842,1.163803,0.05974252,0.4028818,1.160945,-0.1957889,-0.4097702,1.13208,0.2490118,-0.431304,1.144,0.05635769,-0.03585215,1.201032,0.05681467,-0.361255,1.189525,-0.1318638,0.1469289,1.202026,-0.03389321,-0.3500762,1.16081,-0.1755763,-0.1184409,1.213211,0.2908147,-0.1252649,1.217734,NA,NA,NotTracked,NotTracked,
0.9189453,-0.3383789,0.02587891,0.9584961,0.2666016,-0.1391602,-3,-2,-3,-2,0,0,-2,-2,-3,-1,1,2,2,-1,-3,0,-17.4375,-17.4375,-17.4375,31.8125,31.8125,31.8125,2.498493,3.099887,1.750516,8.262656,3.075292,7.761822,-0.1569106,-0.4337311,1.139475,0.2883,-0.4213187,1.1576,0.05917168,0.4034184,1.160116,-0.1970549,-0.4303222,1.132359,0.2503325,-0.4033592,1.144481,0.05652448,-0.03582027,1.20107,0.05723804,-0.3613877,1.189834,-0.1314212,0.146805,1.200737,-0.0334549,-0.3502197,1.161209,-0.1750794,-0.1188562,1.213304,0.2899894,-0.1243169,1.215994,NA,NA,NotTracked,NotTracked,
