ALX,ALY,ALZ,ARX,ARY,ARZ,EMG0L,EMG1L,EMG2L,EMG3L,EMG4L,EMG5L,EMG6L,EMG7L,EMG0R,EMG1R,EMG2R,EMG3R,EMG4R,EMG5R,EMG6R,EMG7R,GLX,GLY,GLZ,GRX,GRY,GRZ,ORL,OPL,OYL,ORR,OPR,OYR,LHNX,LHNY,LHNZ,RHNX,RHNY,RHNZ,HX,HY,HZ,LTX,LTY,LTZ,RTX,RTY,RTZ,SpineMidX,SpineMidY,SpineMidZ,SpineBaseX,SpineBaseY,SpineBaseZ,ShoulderLeftX,ShoulderLeftY,ShoulderLeftZ,ShoulderRightX,ShoulderRightY,ShoulderRightZ,ElbowLeftX,ElbowLeftY,ElbowLeftZ,ElbowRightX,ElbowRightY,ElbowRightZ,Myo_Pose_left,Myo_Pose_Right,Kinect_pose_left,Kinect_pose_right
0.8974609,-0.4067383,-0.02539063,0.8886719,0.4145508,-0.1328125,-2,-2,-2,-2,-1,-1,-2,0,2,-1,-1,0,-1,0,-2,0,0.5625,0.5625,0.5625,-2.25,-2.25,-2.25,2.333823,3.18107,7.098591,7.984633,3.227693,0.0435458,-0.1576339,-0.4156436,1.204017,0.2998976,-0.4408533,1.158463,0.06572796,0.4082121,1.229071,-0.2082861,-0.4227893,1.198587,0.2561497,-0.4241846,1.153704,0.06336263,-0.03797805,1.263701,0.06091314,-0.3663222,1.250024,-0.1251177,0.1481284,1.264091,-0.02888887,-0.3539187,1.222272,-0.1600603,-0.1178014,1.274314,0.2993664,-0.1415705,1.250388,NA,NA,NotTracked,NotTracked,
0.8994141,-0.4179688,-0.02832031,0.8828125,0.4213867,-0.1293945,0,0,-3,-2,-1,-1,0,0,-2,-1,-2,-3,-1,-1,-1,-1,-0.125,-0.125,-0.125,-0.125,-0.125,-0.125,2.332688,3.186071,7.100818,7.98114,3.22972,0.04510301,-0.158252,-0.4147174,1.202406,0.2996184,-0.4408379,1.157995,0.06524052,0.4083289,1.229439,-0.2082058,-0.4210964,1.196934,0.2553271,-0.429892,1.158958,0.06305483,-0.03787183,1.263657,0.06080829,-0.3662952,1.249797,-0.1256756,0.1475916,1.264188,-0.02897993,-0.3540027,1.22201,-0.1601261,-0.1182442,1.273902,0.2991281,-0.141653,1.250338,NA,NA,NotTracked,NotTracked,
0.8969727,-0.4116211,-0.02587891,0.8876953,0.4116211,-0.1293945,2,-1,1,0,-1,-2,-1,2,0,0,-1,-1,-1,0,-1,1,1.3125,1.3125,1.3125,-0.25,-0.25,-0.25,2.335557,3.191029,7.100615,7.980544,3.232399,0.04573197,-0.1587606,-0.4143951,1.202346,0.2993345,-0.4409748,1.157427,0.06441156,0.4083569,1.230102,-0.2083724,-0.4223624,1.196562,0.2829785,-0.4706377,1.17025,0.06275684,-0.03777504,1.263723,0.06064082,-0.3662089,1.249573,-0.1260088,0.1474825,1.264026,-0.02910616,-0.3539587,1.22184,-0.1603106,-0.1188696,1.273559,0.2987632,-0.1415983,1.250341,NA,NA,NotTracked,NotTracked,
0.8999023,-0.4150391,-0.02734375,0.8955078,0.4223633,-0.1264648,-2,0,-1,-1,-1,0,-1,0,-1,0,-2,-1,-1,0,0,-1,1.875,1.875,1.875,-1.0625,-1.0625,-1.0625,2.340443,3.196085,7.099813,7.977398,3.234658,0.04773196,-0.1601527,-0.4147437,1.201187,0.2995098,-0.4412018,1.157096,0.06399799,0.4082563,1.23064,-0.2091857,-0.4178303,1.19261,0.2494092,-0.4433987,1.14605,0.06244927,-0.03776634,1.263767,0.06048333,-0.3662766,1.249341,-0.1264484,0.1472008,1.264545,-0.02921359,-0.3541263,1.221563,-0.1604676,-0.1190779,1.273567,0.2985837,-0.1416289,1.250301,NA,NA,NotTracked,NotTracked,
0.8886719,-0.4160156,-0.02685547,0.8945313,0.4272461,-0.125,-1,0,-1,0,-1,-1,0,-2,-2,-1,-2,-1,0,-2,0,-2,0,0,0,0.5,0.5,0.5,2.335882,3.199928,7.106513,7.977235,3.234328,0.04779869,-0.1607839,-0.4135966,1.20098,0.2982077,-0.4404521,1.156644,0.0634301,0.4082715,1.231398,-0.209758,-0.4184092,1.192926,0.2515567,-0.4332211,1.150056,0.06210108,-0.0376877,1.263751,0.0602222,-0.3662214,1.249053,-0.1266869,0.1471588,1.264497,-0.02944798,-0.3541313,1.221256,-0.1607504,-0.1191873,1.273572,0.2982953,-0.1418417,1.250201,NA,NA,NotTracked,NotTracked,
0.8847656,-0.4179688,-0.02539063,0.8999023,0.4384766,-0.1381836,-1,-1,-1,-1,-1,-1,-2,-1,-11,-7,-3,1,-1,-1,0,-3,-0.9375,-0.9375,-0.9375,1,1,1,2.327255,3.201598,7.115788,7.974879,3.235231,0.05113603,-0.1609457,-0.413289,1.201287,0.2976217,-0.4421674,1.155362,0.06324742,0.4082265,1.231699,-0.2104045,-0.4200891,1.194701,0.2528716,-0.4332907,1.151826,0.06185813,-0.03764253,1.263747,0.05991682,-0.3662298,1.24876,-0.1268696,0.1471492,1.264727,-0.02969366,-0.3541524,1.221027,-0.1609851,-0.1191965,1.273576,0.2980422,-0.1418597,1.250063,NA,NA,NotTracked,NotTracked,
0.8925781,-0.4243164,-0.01416016,0.9892578,0.5429688,-0.2094727,-1,-1,-1,-1,-2,0,-2,2,-8,-6,-7,-14,-6,-3,-2,-8,1.75,1.75,1.75,-27.9375,-27.9375,-27.9375,2.320737,3.202997,7.125823,7.919836,3.265703,0.08209737,-0.1623129,-0.4129687,1.20106,0.2966601,-0.4407801,1.154047,0.0631175,0.4082836,1.232038,-0.2120732,-0.4159102,1.194373,0.2497661,-0.4383955,1.143593,0.06161133,-0.03760887,1.263803,0.05966007,-0.3662638,1.248617,-0.1268798,0.1471391,1.264737,-0.02992674,-0.3542268,1.220922,-0.161243,-0.1191749,1.273567,0.2977323,-0.1418917,1.249982,NA,NA,NotTracked,NotTracked,
0.8999023,-0.4208984,-0.02197266,1.071777,0.5458984,-0.1157227,-1,-1,-1,0,-1,-2,0,-1,4,11,11,-7,-11,4,4,3,2.0625,2.0625,2.0625,-42.375,-42.375,-42.375,2.318254,3.204499,7.135108,7.718178,3.364568,0.2289221,-0.1638918,-0.41356,1.201733,0.2926883,-0.4310064,1.144067,0.06289827,0.4081712,1.232414,-0.2132276,-0.4166687,1.19277,0.2488866,-0.4175346,1.145381,0.06132279,-0.03751715,1.263836,0.05938318,-0.3662121,1.248434,-0.1272222,0.1471312,1.265036,-0.03013654,-0.3542265,1.220786,-0.1619158,-0.119287,1.273724,0.2976596,-0.141902,1.250273,NA,NA,NotTracked,NotTracked,
0.8847656,-0.4077148,-0.03710938,1.033203,1.048828,0.1352539,-2,-2,0,-1,-1,-1,0,1,16,-2,-13,-27,-7,7,-2,9,4.8125,4.8125,4.8125,-3.75,-3.75,-3.75,2.322057,3.208884,7.142994,7.477976,3.569911,0.5132604,-0.1656467,-0.413525,1.201468,0.2820274,-0.3992704,1.110375,0.0626407,0.4082418,1.232734,-0.2139713,-0.4179999,1.193216,0.2653515,-0.4326761,1.132,0.06083443,-0.03737366,1.263892,0.05874951,-0.3660322,1.248168,-0.1273538,0.1472417,1.265186,-0.03074357,-0.3540712,1.220482,-0.1624601,-0.1192246,1.273767,0.2994278,-0.1384733,1.255445,NA,NA,NotTracked,NotTracked,
0.8876953,-0.4233398,-0.02148438,0.8051758,0.9160156,0.3203125,1,1,0,1,2,1,0,0,14,-11,-6,0,-7,-26,2,21,-2.1875,-2.1875,-2.1875,-92.25,-92.25,-92.25,2.321426,3.211208,7.143674,7.153321,3.888214,0.7786627,-0.1660082,-0.4140136,1.200559,0.2661669,-0.3265989,1.078708,0.06247456,0.4082264,1.23292,-0.2153136,-0.415632,1.189171,0.2801005,-0.3596438,1.095118,0.05992195,-0.03693607,1.263847,0.05678011,-0.3651075,1.247608,-0.1275265,0.1474239,1.26509,-0.03281407,-0.3529841,1.219629,-0.1632162,-0.1191464,1.27399,0.3033394,-0.1262713,1.264992,NA,NA,NotTracked,Unknown,
0.8828125,-0.4277344,-0.01611328,0.3266602,0.9155273,0.5009766,0,2,-1,0,-2,-2,0,-1,14,9,1,-9,-2,-1,1,4,-11.8125,-11.8125,-11.8125,-118.1875,-118.1875,-118.1875,2.303216,3.210571,7.145761,6.786261,4.465783,1.043409,-0.1669174,-0.4126514,1.200555,0.2365758,-0.2177259,1.038132,0.06240653,0.4081258,1.233054,-0.2152218,-0.4145665,1.189109,0.1851753,-0.2564937,1.038667,0.05827744,-0.03640294,1.26356,0.05244294,-0.3638096,1.246109,-0.1276589,0.1473974,1.265184,-0.03707278,-0.3516495,1.218138,-0.1639272,-0.119,1.273712,0.3089118,-0.09429101,1.272465,NA,NA,NotTracked,Unknown,
0.8911133,-0.4272461,-0.03027344,-0.1123047,0.6762695,0.4360352,0,0,1,0,-1,1,0,0,-21,-14,-9,-4,-5,-6,-13,-19,-6.3125,-6.3125,-6.3125,-77.0625,-77.0625,-77.0625,2.280265,3.211963,7.151339,6.589971,4.990153,1.181107,-0.1678538,-0.4134757,1.200287,0.2048444,-0.08664956,1.038751,0.06255699,0.4078106,1.233188,-0.2160417,-0.4156075,1.191699,0.1472498,-0.1189815,1.087187,0.05746769,-0.03609449,1.263584,0.05140849,-0.3632455,1.246038,-0.1276364,0.1474197,1.265131,-0.03800744,-0.3512011,1.218005,-0.1644788,-0.118977,1.27347,0.3193631,-0.07654595,1.23973,NA,NA,NotTracked,Unknown,
0.8876953,-0.4243164,-0.03222656,-0.4208984,0.6298828,0.3803711,-3,-1,-2,0,-1,-3,-1,-3,-1,-5,-3,-4,1,3,5,-1,-5.375,-5.375,-5.375,29.9375,29.9375,29.9375,2.282649,3.214533,7.141397,6.59318,5.530315,1.263103,-0.1689644,-0.4126717,1.198527,0.1897602,0.03496754,1.046129,0.06281695,0.407632,1.233441,-0.2182902,-0.4182603,1.189843,0.1396498,0.0324127,1.08208,0.05703981,-0.03622286,1.263618,0.05101063,-0.3633086,1.246019,-0.1274028,0.1475166,1.264861,-0.03845709,-0.3513964,1.218116,-0.1651172,-0.1184484,1.272825,0.2936004,-0.09079634,1.189103,NA,NA,NotTracked,Unknown,
0.8935547,-0.4335938,-0.02734375,-0.4506836,0.5869141,0.3725586,-1,-1,-2,-2,-1,-1,-1,1,-12,-23,-12,-5,-2,-1,0,3,-12.6875,-12.6875,-12.6875,21.3125,21.3125,21.3125,2.289093,3.216084,7.116546,6.712778,6.094405,1.385847,-0.1689408,-0.4125364,1.197659,0.1984177,0.0975702,1.061682,0.06302171,0.4072513,1.233728,-0.2184009,-0.4175545,1.188176,0.1566589,0.09268828,1.1013,0.05672247,-0.0364927,1.263813,0.05030946,-0.3639362,1.246008,-0.1275486,0.1477198,1.264622,-0.0395649,-0.3523008,1.218945,-0.1657494,-0.1180002,1.271976,0.2963367,-0.08514544,1.184178,NA,NA,NotTracked,Unknown,
0.8867188,-0.4326172,-0.04150391,-0.5244141,0.5244141,0.2431641,-3,-2,1,1,-1,1,0,-1,-10,1,-3,-4,-3,-1,2,1,-8.9375,-8.9375,-8.9375,19.5,19.5,19.5,2.297754,3.221496,7.087409,6.851277,6.356087,1.529218,-0.168825,-0.4109828,1.194204,0.2073315,0.1261011,1.064672,0.06326023,0.407276,1.234626,-0.2187825,-0.41798,1.187387,0.1682596,0.122658,1.114286,0.05635843,-0.03666992,1.263874,0.04968523,-0.364687,1.245806,-0.1274821,0.1477731,1.26455,-0.04052661,-0.3531129,1.219662,-0.1663862,-0.1174187,1.271071,0.2989031,-0.07683331,1.166652,NA,NA,NotTracked,Unknown,
0.8710938,-0.4248047,-0.04345703,-0.6855469,0.4438477,0.09423828,-2,-2,-2,0,-2,-1,-1,-2,15,13,8,5,4,2,3,6,10.125,10.125,10.125,-3.625,-3.625,-3.625,2.330436,3.242697,7.05807,6.967998,6.466564,1.664622,-0.1688339,-0.4130332,1.191242,0.1985962,0.1543518,1.070117,0.06346948,0.4071401,1.235936,-0.2205813,-0.4225533,1.182927,0.2630814,0.1754746,1.09875,0.05586233,-0.03715859,1.263722,0.04857303,-0.3657193,1.245657,-0.1275181,0.1479214,1.264572,-0.04203224,-0.3540431,1.220718,-0.1667457,-0.117155,1.270514,0.2996208,-0.07324024,1.135451,NA,NA,NotTracked,Unknown,
0.8896484,-0.418457,-0.02832031,-0.8525391,0.4243164,0.07128906,-2,-2,-2,0,-1,0,-1,-1,-5,-6,-3,-14,0,0,1,-14,17.5,17.5,17.5,26,26,26,2.364099,3.259159,7.050407,6.990317,6.477019,1.640645,-0.1686567,-0.4127908,1.188482,0.196605,0.1632859,1.038057,0.06356598,0.4073526,1.23731,-0.2195684,-0.4243056,1.174896,0.2471602,0.1689831,1.0426,0.05527174,-0.037576,1.263783,0.04744887,-0.3665849,1.2456,-0.1276651,0.147925,1.265966,-0.0435057,-0.354902,1.222063,-0.166832,-0.1167868,1.27017,0.3002224,-0.0681936,1.114611,NA,NA,NotTracked,Unknown,
0.8833008,-0.4262695,-0.03076172,-0.7851563,0.4770508,0.1416016,-1,0,0,-1,0,-2,-3,0,-2,-1,6,14,6,5,4,-2,8.8125,8.8125,8.8125,16,16,16,2.389275,3.265439,7.056713,6.882427,6.379666,1.454618,-0.1697522,-0.4132311,1.18738,0.197258,0.165382,0.993073,0.0633851,0.4075166,1.238942,-0.2185792,-0.4150233,1.177804,0.1710278,0.1671337,1.04425,0.05469025,-0.03806105,1.263877,0.04616432,-0.3672509,1.245274,-0.1278352,0.1480013,1.2669,-0.04487836,-0.3554466,1.222657,-0.1667954,-0.1166538,1.270167,0.2949713,-0.05840868,1.083909,NA,NA,NotTracked,Unknown,
0.8754883,-0.4394531,-0.02636719,-0.5844727,0.6079102,0.2880859,1,-1,-2,-2,-1,1,-1,-1,22,3,-3,-1,0,-2,-3,9,5.4375,5.4375,5.4375,17.4375,17.4375,17.4375,2.386567,3.260004,7.071566,6.749748,6.185861,1.241283,-0.1699076,-0.4133122,1.190775,0.1965756,0.1676026,0.9340767,0.06313852,0.4073326,1.241533,-0.2189452,-0.4162556,1.182631,0.1965551,0.1913326,0.95325,0.05433852,-0.03788959,1.264516,0.04561968,-0.366978,1.245147,-0.1279784,0.1473215,1.26899,-0.04545765,-0.3552137,1.222759,-0.1667891,-0.116521,1.270314,0.2865561,-0.03528105,1.050331,NA,NA,NotTracked,Unknown,
0.8666992,-0.4609375,-0.02392578,-0.3671875,0.7431641,0.4677734,0,0,1,0,0,1,-1,-1,16,8,5,2,-3,-1,6,25,3.5,3.5,3.5,28.125,28.125,28.125,2.372365,3.253636,7.095492,6.653287,5.8633,1.009114,-0.1700105,-0.4159638,1.193579,0.2031518,0.1506156,0.8770891,0.0628328,0.4070155,1.24468,-0.2188557,-0.4210173,1.182817,0.1545371,0.1920407,0.9318889,0.05408281,-0.0369039,1.265924,0.04527484,-0.3655224,1.244893,-0.1278064,0.147173,1.270256,-0.04580177,-0.3537503,1.222403,-0.1672544,-0.1157314,1.271232,0.2784506,-0.01731331,1.034381,NA,NA,NotTracked,Unknown,
0.8725586,-0.4741211,-0.01074219,-0.03613281,0.8398438,0.5117188,-1,-1,-2,-1,-1,0,-1,-1,-15,-24,-14,-11,-10,-5,-4,13,5.625,5.625,5.625,6.8125,6.8125,6.8125,2.355858,3.250104,7.125467,6.620636,5.617982,0.8828146,-0.1716213,-0.417299,1.197989,0.2075153,0.1310056,0.8291482,0.0626898,0.4070065,1.247314,-0.2198091,-0.4154682,1.19072,0.1543104,0.1819755,0.8780769,0.05377658,-0.03646874,1.26701,0.04502664,-0.3646822,1.244759,-0.1277931,0.1467775,1.274341,-0.0458658,-0.353211,1.22234,-0.1678784,-0.1156184,1.272247,0.2876222,-0.06509046,1.060259,NA,NA,NotTracked,Unknown,
0.8818359,-0.4765625,-0.009277344,-0.01171875,0.9150391,0.5634766,1,0,-2,-2,-2,-1,1,1,-45,-38,-13,6,-7,-6,-5,3,8.4375,8.4375,8.4375,1.875,1.875,1.875,2.33972,3.250463,7.159193,6.609448,5.418781,0.810355,-0.1734189,-0.4165463,1.201894,0.2092661,0.1095236,0.7954524,0.06271626,0.4066365,1.249745,-0.2194331,-0.4129118,1.190726,0.1564592,0.166871,0.8414375,0.05367474,-0.03642826,1.268437,0.04480551,-0.3645422,1.244882,-0.1276559,0.1465126,1.277911,-0.04593373,-0.3530679,1.222503,-0.1688353,-0.1153673,1.274017,0.2824587,-0.06357794,1.05734,NA,NA,NotTracked,Unknown,
0.8920898,-0.4506836,-0.0390625,-0.06982422,0.8881836,0.5786133,0,2,0,-1,-2,0,-1,-3,3,-3,-1,2,-4,-6,-3,15,8.6875,8.6875,8.6875,-6.3125,-6.3125,-6.3125,2.327504,3.253299,7.201756,6.597351,5.308775,0.7841209,-0.1745221,-0.416365,1.202496,0.2095884,0.09495636,0.7808002,0.06247646,0.4066229,1.251223,-0.2241157,-0.4222733,1.189906,0.1564083,0.1546117,0.8193,0.05359092,-0.03667201,1.269102,0.04436979,-0.3647087,1.24493,-0.1278491,0.1461143,1.279992,-0.04615009,-0.3532267,1.222772,-0.1697774,-0.1161104,1.275829,0.2751718,-0.06344938,1.05619,NA,NA,NotTracked,Unknown,
0.8681641,-0.4584961,-0.006347656,-0.1689453,0.8647461,0.5751953,-3,-2,-2,-1,-1,-2,-1,-1,-16,-23,-9,-1,10,4,13,30,1.625,1.625,1.625,-8.375,-8.375,-8.375,2.326679,3.256413,7.21547,6.582544,5.277486,0.784902,-0.1754979,-0.4164625,1.205975,0.2058229,0.09080525,0.7770469,0.06239494,0.4064616,1.251853,-0.2230876,-0.412779,1.195338,0.1568678,0.1525811,0.8058,0.0535659,-0.03702617,1.269672,0.04387196,-0.365163,1.245037,-0.1280124,0.1463018,1.281546,-0.04638441,-0.3535995,1.223037,-0.1705962,-0.1168892,1.277209,0.2717116,-0.06357708,1.055047,NA,NA,NotTracked,Unknown,
0.8676758,-0.4633789,-0.01074219,-0.2084961,0.8686523,0.5668945,0,-2,0,0,0,-2,0,0,-40,-24,-4,-10,-5,-9,-16,-29,-0.375,-0.375,-0.375,-3.75,-3.75,-3.75,2.319139,3.256422,7.226009,6.576967,5.280701,0.796461,-0.1764221,-0.4160751,1.205315,0.20426,0.08623197,0.7762669,0.06237658,0.4063354,1.252146,-0.2242648,-0.4165268,1.192426,0.1547435,0.1467736,0.8058333,0.05347795,-0.03739792,1.269829,0.04301921,-0.3659513,1.24492,-0.1281192,0.1461112,1.282078,-0.04698139,-0.3541645,1.223296,-0.1712801,-0.1172926,1.278501,0.2701363,-0.06426246,1.054669,NA,NA,NotTracked,Unknown,
0.8793945,-0.4492188,-0.02832031,-0.1914063,0.8647461,0.5375977,-1,-2,-1,0,1,0,-2,-1,-4,-10,-8,-7,9,1,-9,8,-0.125,-0.125,-0.125,-2.5,-2.5,-2.5,2.314575,3.254665,7.234632,6.572381,5.297108,0.808177,-0.1759069,-0.4178938,1.204434,0.2013679,0.08710092,0.7763591,0.0623756,0.4063051,1.252206,-0.2236817,-0.4197271,1.191996,0.1490528,0.1549988,0.8035323,0.05341783,-0.03765596,1.269897,0.04250876,-0.3663284,1.244851,-0.1282906,0.1460616,1.282414,-0.04736966,-0.3544927,1.223437,-0.1715397,-0.1174666,1.278843,0.2609218,-0.0672492,1.05027,NA,NA,NotTracked,Unknown,
0.8725586,-0.4580078,-0.0234375,-0.2080078,0.8217773,0.53125,-2,-2,0,0,-1,-4,-1,-1,22,8,-4,-8,2,0,-2,5,-1.8125,-1.8125,-1.8125,-2.125,-2.125,-2.125,2.316225,3.254488,7.230563,6.571827,5.324053,0.8164397,-0.1759929,-0.4172649,1.204174,0.2007707,0.09080373,0.7770118,0.06247004,0.4062287,1.25213,-0.225961,-0.4179975,1.198175,0.1523439,0.1514732,0.8084457,0.05337149,-0.03780949,1.26987,0.04197381,-0.3665654,1.244741,-0.128201,0.1462039,1.28253,-0.04781244,-0.3546971,1.223481,-0.1717516,-0.1174133,1.279095,0.2610191,-0.06725442,1.050138,NA,NA,NotTracked,Unknown,
0.871582,-0.4599609,-0.02587891,-0.1967773,0.8188477,0.5219727,1,-1,0,-2,0,0,0,1,-3,6,1,2,0,-3,-2,-4,-3.75,-3.75,-3.75,-0.1875,-0.1875,-0.1875,2.32058,3.255567,7.221311,6.573831,5.344157,0.8208681,-0.1766846,-0.4166062,1.203563,0.2022699,0.09465885,0.7799402,0.06250673,0.406185,1.252047,-0.2234827,-0.417174,1.191485,0.1551247,0.1533916,0.806,0.05331293,-0.03782546,1.269815,0.0416801,-0.3664522,1.244644,-0.1282358,0.1463026,1.282534,-0.04802953,-0.3545757,1.223434,-0.1718907,-0.1173059,1.27916,0.2614197,-0.06688426,1.050027,NA,NA,NotTracked,Unknown,
0.8725586,-0.4458008,-0.02392578,-0.04296875,0.7407227,0.4389648,-1,0,-1,-2,0,-1,-1,0,3,20,3,-4,-4,1,7,10,-5.9375,-5.9375,-5.9375,-6.625,-6.625,-6.625,2.324499,3.256895,7.209198,6.571663,5.367173,0.8350531,-0.1763862,-0.4167192,1.201162,0.202746,0.09664073,0.7808634,0.06258261,0.4061165,1.251779,-0.2258006,-0.4211395,1.19232,0.1521257,0.154592,0.8081477,0.05327343,-0.03782818,1.269713,0.04147829,-0.3662446,1.244468,-0.1282915,0.1463071,1.282316,-0.04816943,-0.3544614,1.223352,-0.1720524,-0.1171638,1.278983,0.2619981,-0.0668254,1.049891,NA,NA,NotTracked,Unknown,
0.8632813,-0.4423828,-0.02294922,0.03808594,0.7250977,0.3769531,-1,0,-1,0,-1,0,-1,0,-2,0,2,1,3,1,0,-15,-2.625,-2.625,-2.625,-10.75,-10.75,-10.75,2.329545,3.258365,7.197248,6.5705,5.371396,0.8418627,-0.1758884,-0.4150386,1.199073,0.2011477,0.09672339,0.7913385,0.06259089,0.4059853,1.251081,-0.2267866,-0.4277054,1.187624,0.1505774,0.1569637,0.8120277,0.05316667,-0.03793342,1.269373,0.04121289,-0.36626,1.244231,-0.1282599,0.1464034,1.281844,-0.04842571,-0.3544998,1.223249,-0.1720805,-0.1171336,1.278506,0.2663879,-0.0711488,1.053785,NA,NA,NotTracked,Unknown,
0.8945313,-0.4360352,-0.02929688,0.1293945,0.6826172,0.3540039,1,0,-1,0,0,0,1,0,-3,-1,4,3,-3,-4,-1,-1,3.5625,3.5625,3.5625,34.375,34.375,34.375,2.347876,3.261076,7.180532,6.635026,5.376772,0.9064125,-0.174568,-0.4147034,1.196676,0.1901824,0.08765476,0.8086054,0.06210074,0.405739,1.250366,-0.2246013,-0.4245708,1.187792,0.1330924,0.1427286,0.8285,0.05191964,-0.03923772,1.268362,0.04063519,-0.3678844,1.243662,-0.1285004,0.1463049,1.28125,-0.0490685,-0.3561504,1.223043,-0.1723635,-0.1170529,1.277939,0.2740539,-0.07733518,1.057032,NA,NA,NotTracked,Lasso,
0.9018555,-0.421875,-0.04541016,-0.03613281,0.6430664,0.3745117,0,-2,-2,-1,-2,-2,-1,-1,4,2,4,8,5,6,8,22,9.8125,9.8125,9.8125,86.6875,86.6875,86.6875,2.369599,3.261603,7.172509,6.802937,5.288022,1.029434,-0.1735814,-0.4168155,1.19553,0.1707325,0.04270261,0.8267633,0.0609556,0.4049836,1.24863,-0.2248233,-0.4268275,1.187675,0.1279808,0.09656844,0.8445,0.05118456,-0.04102257,1.266738,0.0400965,-0.3708133,1.243223,-0.1283364,0.1460036,1.27702,-0.04965724,-0.3593768,1.223019,-0.1726537,-0.1173158,1.277513,0.2662962,-0.06835922,1.031607,NA,NA,NotTracked,Unknown,
0.8833008,-0.4458008,-0.009277344,-0.2089844,0.8154297,0.3500977,0,0,-2,-1,-2,1,-1,0,3,3,1,5,5,-1,-1,0,5.75,5.75,5.75,108.9375,108.9375,108.9375,2.391032,3.258562,7.162609,6.983418,5.095933,1.121789,-0.1718176,-0.4193463,1.193083,0.1719734,-0.0445518,0.8489912,0.05856841,0.4050543,1.245749,-0.2236308,-0.4219837,1.189659,0.1247416,0.003122327,0.8526667,0.05022686,-0.04013628,1.265475,0.0400069,-0.3681056,1.242904,-0.1283375,0.1457568,1.274642,-0.04938859,-0.3571936,1.222256,-0.1722415,-0.1182183,1.276322,0.3138225,-0.03352939,1.104172,NA,NA,NotTracked,Unknown,
0.8608398,-0.4492188,-0.02001953,0.07568359,0.9726563,0.3500977,-1,-2,-2,0,0,0,0,-1,34,-3,0,4,5,-24,-2,13,3.625,3.625,3.625,53.5625,53.5625,53.5625,2.399733,3.249585,7.16334,7.1315,4.623884,1.170485,-0.1700981,-0.4197435,1.194376,0.1897804,-0.1508677,0.8832664,0.05608501,0.4045071,1.242417,-0.2213185,-0.4251923,1.186638,0.1481588,-0.1326352,0.9445,0.04966364,-0.03959761,1.264722,0.03895272,-0.3669986,1.242158,-0.1288721,0.1460259,1.272683,-0.05013704,-0.3562395,1.221266,-0.1720681,-0.1183378,1.27548,0.3528047,-0.05544737,1.158402,NA,NA,NotTracked,Unknown,
0.8754883,-0.4467773,-0.02197266,0.4399414,1.05127,0.1953125,0,1,0,-1,0,1,-1,0,8,-4,-2,0,-1,-1,0,4,-0.125,-0.125,-0.125,27.5625,27.5625,27.5625,2.38013,3.238118,7.187165,7.242568,4.079129,1.115295,-0.1701442,-0.4200716,1.195746,0.2113408,-0.2641233,0.9268917,0.05408532,0.4042645,1.239765,-0.2209774,-0.4256376,1.18817,0.1627184,-0.272144,0.973,0.0486131,-0.03927052,1.262991,0.03699095,-0.3661893,1.240358,-0.1293193,0.1453708,1.272732,-0.05211517,-0.3548071,1.218952,-0.171686,-0.1181809,1.274799,0.3324662,-0.09970638,1.164966,NA,NA,NotTracked,Unknown,
0.894043,-0.4448242,-0.03417969,0.8178711,1.033691,0.07958984,-1,-2,0,-2,0,-2,-1,0,53,-4,-3,-3,-2,-1,3,25,3.125,3.125,3.125,33.375,33.375,33.375,2.33461,3.225104,7.248898,7.408656,3.711215,0.955745,-0.1698546,-0.4205783,1.198422,0.2426441,-0.3563945,0.9984493,0.05274549,0.4043365,1.236896,-0.2191072,-0.4214321,1.190427,0.2091773,-0.3789921,1.00795,0.04907092,-0.03924838,1.262192,0.03933196,-0.3662949,1.240171,-0.1296867,0.1456257,1.270694,-0.0494797,-0.3546901,1.217845,-0.171469,-0.1187914,1.27399,0.3099221,-0.1080131,1.19635,NA,NA,NotTracked,Lasso,
0.8901367,-0.4301758,-0.02636719,0.8720703,0.8413086,-0.01025391,1,-1,-1,0,-1,-3,1,-1,2,0,-2,-2,-1,-2,-3,-4,-8.625,-8.625,-8.625,11.9375,11.9375,11.9375,2.305401,3.217075,7.275374,7.614442,3.42929,0.7306457,-0.1704178,-0.4208876,1.198911,0.2685987,-0.4073723,1.061987,0.05223249,0.4043975,1.234197,-0.2207389,-0.4271668,1.191438,0.2280914,-0.4101245,1.072688,0.05042936,-0.03937739,1.261351,0.04333476,-0.3668468,1.240526,-0.1300144,0.144851,1.270189,-0.04539809,-0.3551623,1.217426,-0.1711048,-0.1194101,1.273232,0.3050624,-0.1197907,1.207054,NA,NA,NotTracked,Lasso,
0.8774414,-0.4282227,-0.02978516,0.9755859,0.6108398,-0.07861328,-2,-2,-1,-2,0,-2,0,0,1,-2,-1,-1,0,0,-1,-2,-15.8125,-15.8125,-15.8125,19.5,19.5,19.5,2.277607,3.209972,7.283051,8.013522,3.176292,0.3155061,-0.1707229,-0.4212354,1.19957,0.283545,-0.43266,1.11665,0.05290334,0.4041621,1.231262,-0.2211382,-0.4265562,1.191015,0.241952,-0.4270853,1.118219,0.05182048,-0.03938917,1.26059,0.04665582,-0.3671198,1.241148,-0.1298901,0.1439662,1.268757,-0.04215827,-0.3555022,1.217284,-0.1706703,-0.1195791,1.272264,0.3016575,-0.1276733,1.215085,NA,NA,NotTracked,NotTracked,
0.875,-0.4272461,-0.02001953,0.9775391,0.5380859,-0.1928711,0,1,1,1,-1,0,1,-1,-3,-1,-3,-1,-2,-2,-2,-1,-17.625,-17.625,-17.625,-25.25,-25.25,-25.25,2.268921,3.207929,7.282693,8.242838,3.10681,0.05244958,-0.1705717,-0.4198673,1.198715,0.2939014,-0.4430336,1.157199,0.05459943,0.403693,1.227874,-0.2206882,-0.4253397,1.187587,0.2464417,-0.4256501,1.146375,0.05321319,-0.03943722,1.259905,0.04898788,-0.3672774,1.241737,-0.1297031,0.1441651,1.266257,-0.04002304,-0.3557003,1.217228,-0.1709259,-0.1188735,1.270724,0.298276,-0.1339276,1.221068,NA,NA,NotTracked,NotTracked,
0.8920898,-0.4121094,-0.04833984,0.9477539,0.4033203,-0.2089844,0,-2,-1,-2,-3,-1,-3,1,0,1,-1,-1,-1,0,-1,-1,-7.125,-7.125,-7.125,-52.9375,-52.9375,-52.9375,2.249683,3.206241,7.255704,8.296293,3.084537,9.905847,-0.1697554,-0.4197114,1.195776,0.2987908,-0.4392919,1.178813,0.05668391,0.4033131,1.22451,-0.2204536,-0.4256083,1.187372,0.260347,-0.4310009,1.179747,0.05428577,-0.03943285,1.259306,0.05053557,-0.3670793,1.242137,-0.1295798,0.1451069,1.264043,-0.03867299,-0.3555038,1.217221,-0.1708346,-0.1179141,1.268857,0.2962132,-0.1371174,1.226274,NA,NA,NotTracked,NotTracked,
0.8896484,-0.40625,-0.04443359,0.8857422,0.4418945,-0.121582,-2,-3,-2,-2,-1,-2,-2,-1,-1,0,-3,-1,-1,0,0,0,-4,-4,-4,-37.0625,-37.0625,-37.0625,2.271065,3.210669,7.224904,8.246683,3.096157,9.860278,-0.1687763,-0.4175355,1.193051,0.2992315,-0.4412482,1.1872,0.05844712,0.4030174,1.222257,-0.2197492,-0.4267843,1.184873,0.2477051,-0.4280035,1.167394,0.05554768,-0.03951716,1.258838,0.05217893,-0.3671446,1.242721,-0.1292671,0.1449716,1.262417,-0.0372605,-0.3556106,1.217156,-0.1708874,-0.1173625,1.267219,0.2952498,-0.1386118,1.233878,NA,NA,NotTracked,NotTracked,
0.890625,-0.4091797,-0.03076172,0.8989258,0.4101563,-0.1025391,-1,-2,-2,-1,-1,-1,0,0,0,1,-2,0,-3,0,-1,-2,-6.0625,-6.0625,-6.0625,-37.5,-37.5,-37.5,2.297622,3.214572,7.18749,8.187469,3.116272,9.848157,-0.1677702,-0.4165084,1.189835,0.2988994,-0.4376273,1.184928,0.06004834,0.4029972,1.220497,-0.2179946,-0.4248174,1.181937,0.2475886,-0.4256158,1.151182,0.05648848,-0.03956274,1.258526,0.05347858,-0.367236,1.24312,-0.1286998,0.1450797,1.26079,-0.03609329,-0.3557897,1.216935,-0.1711257,-0.1162518,1.265719,0.2950092,-0.1400513,1.240418,NA,NA,NotTracked,NotTracked,
0.8901367,-0.4077148,-0.03369141,0.9067383,0.3979492,-0.1269531,-1,0,-1,-1,-1,0,0,-1,-1,-3,-2,-1,-1,0,-1,0,-8.3125,-8.3125,-8.3125,-16.875,-16.875,-16.875,2.310469,3.213847,7.159677,8.131238,3.141176,9.864841,-0.1656786,-0.4163893,1.188595,0.3004615,-0.4384831,1.179551,0.06149661,0.4026736,1.219122,-0.2161501,-0.4268079,1.179974,0.249207,-0.4188546,1.142572,0.05728396,-0.03976554,1.258333,0.0545668,-0.3673743,1.243613,-0.1282486,0.145308,1.25927,-0.03513908,-0.3559486,1.216997,-0.1711489,-0.1157283,1.264576,0.2950419,-0.1405566,1.243818,NA,NA,NotTracked,NotTracked,
0.890625,-0.4125977,-0.046875,0.9155273,0.3671875,-0.1518555,-1,-1,-1,-3,-1,-1,-2,0,0,0,0,-1,-2,1,-3,0,-6.0625,-6.0625,-6.0625,3.3125,3.3125,3.3125,2.312509,3.211056,7.14502,8.113173,3.166888,9.881819,-0.1644675,-0.4194038,1.186818,0.3018895,-0.4362439,1.176401,0.06280768,0.402211,1.218205,-0.2124739,-0.429743,1.168024,0.2498357,-0.4386346,1.150544,0.05774726,-0.03985271,1.258301,0.05531839,-0.3675155,1.243859,-0.127875,0.1454103,1.258144,-0.03447852,-0.3560225,1.216886,-0.1711747,-0.1149091,1.263702,0.2950376,-0.1419848,1.24584,NA,NA,NotTracked,NotTracked,
0.8881836,-0.4140625,-0.03662109,0.9160156,0.3466797,-0.1401367,0,-1,0,-2,0,-2,-1,0,-1,0,-1,-2,-3,-2,-2,0,-0.4375,-0.4375,-0.4375,-4.625,-4.625,-4.625,2.313027,3.207604,7.137925,8.101538,3.179869,9.890751,-0.1643491,-0.4197515,1.18784,0.3042318,-0.4406642,1.174527,0.06412029,0.4019255,1.217661,-0.2141551,-0.4234461,1.178683,0.2543632,-0.4287432,1.137235,0.05824409,-0.03993764,1.258455,0.05597098,-0.3674922,1.244265,-0.1275583,0.1455114,1.257653,-0.03389245,-0.3559699,1.216985,-0.1709377,-0.1147523,1.263077,0.2950021,-0.1427683,1.247104,NA,NA,NotTracked,NotTracked,
