ALX,ALY,ALZ,ARX,ARY,ARZ,EMG0L,EMG1L,EMG2L,EMG3L,EMG4L,EMG5L,EMG6L,EMG7L,EMG0R,EMG1R,EMG2R,EMG3R,EMG4R,EMG5R,EMG6R,EMG7R,GLX,GLY,GLZ,GRX,GRY,GRZ,ORL,OPL,OYL,ORR,OPR,OYR,LHNX,LHNY,LHNZ,RHNX,RHNY,RHNZ,HX,HY,HZ,LTX,LTY,LTZ,RTX,RTY,RTZ,SpineMidX,SpineMidY,SpineMidZ,SpineBaseX,SpineBaseY,SpineBaseZ,ShoulderLeftX,ShoulderLeftY,ShoulderLeftZ,ShoulderRightX,ShoulderRightY,ShoulderRightZ,ElbowLeftX,ElbowLeftY,ElbowLeftZ,ElbowRightX,ElbowRightY,ElbowRightZ,Myo_Pose_left,Myo_Pose_Right,Kinect_pose_left,Kinect_pose_right
0.9414063,0.309082,0.003417969,0.9511719,-0.5927734,0.02539063,1,8,-3,0,-1,0,-2,0,-2,-1,6,1,-3,-5,-5,0,-1,-1,-1,-1.6875,-1.6875,-1.6875,7.47697,2.989704,9.701321,2.719332,3.135126,6.512171,-0.1762591,-0.4490625,1.581558,0.2759316,-0.4400966,1.568905,0.06327532,0.4034032,1.654669,-0.2175797,-0.4288458,1.575748,0.3084189,-0.4381432,1.567936,0.0590026,-0.06457093,1.672555,0.06099824,-0.3870584,1.651739,-0.122609,0.1215736,1.667054,-0.01475253,-0.3781254,1.618247,-0.1775513,-0.1260633,1.676628,0.2786209,-0.1519429,1.652212,NA,NA,NotTracked,NotTracked,
0.9384766,0.362793,-0.04052734,1.004395,-0.4682617,0.005371094,0,0,-3,1,-2,-1,0,-4,-1,-3,3,1,8,0,-6,-2,-14.375,-14.375,-14.375,23.4375,23.4375,23.4375,7.465801,3.000369,9.702834,2.766247,3.181163,6.486602,-0.1783444,-0.450794,1.576798,0.2766418,-0.4396738,1.5672,0.06336349,0.4034788,1.655037,-0.2221165,-0.4185356,1.577526,0.2985435,-0.4483138,1.545879,0.059032,-0.06462286,1.672662,0.061044,-0.3871522,1.65184,-0.1225742,0.1215841,1.667145,-0.01469278,-0.3782527,1.618383,-0.1782605,-0.1333451,1.675919,0.2786711,-0.1519507,1.652285,NA,NA,NotTracked,NotTracked,
0.9848633,0.3149414,-0.01904297,0.9746094,-0.4814453,0.1044922,0,-1,-9,-5,-1,-1,-2,4,-3,0,0,5,3,-3,0,-2,-28.6875,-28.6875,-28.6875,5.875,5.875,5.875,7.41835,3.021106,9.719444,2.840827,3.237549,6.414871,-0.1818163,-0.4507815,1.569773,0.2762491,-0.4395235,1.56256,0.06342211,0.4034281,1.655339,-0.2206314,-0.4223598,1.561958,0.2938724,-0.4481745,1.534317,0.05900256,-0.06466889,1.672767,0.06101016,-0.3872311,1.651884,-0.1225459,0.121571,1.667323,-0.01474596,-0.3783242,1.618442,-0.179057,-0.1350319,1.675697,0.2789007,-0.1518752,1.652495,NA,NA,NotTracked,NotTracked,
0.9804688,0.390625,0.004394531,0.9926758,-0.5068359,0.1870117,2,4,14,4,4,-1,1,2,-3,0,-3,-2,-15,-1,0,-2,-9.6875,-9.6875,-9.6875,-7.5,-7.5,-7.5,7.345852,3.057486,9.779804,2.93161,3.317356,6.307081,-0.185374,-0.4456812,1.558693,0.2656545,-0.4707553,1.553866,0.06358869,0.4034315,1.65586,-0.2170286,-0.4209474,1.544118,0.2982883,-0.4601943,1.538633,0.05900427,-0.06472664,1.672898,0.06101305,-0.3873139,1.65197,-0.1225292,0.1215886,1.667537,-0.01474385,-0.3783727,1.618527,-0.1801884,-0.1357401,1.675861,0.2801533,-0.1517897,1.653234,NA,NA,NotTracked,NotTracked,
1.048828,0.4160156,0.08007813,0.9702148,-0.5219727,0.2124023,0,0,-19,-2,2,0,3,1,-3,-2,-20,-33,-50,-1,-3,-1,-18.125,-18.125,-18.125,-14.625,-14.625,-14.625,7.220474,3.123149,9.894922,2.981514,3.366018,6.241025,-0.1878897,-0.4390447,1.541075,0.2538578,-0.4853097,1.546807,0.06362306,0.4034726,1.656355,-0.2203962,-0.4304222,1.546714,0.2865725,-0.4712704,1.52092,0.05902564,-0.06476025,1.672948,0.06103043,-0.3873565,1.65198,-0.122496,0.1216693,1.667872,-0.01472049,-0.3784061,1.618558,-0.1815914,-0.1364063,1.676182,0.2816691,-0.1515017,1.654092,NA,NA,NotTracked,NotTracked,
1.076172,0.4077148,0.1459961,0.9711914,-0.5634766,0.2944336,-1,-13,-15,-8,-4,-3,14,2,-2,-3,-17,-3,-8,-2,0,-4,-6.1875,-6.1875,-6.1875,-20.5,-20.5,-20.5,7.140279,3.167332,9.977511,3.08057,3.483336,6.098197,-0.1835265,-0.4209534,1.529159,0.2510221,-0.4779753,1.532155,0.0638187,0.4035192,1.65733,-0.2189475,-0.4064101,1.52975,0.2696278,-0.4472872,1.48997,0.0590528,-0.06479397,1.67304,0.06102853,-0.3873944,1.652001,-0.1224425,0.1217699,1.668321,-0.01472303,-0.3784328,1.618582,-0.1851632,-0.1287187,1.679737,0.284254,-0.1510637,1.654959,NA,NA,NotTracked,NotTracked,
1.093262,0.4926758,0.2304688,0.8725586,-0.6552734,0.3955078,0,-21,-21,-20,3,6,1,3,-2,1,-1,6,-9,-14,-2,-2,33.0625,33.0625,33.0625,-36.625,-36.625,-36.625,6.999487,3.294255,0.1600045,3.160215,3.631495,5.954473,-0.1753659,-0.4013201,1.512725,0.2457615,-0.4698615,1.518353,0.06401419,0.4034584,1.65806,-0.1787932,-0.3857458,1.471742,0.2680115,-0.4413167,1.476571,0.05901949,-0.0648223,1.673085,0.06090692,-0.3874454,1.651971,-0.1224045,0.1218435,1.668686,-0.01488198,-0.3784226,1.618557,-0.187609,-0.1242893,1.680644,0.2868505,-0.1492147,1.655683,NA,NA,Unknown,NotTracked,
0.9575195,0.7246094,0.347168,0.7558594,-0.7636719,0.4428711,-5,0,-3,9,-2,-2,14,0,0,-5,-1,9,8,-13,-1,-2,23.0625,23.0625,23.0625,-19.5625,-19.5625,-19.5625,6.887087,3.475483,0.3308998,3.234334,3.804296,5.809452,-0.1695355,-0.3655531,1.499762,0.2541368,-0.3867421,1.492671,0.06408224,0.4034947,1.658608,-0.1938692,-0.3735786,1.459562,0.2788219,-0.3810159,1.466334,0.05902568,-0.06482348,1.673122,0.06088889,-0.3874515,1.651952,-0.1223658,0.1219711,1.669007,-0.01493495,-0.3784036,1.618512,-0.1910713,-0.1186321,1.682067,0.2908915,-0.1463514,1.6573,NA,NA,Unknown,Unknown,
0.8212891,0.7324219,0.4916992,0.5683594,-0.6713867,0.5,-3,5,0,-7,-23,-14,0,0,-4,-2,-6,-25,-12,-1,-1,1,-15.375,-15.375,-15.375,7.5,7.5,7.5,6.765511,3.691675,0.4778127,3.332617,3.991854,5.658484,-0.1363565,-0.3480886,1.503036,0.23491,-0.3637314,1.474922,0.06424737,0.4034551,1.659775,-0.1659156,-0.3342313,1.441677,0.2468658,-0.3436784,1.433739,0.05903209,-0.06483354,1.673167,0.06087853,-0.3874674,1.651927,-0.1223639,0.1221365,1.669441,-0.01499461,-0.3784062,1.618431,-0.1942672,-0.1105283,1.683922,0.2974369,-0.1416207,1.65593,NA,NA,Unknown,Unknown,
0.6669922,0.6723633,0.5195313,0.4750977,-0.6582031,0.5126953,5,7,6,-25,-5,-1,-24,0,-2,-5,-11,-19,-49,-3,-4,-4,-29.625,-29.625,-29.625,6.6875,6.6875,6.6875,6.703801,3.812315,0.540473,3.374314,4.093281,5.593019,-0.1150973,-0.3141797,1.486889,0.1945537,-0.3260347,1.495949,0.06445153,0.4034112,1.660214,-0.1590012,-0.3110861,1.425308,0.2420001,-0.2943666,1.428723,0.05905212,-0.06482628,1.673216,0.06088664,-0.3874564,1.651891,-0.1222789,0.1222654,1.669801,-0.01499234,-0.3783905,1.618379,-0.1978249,-0.09952492,1.682829,0.3088526,-0.1202092,1.658573,NA,NA,Unknown,Unknown,
0.6669922,0.6723633,0.5195313,0.3764648,-0.6860352,0.5361328,-2,6,11,-5,-2,-1,0,-4,0,0,-7,4,-9,-14,-4,-3,-29.625,-29.625,-29.625,-6.1875,-6.1875,-6.1875,6.703801,3.812315,0.540473,3.428835,4.297251,5.472965,-0.08866614,-0.2352079,1.442024,0.183498,-0.2241763,1.423342,0.065083,0.4032279,1.661113,-0.06087828,-0.2758512,1.504909,0.1334496,-0.2449798,1.470727,0.05899702,-0.06477397,1.673267,0.06047041,-0.3871792,1.651527,-0.122155,0.1225421,1.670374,-0.01523426,-0.3780933,1.618158,-0.2052658,-0.08437201,1.680321,0.3111064,-0.09801178,1.658529,NA,NA,Unknown,Unknown,
0.3393555,0.6665039,0.5117188,0.3217773,-0.6831055,0.5219727,-3,-2,2,39,-35,-8,4,-5,-3,-4,1,-4,-3,9,-1,0,-4.0625,-4.0625,-4.0625,1.3125,1.3125,1.3125,6.60259,4.19578,0.6811998,3.452393,4.399078,5.417199,-0.06733763,-0.1977191,1.43764,0.1732718,-0.1786534,1.421351,0.06543174,0.4030266,1.661726,-0.04771734,-0.2514028,1.507643,0.1191641,-0.1903518,1.4898,0.05904276,-0.06468207,1.673455,0.06043841,-0.3869916,1.651597,-0.1219629,0.1228028,1.670665,-0.01521019,-0.3779441,1.618268,-0.2089121,-0.08289882,1.677629,0.3165659,-0.09640573,1.655175,NA,NA,Unknown,Unknown,
0.1455078,0.6450195,0.4697266,0.2001953,-0.7182617,0.4829102,1,1,3,11,-28,-6,0,0,1,-1,-2,4,-7,-6,-2,3,2.625,2.625,2.625,0.3125,0.3125,0.3125,6.560927,4.564342,0.7862287,3.486557,4.596258,5.316431,-0.05223279,-0.1598357,1.435852,0.1724786,-0.1394783,1.417158,0.06593087,0.4028353,1.662557,-0.02902912,-0.2106213,1.508643,0.1179732,-0.1489513,1.5005,0.05904152,-0.06450119,1.673857,0.06041846,-0.3866174,1.651916,-0.1217646,0.1230935,1.670989,-0.01520384,-0.3774708,1.61875,-0.2093024,-0.08296363,1.672655,0.319758,-0.09547354,1.651989,NA,NA,Unknown,Lasso,
0.06152344,0.699707,0.4545898,0.144043,-0.6352539,0.2099609,0,-3,7,-6,-16,-2,-4,13,0,-2,-3,19,5,-13,6,0,12.3125,12.3125,12.3125,2.875,2.875,2.875,6.560726,4.772211,0.8417531,3.509902,4.851718,5.198584,-0.0311571,-0.1268906,1.430973,0.1629149,-0.1028067,1.412199,0.06640763,0.4026862,1.66341,0.004475358,-0.1734101,1.51,0.1087879,-0.1016263,1.48,0.05903136,-0.06432521,1.674366,0.06033712,-0.3861717,1.652441,-0.1216239,0.1233112,1.671192,-0.0151774,-0.3768024,1.619459,-0.2098107,-0.08291347,1.667777,0.3242348,-0.09427381,1.639829,NA,NA,NotTracked,Lasso,
0.08007813,0.6943359,0.4692383,-0.07128906,-0.7324219,0.4936523,4,6,7,7,-13,-4,-13,-3,-2,1,7,10,1,-6,-2,4,10,10,10,-1.375,-1.375,-1.375,6.563435,4.860382,0.8666441,3.510378,4.923565,5.174762,-0.02497308,-0.09485266,1.428266,0.1578403,-0.07538038,1.413424,0.06665593,0.4024903,1.664126,0.007414647,-0.1396539,1.512882,0.09859899,-0.06575087,1.456091,0.05899987,-0.06414652,1.674761,0.06021156,-0.3857097,1.652847,-0.1213919,0.1234298,1.671291,-0.01518838,-0.3762026,1.620055,-0.2097119,-0.08316443,1.660246,0.3266569,-0.09321462,1.634087,NA,NA,NotTracked,NotTracked,
-0.01904297,0.7407227,0.4633789,0.03320313,-0.7260742,0.496582,1,0,-4,10,22,3,2,-5,-1,-2,-2,1,5,0,-3,-3,18.625,18.625,18.625,-11.125,-11.125,-11.125,6.578733,5.004155,0.9142856,3.50188,5.040026,5.139051,-0.02452022,-0.06998089,1.423523,0.1584949,-0.05855355,1.414113,0.06694408,0.4022589,1.665033,0.005980198,-0.1089422,1.51225,0.0934155,-0.0365952,1.438333,0.05897614,-0.06366484,1.675183,0.05989818,-0.3841568,1.653243,-0.1210382,0.12356,1.671401,-0.01520964,-0.3755979,1.620444,-0.2090059,-0.08331993,1.653675,0.3267418,-0.09261548,1.623073,NA,NA,NotTracked,NotTracked,
-0.01806641,0.7612305,0.503418,0.05615234,-0.8120117,0.5576172,1,0,-6,-3,-12,-2,3,1,1,0,21,27,1,1,1,-2,19.875,19.875,19.875,-11.6875,-11.6875,-11.6875,6.589577,5.055542,0.9339143,3.484696,5.109433,5.114651,-0.01810726,-0.0514144,1.423067,0.1623801,-0.04782389,1.417392,0.06725861,0.4021477,1.665949,0.008954527,-0.08726849,1.511167,0.1432218,-0.009485437,1.4106,0.05896937,-0.06328438,1.675659,0.05986207,-0.3832127,1.653716,-0.120605,0.1237178,1.671511,-0.01510947,-0.3751715,1.620941,-0.2060777,-0.08400299,1.643791,0.3277049,-0.09174928,1.618761,NA,NA,NotTracked,NotTracked,
-0.01513672,0.7885742,0.5214844,-0.02978516,-0.7705078,0.5834961,3,18,19,19,3,-1,-4,-1,0,-1,-7,-13,-13,-11,-3,-4,25.4375,25.4375,25.4375,5.625,5.625,5.625,6.622496,5.149584,0.981181,3.488927,5.158198,5.101968,-0.01270281,-0.03680919,1.420563,0.1445475,-0.02899592,1.413506,0.06763043,0.4020475,1.666895,0.007029165,-0.07297691,1.5146,0.0830287,-0.01724915,1.449429,0.05895555,-0.06320094,1.676014,0.05988845,-0.3830711,1.653973,-0.1201911,0.1238043,1.671561,-0.0150491,-0.3748835,1.621177,-0.2046565,-0.08412126,1.640053,0.324247,-0.09132489,1.605507,NA,NA,NotTracked,NotTracked,
-0.05078125,0.855957,0.512207,0.02490234,-0.7744141,0.5083008,-6,-12,-43,-11,-5,-3,-6,-1,-1,-1,-2,-15,-2,-12,-3,-2,14.8125,14.8125,14.8125,-13.1875,-13.1875,-13.1875,6.647926,5.178414,1.010595,3.479642,5.181399,5.102176,-0.0248767,-0.03082808,1.41989,0.1059272,-0.01730677,1.408511,0.06792799,0.402037,1.667595,0.009711426,-0.04609366,1.399067,0.08364752,-0.01144448,1.430818,0.05895931,-0.06292488,1.676355,0.05989235,-0.3824703,1.654246,-0.1199242,0.123859,1.671634,-0.0149708,-0.3745994,1.621553,-0.2026636,-0.08448538,1.636337,0.3230935,-0.09048979,1.59913,NA,NA,NotTracked,NotTracked,
-0.05078125,0.8388672,0.5292969,0.01171875,-0.7944336,0.5976563,-3,-5,-5,-14,-8,-3,-2,-1,0,2,14,8,0,-2,0,-1,11.5,11.5,11.5,-18.0625,-18.0625,-18.0625,6.654737,5.184203,1.025176,3.471044,5.184722,5.101645,-0.02169972,-0.02373287,1.416283,0.03242622,-0.007619545,1.408303,0.06817398,0.4019357,1.668242,0.003607405,-0.0449366,1.410727,-0.01317893,-0.04514576,1.386273,0.05906671,-0.0629431,1.676647,0.06001589,-0.3825238,1.654392,-0.1195612,0.1238452,1.67167,-0.01479438,-0.3745631,1.621782,-0.2009652,-0.08467053,1.632544,0.3230982,-0.0898174,1.595955,NA,NA,NotTracked,NotTracked,
-0.02294922,0.8320313,0.6728516,-0.06201172,-0.8183594,0.6328125,1,0,-2,-29,-7,-4,-2,1,-2,-1,1,1,1,-7,-5,-1,0.6875,0.6875,0.6875,-1.1875,-1.1875,-1.1875,6.652844,5.198025,1.043859,3.467291,5.19406,5.09179,-0.02123587,-0.01989541,1.41724,0.03369331,-0.002869603,1.408197,0.06845065,0.4018227,1.668969,0.01703398,-0.03638227,1.41475,-0.01254982,-0.04278381,1.396,0.05909015,-0.0627021,1.676985,0.06005978,-0.3820336,1.65464,-0.1193629,0.1239105,1.671761,-0.01471084,-0.3743619,1.622111,-0.1999559,-0.08460297,1.629751,0.3216153,-0.08868358,1.589971,NA,NA,NotTracked,NotTracked,
-0.6044922,0.875,0.581543,-0.1713867,-0.7768555,0.5673828,-2,-7,-1,8,6,2,-3,0,0,-2,1,5,3,4,-3,-4,12.875,12.875,12.875,4.5,4.5,4.5,6.657915,5.232201,1.046579,3.475237,5.206326,5.079637,-0.0211268,-0.01642847,1.417194,0.03431644,0.0009181403,1.408904,0.06855117,0.4018467,1.669405,0.006891715,-0.03760682,1.407079,-0.01272386,-0.04174006,1.390929,0.05911762,-0.06254845,1.6772,0.06011589,-0.3817402,1.654784,-0.1191589,0.12402,1.67185,-0.01463632,-0.3742767,1.622231,-0.1990044,-0.08452199,1.627712,0.3204279,-0.08716165,1.584104,NA,NA,NotTracked,NotTracked,
0.05419922,0.8452148,0.5488281,-0.1884766,-0.859375,0.5991211,-4,10,-7,-3,-6,-4,-6,-14,0,-1,-3,0,-4,-4,-1,3,30.8125,30.8125,30.8125,-6.5625,-6.5625,-6.5625,6.660135,5.245941,1.025926,3.469038,5.216712,5.07236,-0.02040542,-0.01413753,1.417287,0.03492108,0.003534175,1.410656,0.06863101,0.4017996,1.669764,0.004625705,-0.03359378,1.407154,-0.01076154,-0.03699695,1.389966,0.05911074,-0.0624488,1.677481,0.06006976,-0.3815561,1.655004,-0.1190895,0.1240111,1.671877,-0.01464238,-0.3742819,1.622521,-0.1993544,-0.08415011,1.626136,0.3210545,-0.08584017,1.580967,NA,NA,NotTracked,NotTracked,
-0.3491211,0.8959961,0.4296875,-0.1938477,-0.7958984,0.5893555,2,-4,-2,2,-1,2,0,12,1,-1,-4,-8,-4,-3,0,-2,18.3125,18.3125,18.3125,9.375,9.375,9.375,6.670578,5.269008,1.01028,3.475779,5.229978,5.067415,0.1043557,0.01364232,1.402994,0.1583243,-0.002029994,1.399918,0.06871001,0.401644,1.670156,0.151367,-0.02664478,1.378572,0.1385581,-0.01853523,1.364704,0.05921913,-0.06245549,1.678047,0.06023476,-0.3816607,1.655563,-0.1190047,0.1240358,1.671978,-0.01443001,-0.3742868,1.623007,-0.1997346,-0.08358526,1.623786,0.3166815,-0.08283257,1.569036,NA,NA,NotTracked,NotTracked,
-0.2412109,0.7363281,0.4614258,-0.2504883,-0.8461914,0.5263672,6,0,-1,-1,4,11,4,35,-4,-4,-11,-7,0,14,-1,-2,10.75,10.75,10.75,6.625,6.625,6.625,6.672081,5.298654,0.9815298,3.477185,5.239642,5.068443,-0.00509564,-0.002533354,1.420246,0.1495134,0.005914465,1.389418,0.06892579,0.4017105,1.670588,0.05077129,-0.003326224,1.407129,0.1487045,0.02102101,1.351238,0.05922394,-0.0623722,1.678164,0.06019165,-0.3815085,1.655617,-0.1188661,0.1241611,1.672044,-0.01442962,-0.3742786,1.62305,-0.1996388,-0.08336914,1.623359,0.3183903,-0.08200206,1.569208,NA,NA,NotTracked,NotTracked,
-0.1855469,0.7294922,0.46875,-0.2128906,-0.8549805,0.5673828,1,-2,-7,-15,24,-10,-8,-11,-1,-2,-1,-3,-3,-8,-1,-5,9.125,9.125,9.125,6.75,6.75,6.75,6.669619,5.272278,0.9530376,3.481209,5.276374,5.081825,-0.00611071,0.0007540655,1.420597,0.153033,-0.001313248,1.377,0.0689555,0.4017749,1.670727,0.007058631,-0.03314601,1.519667,0.1580621,0.0007443354,1.336392,0.0592462,-0.06230099,1.678313,0.0602308,-0.3813922,1.655724,-0.1187025,0.1241703,1.672072,-0.01436064,-0.3742944,1.623176,-0.1994653,-0.08329979,1.622972,0.3191605,-0.08115947,1.568128,NA,NA,NotTracked,NotTracked,
-0.04541016,0.8505859,0.4394531,-0.1879883,-0.7910156,0.5585938,1,2,2,6,4,0,-13,-26,-2,-2,-4,-1,0,-2,0,0,74.125,74.125,74.125,-7.8125,-7.8125,-7.8125,6.722692,5.222646,0.9140508,3.477211,5.29735,5.09248,-0.006385546,0.004481843,1.419843,0.1559461,-0.01540552,1.365944,0.06903788,0.401702,1.67097,0.04010412,-0.004089897,1.421133,0.1642054,-0.02044251,1.32463,0.05924559,-0.06231838,1.678498,0.06023747,-0.3814143,1.655851,-0.1186556,0.124219,1.67211,-0.01434274,-0.3741996,1.623382,-0.1993599,-0.08319692,1.622515,0.3195735,-0.08028889,1.56704,NA,NA,NotTracked,NotTracked,
-0.04541016,0.8505859,0.4394531,-0.1796875,-0.8125,0.5380859,-2,-20,-12,-4,4,-8,5,-10,0,0,0,-2,-2,4,-3,0,74.125,74.125,74.125,-9.0625,-9.0625,-9.0625,6.722692,5.222646,0.9140508,3.468291,5.306198,5.110126,-0.007307685,0.01129852,1.415504,0.1627565,-0.05199376,1.366476,0.06908114,0.4016376,1.67165,0.03507631,0.0002552721,1.413,0.1412788,-0.02757587,1.333821,0.05922359,-0.06234591,1.678686,0.06028158,-0.381529,1.655975,-0.1185833,0.12434,1.672165,-0.01428318,-0.3741028,1.623755,-0.1988602,-0.0830977,1.621649,0.3232727,-0.07769204,1.564602,NA,NA,NotTracked,NotTracked,
-0.08154297,0.9208984,0.5366211,-0.1630859,-0.7827148,0.5400391,-7,24,14,-2,-17,2,-10,1,-1,-1,-4,-6,-6,-3,-2,-6,-26.75,-26.75,-26.75,-12.5,-12.5,-12.5,6.772144,5.129245,0.9290769,3.459808,5.300591,5.125666,-0.007573256,0.01124376,1.412116,0.1644813,-0.06284153,1.380549,0.06912562,0.4015552,1.671896,0.02867765,-0.003362809,1.4071,0.1864143,-0.04558198,1.36136,0.05920718,-0.0623161,1.678802,0.06021252,-0.3814852,1.656052,-0.1184597,0.1244911,1.672219,-0.0143048,-0.3741977,1.624091,-0.1988864,-0.08280905,1.621218,0.3264126,-0.07670106,1.565461,NA,NA,NotTracked,NotTracked,
0.02392578,0.90625,0.4301758,-0.1708984,-0.8276367,0.5551758,2,-2,3,10,-8,6,16,11,-2,-4,-9,-9,1,6,1,-1,19.5625,19.5625,19.5625,-13.6875,-13.6875,-13.6875,6.784321,5.085854,0.9720477,3.446805,5.281953,5.136519,-0.00776864,0.0101037,1.409559,0.1620086,-0.06220752,1.399096,0.06926495,0.4015216,1.672189,0.04027745,0.00195551,1.407714,0.1542324,-0.05207894,1.364354,0.05919525,-0.0623142,1.678988,0.06016133,-0.3814882,1.656202,-0.1184327,0.12454,1.672297,-0.01433293,-0.3741029,1.624379,-0.1987109,-0.08267625,1.620448,0.3283216,-0.07601935,1.566245,NA,NA,NotTracked,NotTracked,
-0.1186523,1.108887,0.6005859,-0.1235352,-0.8056641,0.5864258,-16,-65,5,7,-7,-5,0,0,-1,1,1,-1,-6,-9,-5,-3,-1.9375,-1.9375,-1.9375,-9.9375,-9.9375,-9.9375,6.782199,5.078609,0.9979957,3.439337,5.254018,5.145341,-0.00859157,0.007105887,1.406162,0.1612874,-0.05284452,1.41706,0.06930929,0.4014913,1.672361,0.05456723,-0.007232261,1.406667,0.1514655,-0.04777461,1.378424,0.05917851,-0.06229188,1.679087,0.06010598,-0.3814251,1.656316,-0.1183913,0.1245841,1.672345,-0.01435455,-0.3741902,1.624667,-0.1988392,-0.08243411,1.619736,0.3294792,-0.0756324,1.566537,NA,NA,NotTracked,NotTracked,
-0.2128906,0.796875,0.5712891,-0.1201172,-0.8378906,0.6083984,14,-3,-1,7,2,-2,-2,6,-1,-3,-3,0,-5,-9,-2,-2,-79.1875,-79.1875,-79.1875,-6.1875,-6.1875,-6.1875,6.645948,5.129308,1.048825,3.433965,5.229158,5.145869,-0.01494915,0.0008775704,1.402105,0.09439246,-0.02558349,1.41604,0.06939811,0.4015068,1.672444,-0.004399888,-0.02516266,1.4024,0.1016153,0.004450774,1.406333,0.05918788,-0.06225001,1.679165,0.06010322,-0.3813073,1.656435,-0.1183438,0.1246105,1.672368,-0.01428509,-0.3741918,1.624978,-0.1989529,-0.08218527,1.618863,0.3293225,-0.07552033,1.566056,NA,NA,NotTracked,NotTracked,
-0.3544922,0.809082,0.4736328,-0.1665039,-0.8442383,0.6049805,23,6,3,-1,6,-4,1,1,1,2,2,1,3,15,-1,-2,-22.5,-22.5,-22.5,4.5625,4.5625,4.5625,6.606212,5.210329,1.035702,3.437977,5.216381,5.139138,-0.01524666,-0.002553041,1.401034,0.01390756,0.006458556,1.393887,0.06949317,0.4015088,1.672524,0.007859177,-0.02615543,1.3944,0.03547882,0.02685506,1.380079,0.05919097,-0.06220147,1.679201,0.06009618,-0.381156,1.656463,-0.1182486,0.1246738,1.6724,-0.0142732,-0.3741657,1.624998,-0.1992772,-0.08173297,1.617678,0.3284814,-0.07559858,1.565263,NA,NA,NotTracked,NotTracked,
-0.3510742,0.8447266,0.4663086,-0.1923828,-0.824707,0.5834961,4,-3,-4,-9,1,6,-12,3,-1,-2,1,-2,-2,-5,0,-1,-14.5625,-14.5625,-14.5625,4.0625,4.0625,4.0625,6.597769,5.249797,1.017275,3.44402,5.217786,5.130702,-0.008276813,-0.006051961,1.40213,0.1534258,0.001364761,1.412706,0.06963824,0.4014893,1.672456,0.02871386,-0.02374239,1.395,0.1678996,0.02431798,1.400469,0.05927851,-0.06218645,1.679379,0.06009669,-0.3811864,1.656658,-0.1180705,0.1247601,1.672428,-0.01425494,-0.3741521,1.625088,-0.1991859,-0.08149093,1.617054,0.3268724,-0.07570807,1.564623,NA,NA,NotTracked,NotTracked,
-0.2436523,0.7143555,0.4477539,-0.1977539,-0.8383789,0.5561523,1,8,3,56,6,-6,-20,-4,-2,-2,-2,0,2,3,0,-2,15.25,15.25,15.25,5.75,5.75,5.75,6.586336,5.316449,0.9307199,3.448861,5.228095,5.125945,-0.007996477,-0.006112693,1.403103,0.1540336,0.004947012,1.399913,0.06969119,0.4014602,1.672427,0.04369375,-0.01246443,1.383364,0.1649853,0.03082104,1.388158,0.05928803,-0.06215664,1.679394,0.06009996,-0.3811465,1.656651,-0.1180432,0.1247786,1.672431,-0.01424968,-0.3741674,1.625072,-0.1987264,-0.08113401,1.614451,0.3258786,-0.07575552,1.563868,NA,NA,NotTracked,NotTracked,
-0.1206055,0.8813477,0.4038086,-0.168457,-0.8432617,0.5556641,-34,2,12,-11,-2,-7,0,-7,-2,-2,-1,-5,-4,-4,-5,-2,71.8125,71.8125,71.8125,4.5625,4.5625,4.5625,6.651035,5.321842,0.8832683,3.453802,5.237679,5.126889,-0.007427814,-0.005775384,1.403937,0.1564452,0.0006860656,1.393127,0.06982137,0.4014666,1.672386,-0.01489255,-0.01287036,1.36282,0.1514277,0.0143685,1.353441,0.05929882,-0.0621555,1.679411,0.0601018,-0.381148,1.656655,-0.1179765,0.1248076,1.672436,-0.01422524,-0.3742462,1.625064,-0.1986554,-0.08107937,1.614318,0.3237762,-0.07600857,1.562193,NA,NA,NotTracked,NotTracked,
-0.06298828,0.9609375,0.5258789,-0.1547852,-0.8364258,0.546875,4,12,6,36,0,-2,-3,2,-2,-3,-1,-4,-5,0,0,2,49.375,49.375,49.375,3.4375,3.4375,3.4375,6.677518,5.308392,0.8746716,3.455244,5.241241,5.128845,-0.005376988,-0.004467651,1.404237,0.156572,-0.004259742,1.394565,0.06985769,0.4014611,1.672425,-0.01945742,0.02408548,1.370312,0.1526974,0.00503305,1.352078,0.05928337,-0.06211977,1.679457,0.0600573,-0.3810652,1.656692,-0.1179306,0.1248248,1.672439,-0.01424242,-0.3742382,1.625097,-0.1983861,-0.0811786,1.614454,0.3235556,-0.07608538,1.562334,NA,NA,NotTracked,NotTracked,
-0.2319336,0.7441406,0.6083984,-0.1318359,-0.8681641,0.5932617,0,14,2,6,10,5,10,-3,1,0,1,0,-2,1,1,5,-19.8125,-19.8125,-19.8125,-1.625,-1.625,-1.625,6.649549,5.258202,0.9007437,3.449869,5.241812,5.135315,-0.006419594,-0.00451606,1.403329,0.1562148,-0.008030547,1.397345,0.06990679,0.4014201,1.672496,-0.01881437,0.02057439,1.367354,0.1499796,0.01083738,1.354842,0.05929559,-0.06216891,1.679527,0.0600515,-0.3812014,1.656783,-0.1178908,0.1248426,1.672475,-0.01424772,-0.3742338,1.625127,-0.1981612,-0.08115853,1.614117,0.3234552,-0.07601507,1.562395,NA,NA,NotTracked,NotTracked,
-0.262207,0.8862305,0.4785156,-0.1547852,-0.7988281,0.5683594,3,5,4,13,-17,2,2,3,-1,-1,-6,-4,-2,-3,9,1,-1.8125,-1.8125,-1.8125,3.125,3.125,3.125,6.647337,5.252773,0.908547,3.455841,5.243745,5.139482,-0.006798143,-0.002767885,1.402223,0.1565216,-0.01155595,1.401451,0.06995963,0.401425,1.672474,-0.02063382,0.01461368,1.364846,0.1259181,-0.04058962,1.388313,0.05929466,-0.06212733,1.679548,0.06000268,-0.3810794,1.656737,-0.1178025,0.1248802,1.672498,-0.0143083,-0.3741121,1.624987,-0.1973901,-0.08138815,1.614123,0.3233341,-0.07595223,1.562365,NA,NA,NotTracked,NotTracked,
-0.2587891,0.8525391,0.4785156,-0.1738281,-0.8212891,0.5620117,-3,-9,-3,-26,-4,1,-4,-3,-1,-3,0,0,-1,4,-3,-1,5.875,5.875,5.875,-6,-6,-6,6.650919,5.258503,0.9013132,3.451759,5.243798,5.137691,-0.006964003,-0.002487226,1.403376,0.1566173,-0.01198992,1.403082,0.06998535,0.4014342,1.672477,-0.02008713,0.01622672,1.365676,0.09841587,-0.007791878,1.431833,0.05931621,-0.06216142,1.679619,0.06002811,-0.3812181,1.656886,-0.1177946,0.1249083,1.672528,-0.01426999,-0.3740854,1.625118,-0.1969648,-0.08150529,1.61406,0.3233616,-0.07595271,1.562456,NA,NA,NotTracked,NotTracked,
-0.2172852,0.878418,0.5146484,-0.1894531,-0.8369141,0.5673828,-3,-12,-3,9,21,-1,-2,-1,-1,-3,-4,-4,-2,-1,1,-3,-2.1875,-2.1875,-2.1875,0.8125,0.8125,0.8125,6.65297,5.257989,0.8970304,3.449969,5.242809,5.133479,-0.007206701,-0.002671058,1.402978,0.156819,-0.01279585,1.401822,0.07000469,0.4014266,1.67248,-0.01918036,0.0224663,1.367959,0.09810251,-0.007167086,1.434111,0.05930991,-0.06212409,1.679637,0.05995959,-0.3810737,1.656895,-0.1177923,0.1249188,1.672536,-0.01428747,-0.3740655,1.625123,-0.1970124,-0.08147544,1.614068,0.323489,-0.07603668,1.562906,NA,NA,NotTracked,NotTracked,
-0.1850586,0.8237305,0.5161133,-0.1513672,-0.8193359,0.5556641,-9,-7,4,1,2,-3,-3,4,-2,-1,-2,-2,2,-1,-3,-2,-4,-4,-4,-2.9375,-2.9375,-2.9375,6.644181,5.255232,0.8939403,3.44921,5.240717,5.135641,-0.006751769,-0.002516881,1.401751,0.156423,-0.01324322,1.400511,0.07005455,0.4014529,1.672428,-0.01996629,0.02019914,1.365516,0.09867917,-0.006777101,1.42932,0.05931203,-0.06210387,1.67964,0.05994232,-0.3809615,1.656858,-0.1177349,0.1249639,1.672536,-0.01428813,-0.3740645,1.625122,-0.1969524,-0.08140738,1.613949,0.3233963,-0.07602153,1.562916,NA,NA,NotTracked,NotTracked,
-0.1811523,0.8457031,0.5200195,-0.1552734,-0.8369141,0.5878906,-1,-3,-5,-7,-21,-6,-1,-1,0,-3,0,0,1,1,-1,0,5.3125,5.3125,5.3125,-5.0625,-5.0625,-5.0625,6.646336,5.25453,0.8934091,3.444579,5.238433,5.140141,-0.007448511,-0.003089153,1.401515,0.1566645,-0.01421865,1.400398,0.07011326,0.4014738,1.672377,-0.02018296,0.01951003,1.366012,0.0982836,-0.007780857,1.431202,0.05931037,-0.06212144,1.679657,0.05992537,-0.3810276,1.656896,-0.1176771,0.1250553,1.672559,-0.01429921,-0.3740462,1.625154,-0.1967425,-0.08132679,1.613731,0.3234215,-0.07602791,1.562961,NA,NA,NotTracked,NotTracked,
-0.2006836,0.8881836,0.5112305,-0.1420898,-0.8076172,0.5810547,0,0,-5,3,3,-2,-1,-2,-1,0,0,-2,1,1,-4,0,-5.6875,-5.6875,-5.6875,2.75,2.75,2.75,6.649943,5.251059,0.8951102,3.448707,5.235535,5.143209,-0.007625347,-0.003596264,1.401648,0.1558831,-0.01538002,1.400796,0.07019872,0.4014909,1.672342,-0.01985024,0.01946258,1.36667,0.09634577,-0.008396469,1.42975,0.05931502,-0.06211874,1.679674,0.05991862,-0.381058,1.656888,-0.1176583,0.1250622,1.672549,-0.01429379,-0.3740439,1.625164,-0.1966563,-0.0813074,1.613532,0.3233203,-0.076118,1.563227,NA,NA,NotTracked,NotTracked,
-0.1870117,0.8520508,0.5131836,-0.1337891,-0.7885742,0.5737305,-1,-7,-1,-5,4,1,-1,-4,-3,-1,-1,-3,-1,-2,-1,-1,2.25,2.25,2.25,1.9375,1.9375,1.9375,6.64881,5.251955,0.8940049,3.45409,5.231944,5.145594,-0.008300102,-0.00430983,1.400245,0.155928,-0.01550064,1.399122,0.0702356,0.4014816,1.672303,-0.02084832,0.01910044,1.365626,0.09962416,-0.01411356,1.4218,0.05933286,-0.06211832,1.679678,0.05996497,-0.3810824,1.656884,-0.1176179,0.1251052,1.672532,-0.01424061,-0.3739839,1.625149,-0.19639,-0.08130026,1.613262,0.3235873,-0.07622242,1.563883,NA,NA,NotTracked,NotTracked,
-0.1870117,0.8554688,0.5097656,-0.109375,-0.7827148,0.5751953,0,-4,-2,-15,0,-2,1,-1,-1,-1,-2,-1,-2,-1,1,-1,2.625,2.625,2.625,0.4375,0.4375,0.4375,6.649958,5.253073,0.8923042,3.455916,5.226593,5.14783,-0.007831833,-0.005286629,1.40044,0.1561317,-0.01577254,1.398906,0.07023472,0.4014821,1.672302,-0.02190067,0.0123309,1.359903,0.1675682,0.004095906,1.409353,0.05933456,-0.06211115,1.679679,0.05996805,-0.3810439,1.656874,-0.1175937,0.1251142,1.672521,-0.01423451,-0.3740021,1.625153,-0.1963215,-0.08124784,1.612961,0.3233564,-0.07636098,1.564029,NA,NA,NotTracked,NotTracked,
-0.1801758,0.7749023,0.4995117,-0.1098633,-0.7402344,0.5073242,-3,-6,-3,0,-2,-2,-3,-5,1,-2,2,-1,-1,0,-3,-1,-5.25,-5.25,-5.25,4.125,4.125,4.125,6.638722,5.250712,0.8831616,3.46457,5.191415,5.160838,-0.006419112,-0.006182703,1.399302,0.1561759,-0.01718312,1.398659,0.07031483,0.4014968,1.672274,-0.02094985,0.01650755,1.364113,0.1264937,-0.003596838,1.431,0.0593312,-0.06206429,1.679683,0.05991285,-0.3808662,1.656862,-0.1175851,0.1251243,1.672521,-0.01425006,-0.3739635,1.625147,-0.1961361,-0.08130545,1.612956,0.3235178,-0.0763776,1.564389,NA,NA,NotTracked,NotTracked,
-0.1728516,0.7646484,0.4736328,-0.08447266,-0.7407227,0.4941406,-2,0,1,-1,-2,-2,-1,-2,-1,-1,-5,-10,-2,-3,-4,-3,-5,-5,-5,-0.625,-0.625,-0.625,6.634435,5.243582,0.8757463,3.464687,5.166516,5.170314,-0.006338813,-0.01038713,1.398999,0.1564841,-0.01965267,1.396973,0.07041444,0.401555,1.672266,-0.02051226,0.01636517,1.365492,0.09665867,-0.01291724,1.424833,0.05934247,-0.06209375,1.679732,0.0599091,-0.3809884,1.656967,-0.1175785,0.1251492,1.672533,-0.01425609,-0.3739691,1.625178,-0.196604,-0.08118091,1.613373,0.3238261,-0.0767407,1.565367,NA,NA,NotTracked,NotTracked,
-0.2167969,0.7202148,0.4541016,-0.05517578,-0.7416992,0.5351563,1,-2,-1,1,0,1,-1,3,0,-1,-2,-2,0,-2,3,2,-6.5625,-6.5625,-6.5625,11.3125,11.3125,11.3125,6.623143,5.214748,0.848555,3.475426,5.09657,5.193815,-0.007045775,-0.01851064,1.395831,0.1562722,-0.02600315,1.392001,0.07047412,0.4015293,1.67212,-0.02385477,0.007539603,1.361122,0.09621204,-0.01737136,1.418333,0.05935198,-0.06205108,1.679719,0.05988336,-0.3808503,1.65692,-0.1175614,0.1251519,1.672533,-0.01425701,-0.3739592,1.62518,-0.1964441,-0.08126761,1.613535,0.3240195,-0.07710522,1.566493,NA,NA,NotTracked,NotTracked,
-0.05761719,0.6757813,0.4384766,-0.03662109,-0.7045898,0.5180664,1,1,0,-7,-2,-6,1,2,1,0,-1,-1,0,3,10,3,-15.1875,-15.1875,-15.1875,-1.6875,-1.6875,-1.6875,6.600497,5.06893,0.7915145,3.48301,5.006332,5.233083,-0.01268176,-0.05089063,1.391935,0.1647195,-0.06129381,1.37632,0.07107832,0.4014314,1.67131,-0.02909848,-0.03066362,1.352673,0.1376386,-0.09147683,1.357563,0.05934997,-0.06204815,1.67972,0.05988647,-0.3808978,1.656945,-0.1174921,0.1251522,1.672534,-0.01426437,-0.3738196,1.625196,-0.1951093,-0.08217599,1.615611,0.3264163,-0.07946992,1.575132,NA,NA,NotTracked,NotTracked,
-0.06152344,0.6669922,0.4492188,0.01757813,-0.7402344,0.5063477,14,-1,-3,-18,-4,-2,0,-1,-1,0,-1,1,-2,-2,8,-1,-15.4375,-15.4375,-15.4375,-26.6875,-26.6875,-26.6875,6.59142,4.992723,0.7722133,3.456377,4.887957,5.286857,-0.01422104,-0.07671247,1.387463,0.1698591,-0.09206307,1.371845,0.07156539,0.4015368,1.670758,-0.03070272,-0.05434318,1.347929,0.1152772,-0.09404349,1.42775,0.0593422,-0.06201505,1.679712,0.0598529,-0.3808555,1.656958,-0.1174927,0.125153,1.672539,-0.01429656,-0.3738181,1.625238,-0.194198,-0.08327907,1.619701,0.3294514,-0.08070582,1.582378,NA,NA,NotTracked,NotTracked,
0.1005859,0.7143555,0.4448242,0.09228516,-0.8569336,0.46875,18,-1,-2,-3,-1,1,-1,2,-2,-1,1,-2,0,-1,5,0,0.9375,0.9375,0.9375,-17.0625,-17.0625,-17.0625,6.59013,4.805016,0.7252837,3.424223,4.73672,5.346134,-0.01770358,-0.110665,1.384786,0.1722077,-0.1282781,1.363762,0.07206869,0.4016428,1.670487,-0.03317052,-0.08651657,1.34584,0.1262518,-0.1558761,1.4,0.05934154,-0.06201567,1.679717,0.05986535,-0.3808943,1.656985,-0.1174752,0.1251415,1.672564,-0.01431522,-0.3737202,1.625239,-0.1929283,-0.08450235,1.624309,0.3593264,-0.07702717,1.606635,NA,NA,NotTracked,NotTracked,
0.1933594,0.684082,0.4926758,0.2758789,-0.7226563,0.5029297,9,0,-3,-3,-2,-2,0,2,1,-1,1,-2,-9,-2,-2,-5,-10.6875,-10.6875,-10.6875,30,30,30,6.588177,4.702008,0.6974924,3.433901,4.563239,5.403206,-0.02349486,-0.1482078,1.385695,0.1788054,-0.1686927,1.364735,0.07267385,0.4016287,1.670103,-0.03710372,-0.1214721,1.344315,0.1652535,-0.2114805,1.353833,0.05932157,-0.06207726,1.67971,0.05980443,-0.3813149,1.656983,-0.1174787,0.1251238,1.672609,-0.01439429,-0.373797,1.625157,-0.1927452,-0.08557718,1.631864,0.3573965,-0.07732689,1.606593,NA,NA,NotTracked,Closed,
0.4482422,0.6821289,0.4091797,0.3925781,-0.5927734,0.4643555,2,1,0,3,0,-1,-1,2,-3,-2,4,1,-1,-2,0,0,36,36,36,-17.3125,-17.3125,-17.3125,6.637729,4.36187,0.6189131,3.409652,4.363517,5.464529,-0.03378528,-0.1875252,1.395025,0.1851255,-0.214879,1.371228,0.07356827,0.4012614,1.669163,-0.04822977,-0.1690447,1.348042,0.1378807,-0.2221395,1.399167,0.05919956,-0.06225157,1.679567,0.05934544,-0.3821722,1.65659,-0.117545,0.1251218,1.672668,-0.01475727,-0.3743133,1.624657,-0.1906895,-0.08648129,1.633204,0.3547082,-0.07596152,1.614948,NA,NA,Closed,Closed,
0.5795898,0.7446289,0.4477539,0.5571289,-0.7509766,0.4824219,-2,0,0,5,1,-2,1,3,-2,-1,-4,-1,2,-3,-23,-5,16.4375,16.4375,16.4375,-33.1875,-33.1875,-33.1875,6.678947,4.127877,0.5831555,3.343826,4.160958,5.528202,-0.04315399,-0.2298991,1.404171,0.193324,-0.2600761,1.380365,0.07429818,0.4011757,1.668389,-0.05585807,-0.2042491,1.357105,0.1664893,-0.2323828,1.36895,0.0590241,-0.06245704,1.679358,0.0587463,-0.3830077,1.656114,-0.1175775,0.1251385,1.672713,-0.01531174,-0.3747364,1.624121,-0.1889218,-0.08738847,1.636271,0.3485892,-0.08152122,1.616511,NA,NA,Closed,Unknown,
0.5795898,0.7446289,0.4477539,0.5571289,-0.7509766,0.4824219,-2,0,0,5,1,-2,1,3,-2,-1,-4,-1,2,-3,-23,-5,16.4375,16.4375,16.4375,-33.1875,-33.1875,-33.1875,6.678947,4.127877,0.5831555,3.343826,4.160958,5.528202,-0.05700395,-0.2678539,1.418438,0.2035831,-0.3024366,1.402089,0.07504453,0.4011405,1.668059,-0.06651036,-0.2454096,1.369221,0.2076338,-0.2962928,1.3558,0.05894279,-0.06277954,1.679161,0.05862498,-0.384131,1.655711,-0.1176507,0.1251923,1.672773,-0.01554955,-0.3753459,1.623665,-0.185771,-0.08893529,1.643529,0.3104297,-0.09874626,1.6251,NA,NA,Closed,Unknown,
0.5380859,0.7001953,0.4384766,0.6660156,-0.7597656,0.3979492,-42,-6,-1,26,2,0,-1,-3,0,0,-1,0,1,0,-1,-1,17.25,17.25,17.25,-25.625,-25.625,-25.625,6.698711,4.008185,0.5640619,3.272791,3.957966,5.604185,-0.07109703,-0.3001689,1.44038,0.2173336,-0.3391189,1.428314,0.07569052,0.4011438,1.667661,-0.07267252,-0.268587,1.390726,0.1883712,-0.3691461,1.496727,0.05914622,-0.06316017,1.678816,0.05930959,-0.3852564,1.655077,-0.1177101,0.1251435,1.672803,-0.01517727,-0.3762373,1.622959,-0.1840104,-0.08971114,1.646608,0.3054232,-0.1007581,1.625368,NA,NA,Closed,Unknown,
0.8706055,0.65625,0.3608398,0.8208008,-0.7075195,0.3691406,-7,-1,-1,7,-1,-6,-1,-1,-1,-2,-2,0,-1,-1,2,1,37.0625,37.0625,37.0625,29.5,29.5,29.5,6.825438,3.649366,0.4633128,3.236439,3.762567,5.686915,-0.07833649,-0.3252627,1.473432,0.2325093,-0.3652217,1.449502,0.07642239,0.4010248,1.666984,-0.07969822,-0.3054048,1.408798,0.198169,-0.3624725,1.451778,0.05952776,-0.06350872,1.678374,0.06072684,-0.3862783,1.654234,-0.1178116,0.125044,1.672789,-0.01414612,-0.3773673,1.621912,-0.1815577,-0.09071448,1.65036,0.2974588,-0.1176025,1.623656,NA,NA,Unknown,Unknown,
0.9350586,0.5957031,0.2353516,0.809082,-0.5444336,0.2963867,-8,-1,0,2,-3,1,0,-2,-2,-2,-3,-6,-4,-4,-6,-5,18.125,18.125,18.125,23.75,23.75,23.75,6.954082,3.431725,0.3362933,3.189662,3.578261,5.79149,-0.1040896,-0.3568592,1.465931,0.2500741,-0.3819949,1.477725,0.07742744,0.4009725,1.666168,-0.1179337,-0.3556824,1.427718,0.2132707,-0.3798124,1.466467,0.06001864,-0.06369508,1.677993,0.06213084,-0.3867864,1.653616,-0.1178281,0.1249912,1.672798,-0.01314064,-0.3779203,1.621267,-0.1783203,-0.091772,1.654511,0.2942527,-0.1220978,1.62676,NA,NA,Unknown,Unknown,
1.053711,0.5600586,0.1523438,0.9570313,-0.5737305,0.2314453,9,1,-2,3,0,1,2,1,-1,-2,1,-5,-6,-1,4,-2,11.25,11.25,11.25,5.75,5.75,5.75,7.029133,3.331061,0.2558075,3.089101,3.408879,5.92826,-0.1206682,-0.3754105,1.486563,0.2469899,-0.4429783,1.498421,0.07815579,0.400935,1.665498,-0.1338699,-0.3789508,1.449768,0.213716,-0.4295993,1.521437,0.06041871,-0.06385228,1.677709,0.06310342,-0.387112,1.653245,-0.1178803,0.124885,1.672786,-0.01241394,-0.37833,1.620859,-0.1745554,-0.0961199,1.659058,0.289932,-0.1297323,1.630956,NA,NA,Unknown,Unknown,
1.106934,0.4423828,-0.004882813,0.9951172,-0.5444336,0.1484375,1,0,-1,-2,0,-2,-2,1,1,-1,-2,-3,-2,-2,-3,-1,-13,-13,-13,20,20,20,7.310394,3.089679,9.936646,2.9701,3.264753,6.085987,-0.1317126,-0.3941834,1.512038,0.2601881,-0.4584299,1.525756,0.07870735,0.4010477,1.664992,-0.1689927,-0.4221201,1.515,0.2189463,-0.4621213,1.5092,0.06093526,-0.06402777,1.677417,0.06428318,-0.3875093,1.653018,-0.1178905,0.1247873,1.672729,-0.0113385,-0.3788517,1.620569,-0.1739839,-0.09934935,1.660968,0.2872592,-0.1344319,1.634243,NA,NA,Unknown,Unknown,
1.118652,0.3891602,-0.06982422,1.017578,-0.4501953,0.07519531,-1,2,0,2,-1,-2,-3,0,-2,-1,-2,-2,-4,-2,-7,0,-15.875,-15.875,-15.875,24.5625,24.5625,24.5625,7.551986,2.991889,9.664148,2.827452,3.150454,6.272826,-0.149553,-0.4286475,1.555731,0.2871114,-0.4490297,1.574902,0.08048275,0.4012525,1.663229,-0.1985551,-0.4211123,1.561,0.2512496,-0.4398569,1.567955,0.06118586,-0.06423328,1.677041,0.06463008,-0.3877954,1.652905,-0.1178857,0.1244739,1.672454,-0.01105441,-0.379095,1.620363,-0.1724984,-0.1103476,1.664357,0.2843444,-0.1446393,1.640292,NA,NA,Unknown,NotTracked,
1.075684,0.3911133,-0.1225586,1.025391,-0.3979492,0.03515625,5,1,0,1,-1,-2,1,-3,-1,0,-1,-2,-3,-3,-1,0,-14.9375,-14.9375,-14.9375,14.8125,14.8125,14.8125,7.660151,2.962442,9.543063,2.662653,3.066555,6.470885,-0.1587182,-0.4390014,1.575399,0.291987,-0.4549581,1.592769,0.08133408,0.4012347,1.662607,-0.2034877,-0.4319761,1.567694,0.2606103,-0.4456224,1.57273,0.06126728,-0.0643182,1.676958,0.06475864,-0.387997,1.653069,-0.1177215,0.1241254,1.672122,-0.0109661,-0.37922,1.620452,-0.172271,-0.1138747,1.666506,0.283806,-0.1503737,1.646748,NA,NA,NotTracked,NotTracked,
0.9658203,0.331543,-0.06152344,0.9990234,-0.3823242,0.02978516,1,-1,-2,0,-5,-5,1,3,-1,-1,1,2,-3,-2,-2,-1,2.1875,2.1875,2.1875,11.875,11.875,11.875,7.843678,2.907212,9.342104,2.523347,3.01178,6.633451,-0.1656578,-0.4457488,1.591894,0.2913366,-0.4593365,1.606659,0.08193324,0.4012929,1.661908,-0.2140893,-0.4504359,1.5908,0.2415671,-0.4282905,1.601933,0.06131065,-0.06440989,1.676855,0.06474876,-0.3881755,1.65317,-0.1176653,0.1239887,1.671957,-0.01097123,-0.3792813,1.620488,-0.1728146,-0.1312454,1.669649,0.2844845,-0.1527772,1.650737,NA,NA,NotTracked,NotTracked,
0.9169922,0.3833008,0.01855469,1.010742,-0.3798828,0.03222656,-3,-3,-1,-2,-1,1,-1,-3,-1,-1,-4,-3,-2,-3,-1,-3,17.5,17.5,17.5,12.5625,12.5625,12.5625,7.86937,2.893874,9.332584,2.436112,2.978922,6.739801,-0.1754927,-0.4476357,1.606554,0.2896625,-0.4607168,1.613356,0.08241296,0.4012412,1.66109,-0.220173,-0.4291556,1.607217,0.2430373,-0.4508399,1.60395,0.0613547,-0.06444623,1.67679,0.06476892,-0.3882502,1.653314,-0.1176388,0.1238798,1.671818,-0.01096188,-0.3792903,1.620511,-0.173157,-0.1356084,1.671515,0.2858401,-0.1539511,1.655478,NA,NA,NotTracked,NotTracked,
0.8950195,0.4174805,0.05615234,0.9765625,-0.3774414,0.06054688,2,0,0,1,0,1,-1,-4,0,-1,-1,4,-3,1,-1,-2,6.3125,6.3125,6.3125,7.5625,7.5625,7.5625,7.853038,2.893797,9.351968,2.409312,2.960367,6.781092,-0.1808659,-0.4497542,1.617848,0.2895797,-0.4526334,1.616345,0.08300726,0.4012329,1.660304,-0.2249905,-0.4476108,1.6226,0.2421762,-0.4333747,1.603064,0.06148504,-0.06454676,1.676618,0.06486128,-0.3883773,1.65339,-0.1175924,0.123689,1.671504,-0.01089605,-0.3793629,1.62053,-0.1734058,-0.1382005,1.673022,0.2868544,-0.1547025,1.658633,NA,NA,NotTracked,NotTracked,
0.8828125,0.3574219,0.08154297,0.9316406,-0.3754883,0.06298828,1,2,1,0,-4,-6,1,-1,1,0,0,4,-2,-2,2,2,-31,-31,-31,9.1875,9.1875,9.1875,7.782516,2.902204,9.383602,2.423811,2.953766,6.778134,-0.1872682,-0.4507017,1.636569,0.2894348,-0.4534103,1.621272,0.08372352,0.4012064,1.65931,-0.2288854,-0.4287165,1.643786,0.2428138,-0.4313853,1.60399,0.06164972,-0.06466876,1.67644,0.06507456,-0.3886125,1.653566,-0.1174648,0.1233829,1.671112,-0.0107314,-0.3794854,1.620507,-0.1752978,-0.1420251,1.680093,0.288337,-0.1567217,1.666066,NA,NA,NotTracked,NotTracked,
0.8886719,0.3193359,0.04345703,0.9145508,-0.3886719,0.1044922,-1,0,0,-1,-1,1,0,-3,0,0,-3,-3,-1,-2,-1,-1,-33.375,-33.375,-33.375,16.125,16.125,16.125,7.76457,2.910261,9.361429,2.461061,2.960649,6.756571,-0.1864702,-0.4492581,1.636865,0.2890282,-0.4544645,1.617743,0.08397331,0.4011659,1.658874,-0.2281055,-0.4274271,1.646125,0.2446228,-0.4479832,1.59735,0.06168465,-0.06474367,1.676236,0.065056,-0.3886544,1.653543,-0.1174546,0.1231217,1.670805,-0.01075373,-0.37949,1.620395,-0.1757503,-0.1362561,1.683911,0.2886384,-0.1588163,1.667248,NA,NA,NotTracked,NotTracked,
0.9072266,0.3208008,-0.006347656,0.9072266,-0.3496094,0.04638672,-5,-2,-1,-1,-2,0,0,-1,-4,-2,-1,-1,-1,2,-2,-4,-30.5625,-30.5625,-30.5625,28.75,28.75,28.75,7.763952,2.9161,9.343809,2.50159,2.970202,6.747538,-0.1849071,-0.4481984,1.639708,0.2880775,-0.4585598,1.617097,0.08417978,0.4011847,1.658694,-0.2254406,-0.4316727,1.638273,0.2425797,-0.4442338,1.600242,0.06171601,-0.0647483,1.6762,0.0651093,-0.3886725,1.653618,-0.1173965,0.1230707,1.670649,-0.01071655,-0.3794915,1.620403,-0.1762457,-0.1331922,1.687367,0.2885311,-0.1582604,1.668393,NA,NA,NotTracked,NotTracked,
0.9438477,0.2734375,-0.03417969,0.9140625,-0.3330078,0.05859375,-13,-3,-3,-2,-2,1,-1,-4,-2,-1,-1,-3,-1,-3,0,-2,-19.1875,-19.1875,-19.1875,21.625,21.625,21.625,7.755284,2.930516,9.31199,2.546162,2.984142,6.729361,-0.1838384,-0.4480721,1.637035,0.2955959,-0.4405103,1.612577,0.08438929,0.4011851,1.658365,-0.2241632,-0.4434704,1.642143,0.2638494,-0.4382206,1.585622,0.06179418,-0.06476243,1.676043,0.065132,-0.3886803,1.653609,-0.11731,0.1229982,1.670447,-0.01068998,-0.379486,1.620361,-0.1762151,-0.1369961,1.689074,0.2884847,-0.1580265,1.668652,NA,NA,NotTracked,NotTracked,
0.9526367,0.2358398,-0.04931641,0.9404297,-0.3227539,0.02441406,3,-1,-2,-2,2,4,-5,-3,-2,-3,-2,-3,-1,-1,-2,0,-2.4375,-2.4375,-2.4375,18.3125,18.3125,18.3125,7.745916,2.937436,9.31405,2.577329,2.999212,6.719448,-0.1821609,-0.447764,1.634639,0.2914222,-0.4545434,1.608453,0.08458005,0.4012599,1.658267,-0.2213542,-0.4278617,1.639449,0.2518096,-0.4602768,1.5835,0.06179513,-0.06478132,1.676026,0.06507878,-0.3887665,1.653722,-0.1172621,0.1229131,1.670317,-0.0107231,-0.3795233,1.620429,-0.1762928,-0.1378955,1.689538,0.2883491,-0.1577598,1.668722,NA,NA,NotTracked,NotTracked,
0.9501953,0.2456055,-0.04003906,0.9628906,-0.3051758,-0.00390625,-6,0,-1,-4,-1,-2,-2,-1,1,-1,0,-2,-1,-2,0,-1,4.75,4.75,4.75,17.25,17.25,17.25,7.73755,2.942302,9.324967,2.607305,3.014294,6.708023,-0.1805295,-0.4478023,1.627436,0.29089,-0.4536557,1.598407,0.08495919,0.4012854,1.658226,-0.2143586,-0.4440057,1.626423,0.2499607,-0.4700982,1.567818,0.06179131,-0.06484749,1.676026,0.06497354,-0.389085,1.654034,-0.1171343,0.1227908,1.670052,-0.01081033,-0.3797036,1.620706,-0.1748928,-0.1339472,1.690636,0.2883227,-0.1582189,1.667702,NA,NA,NotTracked,NotTracked,
0.9482422,0.2783203,-0.04541016,0.9755859,-0.2900391,-0.01757813,-7,-1,-1,-1,1,-5,-2,0,-1,-2,-2,-2,-2,-2,-3,-2,6.5625,6.5625,6.5625,13.1875,13.1875,13.1875,7.702523,2.960819,9.376652,2.642696,3.0284,6.68681,-0.179597,-0.4476609,1.62353,0.2882231,-0.4557406,1.593626,0.08518098,0.4012913,1.658335,-0.2153146,-0.442561,1.622941,0.2517222,-0.4610911,1.567887,0.06177542,-0.06488509,1.676025,0.06481238,-0.3892367,1.65419,-0.117118,0.1227639,1.670026,-0.01093677,-0.3798024,1.620819,-0.1745647,-0.1368741,1.690345,0.2881792,-0.1576129,1.667028,NA,NA,NotTracked,NotTracked,
0.9448242,0.2475586,-0.01953125,0.9648438,-0.2983398,-0.01660156,0,-1,0,0,-1,-5,-4,-3,0,-2,-2,0,-1,-2,0,-2,1.0625,1.0625,1.0625,4.125,4.125,4.125,7.655546,2.970782,9.427921,2.675309,3.042933,6.658365,-0.1790208,-0.4461223,1.618272,0.2870232,-0.4554201,1.588716,0.08527879,0.4013679,1.658384,-0.191913,-0.4498407,1.583334,0.2466196,-0.4667241,1.562069,0.06177314,-0.06488563,1.676023,0.06476633,-0.3892396,1.654219,-0.1171184,0.1227621,1.670023,-0.010993,-0.3797973,1.620841,-0.1739198,-0.1402636,1.689046,0.2882539,-0.1577873,1.666219,NA,NA,NotTracked,NotTracked,
0.9335938,0.2304688,-0.01074219,0.9619141,-0.3076172,-0.00390625,-24,-4,-1,0,-1,-1,-1,-5,0,0,-3,-3,-1,0,-1,1,7.625,7.625,7.625,1.4375,1.4375,1.4375,7.610548,2.976882,9.480638,2.693017,3.050616,6.639833,-0.176564,-0.4453811,1.613679,0.2859415,-0.4539635,1.585651,0.08548147,0.4013763,1.658606,-0.215204,-0.4327889,1.609615,0.2463131,-0.4603518,1.560114,0.06176447,-0.06489099,1.676026,0.06466749,-0.3892851,1.654293,-0.1171131,0.1227644,1.670024,-0.01108796,-0.3798121,1.620921,-0.1726499,-0.1355944,1.688875,0.2878904,-0.1570455,1.66517,NA,NA,NotTracked,NotTracked,
0.9335938,0.2583008,0.005859375,0.9404297,-0.3222656,0.04443359,9,0,0,1,0,0,0,1,-2,-2,-2,-2,-1,-2,-1,1,10.4375,10.4375,10.4375,-4.1875,-4.1875,-4.1875,7.575425,2.982879,9.529134,2.742062,3.069738,6.583357,-0.1743403,-0.4440173,1.607786,0.2861131,-0.4447898,1.580596,0.08559623,0.401306,1.658783,-0.2112729,-0.4418544,1.597794,0.2502415,-0.4488572,1.555411,0.06174763,-0.06491271,1.676034,0.06455484,-0.389356,1.654386,-0.1171014,0.1227307,1.669998,-0.01121338,-0.3798656,1.621033,-0.1723817,-0.1404186,1.687514,0.2875854,-0.1565237,1.663966,NA,NA,NotTracked,NotTracked,
0.9326172,0.2792969,0.01123047,0.934082,-0.324707,0.03125,2,-2,0,0,-1,-2,0,-1,-1,-2,-1,-1,0,-2,-1,0,4.6875,4.6875,4.6875,-3.5,-3.5,-3.5,7.544371,2.98921,9.568039,2.761755,3.07845,6.557743,-0.1720182,-0.4459982,1.602266,0.2835515,-0.4444262,1.576704,0.08573261,0.4013521,1.659123,-0.2111663,-0.4368953,1.59784,0.244537,-0.4475447,1.552111,0.0617389,-0.06491863,1.676033,0.06443722,-0.3893699,1.654449,-0.1170973,0.1227009,1.669988,-0.01132576,-0.379853,1.621136,-0.1718521,-0.1338144,1.68609,0.2870039,-0.1557302,1.662422,NA,NA,NotTracked,NotTracked,
0.9360352,0.2885742,0.001953125,0.9311523,-0.3120117,0.0390625,-8,-1,-1,-2,-2,-1,-1,3,-2,-1,-1,1,0,-2,-3,2,-0.25,-0.25,-0.25,-7.9375,-7.9375,-7.9375,7.530471,2.992262,9.582569,2.775285,3.081752,6.535051,-0.1694736,-0.4444219,1.598007,0.2822351,-0.4435511,1.572168,0.08593798,0.4013911,1.65955,-0.2087244,-0.4664026,1.597,0.2454033,-0.4472697,1.544107,0.06173081,-0.06494351,1.676049,0.06437937,-0.389428,1.654529,-0.1170628,0.1225405,1.669958,-0.01137542,-0.3798903,1.621201,-0.1718051,-0.1365573,1.684345,0.2863121,-0.1545867,1.659699,NA,NA,NotTracked,NotTracked,
0.9243164,0.2714844,-0.002929688,0.9287109,-0.3217773,0.04248047,-4,-2,-1,-1,-1,-3,0,-2,-1,-2,-3,-1,-1,-2,-3,-1,-4.9375,-4.9375,-4.9375,-13.25,-13.25,-13.25,7.505705,2.996864,9.603514,2.778824,3.082453,6.523203,-0.1689165,-0.4440874,1.596881,0.2752658,-0.4521871,1.570231,0.08600917,0.4013166,1.659913,-0.2151719,-0.4281587,1.608077,0.2335129,-0.4143763,1.583625,0.06172983,-0.06495915,1.676073,0.06435788,-0.3894845,1.654609,-0.1170568,0.1225349,1.669954,-0.01141123,-0.3799458,1.621295,-0.1713892,-0.1332669,1.684656,0.2860298,-0.1546841,1.658978,NA,NA,NotTracked,NotTracked,
