ALX,ALY,ALZ,ARX,ARY,ARZ,EMG0L,EMG1L,EMG2L,EMG3L,EMG4L,EMG5L,EMG6L,EMG7L,EMG0R,EMG1R,EMG2R,EMG3R,EMG4R,EMG5R,EMG6R,EMG7R,GLX,GLY,GLZ,GRX,GRY,GRZ,ORL,OPL,OYL,ORR,OPR,OYR,LHNX,LHNY,LHNZ,RHNX,RHNY,RHNZ,HX,HY,HZ,LTX,LTY,LTZ,RTX,RTY,RTZ,SpineMidX,SpineMidY,SpineMidZ,SpineBaseX,SpineBaseY,SpineBaseZ,ShoulderLeftX,ShoulderLeftY,ShoulderLeftZ,ShoulderRightX,ShoulderRightY,ShoulderRightZ,ElbowLeftX,ElbowLeftY,ElbowLeftZ,ElbowRightX,ElbowRightY,ElbowRightZ,Myo_Pose_left,Myo_Pose_Right,Kinect_pose_left,Kinect_pose_right
0.9233398,0.315918,0.06005859,0.9262695,-0.3642578,0.06396484,0,-1,-1,-1,-1,-1,0,-3,-2,-3,-2,0,-1,-1,0,-1,0.5,0.5,0.5,0.0625,0.0625,0.0625,7.336171,3.027008,8.90347,2.771502,3.10948,6.459056,-0.1684325,-0.4452153,1.590793,0.2687808,-0.4442105,1.573156,0.0677835,0.4009869,1.665812,-0.118833,-0.430361,1.573717,0.2254925,-0.4170731,1.571294,0.06045559,-0.06717357,1.680021,0.06256008,-0.3911664,1.660266,-0.1198306,0.1200949,1.671589,-0.01347327,-0.3815072,1.626836,-0.1735696,-0.1276116,1.683063,0.2831009,-0.1518148,1.662035,NA,NA,NotTracked,NotTracked,
0.921875,0.3183594,0.0546875,0.9243164,-0.3623047,0.06689453,0,0,-2,-1,0,-2,-1,-2,0,0,-2,0,-2,-2,-3,1,0.5,0.5,0.5,-0.375,-0.375,-0.375,7.335481,3.027426,8.903639,2.771502,3.10948,6.459056,-0.1684595,-0.445454,1.591851,0.2754799,-0.4380494,1.572267,0.06778796,0.4009926,1.66583,-0.1186175,-0.4451454,1.570968,0.2419969,-0.4377621,1.549286,0.06044814,-0.06717122,1.680072,0.06256272,-0.3911639,1.660329,-0.1198235,0.1200752,1.671613,-0.0134693,-0.3815058,1.626859,-0.1735978,-0.1275288,1.683134,0.2830947,-0.151999,1.662227,NA,NA,NotTracked,NotTracked,
0.9208984,0.3144531,0.05761719,0.9301758,-0.3666992,0.06787109,1,-2,-2,1,-1,-1,-2,0,-2,-2,-1,0,-1,0,-1,-2,0.0625,0.0625,0.0625,0.125,0.125,0.125,7.332656,3.026376,8.906348,2.771502,3.10948,6.459056,-0.1681792,-0.445759,1.590939,0.2485607,-0.4984079,1.57353,0.06778957,0.4009879,1.665829,-0.1188211,-0.4247572,1.575381,0.2081804,-0.4724945,1.55579,0.06043154,-0.0671911,1.68011,0.06253922,-0.3911899,1.660389,-0.1198119,0.1200709,1.67162,-0.01349636,-0.3815182,1.626904,-0.1735939,-0.12728,1.683239,0.2830926,-0.1520376,1.662241,NA,NA,NotTracked,NotTracked,
0.9208984,0.3173828,0.05078125,0.9282227,-0.3666992,0.0703125,-1,0,-1,0,-2,0,-2,-1,-1,-3,0,-2,-2,1,1,0,0.75,0.75,0.75,1.0625,1.0625,1.0625,7.333076,3.026413,8.906072,2.775684,3.10946,6.456196,-0.1675113,-0.4465635,1.59035,0.2832272,-0.4129516,1.576244,0.06774323,0.4009535,1.665767,-0.1187766,-0.4198435,1.575909,0.260823,-0.4288636,1.536389,0.06044189,-0.06722075,1.680132,0.06256381,-0.3912292,1.660397,-0.1198169,0.1200182,1.671653,-0.0134716,-0.3815542,1.626918,-0.1735301,-0.1268435,1.683366,0.2830703,-0.1520842,1.662299,NA,NA,NotTracked,NotTracked,
0.9208984,0.3183594,0.05126953,0.9262695,-0.3598633,0.06835938,-2,-1,-1,0,-1,0,-1,-1,-1,-1,-1,-1,-2,-2,-1,0,0.5625,0.5625,0.5625,0.3125,0.3125,0.3125,7.334835,3.026317,8.904243,2.776101,3.109332,6.455803,-0.1673906,-0.4452276,1.590233,0.2831255,-0.4127723,1.575547,0.06773345,0.4009014,1.66571,-0.1183426,-0.4454824,1.568267,0.2564618,-0.422149,1.54275,0.06043535,-0.06723531,1.680136,0.06252489,-0.3912449,1.660399,-0.1198289,0.1199945,1.671677,-0.01353018,-0.3815795,1.626932,-0.1735704,-0.1268977,1.683288,0.2830214,-0.1520771,1.662312,NA,NA,NotTracked,NotTracked,
0.9179688,0.3178711,0.05224609,0.9238281,-0.362793,0.06445313,0,0,-1,1,-2,-1,-1,0,1,-2,-1,0,-1,-1,-1,0,0.375,0.375,0.375,-0.25,-0.25,-0.25,7.337632,3.025787,8.901704,2.776101,3.109332,6.455803,-0.1674288,-0.445308,1.590985,0.2831923,-0.4125927,1.576473,0.06773584,0.4009192,1.665702,-0.1187058,-0.4333627,1.572899,0.2534287,-0.4156563,1.549933,0.06040671,-0.06723261,1.680162,0.06244428,-0.3912503,1.660444,-0.1198365,0.1199816,1.671696,-0.01362047,-0.3815838,1.626993,-0.1735307,-0.126827,1.683345,0.282984,-0.1520661,1.662431,NA,NA,NotTracked,NotTracked,
0.9174805,0.3168945,0.05224609,0.925293,-0.3637695,0.06347656,1,-1,-1,-2,0,-1,-3,1,-1,-1,-2,0,-3,-1,-2,-1,0.6875,0.6875,0.6875,0.25,0.25,0.25,7.338974,3.025655,8.900148,2.776101,3.109332,6.455803,-0.1672934,-0.4457763,1.591336,0.2786722,-0.4266881,1.574957,0.06776415,0.4009121,1.665715,-0.1185831,-0.4400575,1.571373,0.2433793,-0.4253361,1.554639,0.06040806,-0.06724264,1.680186,0.06242733,-0.3912647,1.660481,-0.1198248,0.1199441,1.671722,-0.01363298,-0.3816066,1.627044,-0.1736381,-0.1270546,1.683293,0.2828569,-0.152239,1.66245,NA,NA,NotTracked,NotTracked,
0.9238281,0.3149414,0.04931641,0.9248047,-0.362793,0.06298828,0,1,-1,-1,-2,-2,-3,-3,0,0,-3,-2,0,-1,-2,-2,0.0625,0.0625,0.0625,0.3125,0.3125,0.3125,7.342427,3.025414,8.896219,2.776101,3.109332,6.455803,-0.1675247,-0.4464346,1.591787,0.2788469,-0.4274227,1.575296,0.06776574,0.4009224,1.665724,-0.1186436,-0.4361514,1.572164,0.2424917,-0.425772,1.564765,0.06041052,-0.06724265,1.680228,0.06242986,-0.3912579,1.660533,-0.1197961,0.1199662,1.671731,-0.01363128,-0.3815966,1.627083,-0.1735804,-0.1272239,1.683447,0.2828548,-0.1522419,1.662482,NA,NA,NotTracked,NotTracked,
0.9213867,0.3125,0.05615234,0.9296875,-0.3632813,0.06640625,0,-2,-1,-2,-3,-2,-1,0,-2,-1,0,-1,-2,-2,-2,0,0,0,0,0.0625,0.0625,0.0625,7.343386,3.025466,8.894617,2.776157,3.109182,6.455608,-0.1674917,-0.4461597,1.590922,0.2814515,-0.4209224,1.575743,0.06777342,0.4009388,1.665724,-0.1185387,-0.4396317,1.570785,0.2552754,-0.4275987,1.540933,0.06039806,-0.06723744,1.680268,0.06238518,-0.39125,1.660622,-0.1197975,0.1199713,1.671735,-0.01367598,-0.3815846,1.627233,-0.1734658,-0.127148,1.683403,0.2828235,-0.1523682,1.662547,NA,NA,NotTracked,NotTracked,
0.9223633,0.3149414,0.05957031,0.9282227,-0.3603516,0.07519531,0,-2,0,-1,-1,0,-1,-1,0,-2,0,-1,0,-2,-1,-3,-0.4375,-0.4375,-0.4375,-0.75,-0.75,-0.75,7.346929,3.024983,8.889961,2.776493,3.108882,6.455397,-0.1670502,-0.4465335,1.590429,0.2819833,-0.4197178,1.575737,0.06777447,0.4009328,1.665725,-0.1185361,-0.4394993,1.570744,0.2573763,-0.4273858,1.539158,0.06040387,-0.06724433,1.680274,0.06240171,-0.3912545,1.660644,-0.1197828,0.1199792,1.671722,-0.0136644,-0.3815868,1.627244,-0.1733987,-0.1271412,1.68345,0.2828074,-0.1523554,1.662551,NA,NA,NotTracked,NotTracked,
0.9262695,0.3134766,0.05712891,0.9257813,-0.362793,0.06640625,-1,-2,-1,-2,0,0,1,-2,0,-1,-2,-2,0,-2,0,-1,0.0625,0.0625,0.0625,0.5625,0.5625,0.5625,7.347326,3.023787,8.889233,2.776493,3.108882,6.455397,-0.1673167,-0.4456919,1.592671,0.2833759,-0.416221,1.577774,0.06764922,0.4009191,1.665764,-0.1178176,-0.4262366,1.572971,0.2592495,-0.4264568,1.541278,0.06039684,-0.067263,1.680313,0.0624313,-0.3912677,1.660701,-0.1197902,0.1199884,1.671742,-0.0136266,-0.3816231,1.627325,-0.1741337,-0.1359306,1.681885,0.2827169,-0.1524429,1.662641,NA,NA,NotTracked,NotTracked,
0.9204102,0.3120117,0.05859375,0.9233398,-0.3510742,0.05957031,-2,-1,-1,-1,-1,-2,-1,-5,0,1,-2,-1,-1,-2,-1,-1,0.4375,0.4375,0.4375,0.4375,0.4375,0.4375,7.347491,3.023599,8.888762,2.776278,3.108375,6.455607,-0.1671322,-0.4456742,1.591961,0.2795635,-0.4280283,1.575039,0.06762563,0.4008904,1.665751,-0.118686,-0.4381995,1.572632,0.2429852,-0.4258826,1.561818,0.06041041,-0.06727219,1.68033,0.06247802,-0.3912913,1.66078,-0.1197884,0.1199902,1.67174,-0.01358335,-0.3816535,1.627412,-0.1742234,-0.1382714,1.681402,0.2827255,-0.1524688,1.662671,NA,NA,NotTracked,NotTracked,
0.921875,0.3129883,0.05224609,0.9277344,-0.3569336,0.07373047,-2,-2,-1,1,0,-1,-1,0,-1,-2,-1,0,0,-2,-2,-3,0.4375,0.4375,0.4375,0,0,0,7.347423,3.021783,8.888223,2.777328,3.108626,6.454611,-0.1668305,-0.4454522,1.590939,0.2793162,-0.4290786,1.573891,0.06752805,0.4008173,1.665496,-0.1182095,-0.4298454,1.572782,0.2533012,-0.4289479,1.541135,0.06042172,-0.06727767,1.680332,0.0624954,-0.3912868,1.660787,-0.1197975,0.1199595,1.671749,-0.01356494,-0.3816493,1.627412,-0.1743027,-0.1412083,1.680738,0.2826841,-0.1524435,1.662707,NA,NA,NotTracked,NotTracked,
0.9199219,0.3100586,0.05761719,0.9311523,-0.3613281,0.06298828,2,-2,0,-1,0,0,0,-1,-2,-1,-2,0,-2,-1,0,-1,0.9375,0.9375,0.9375,0.8125,0.8125,0.8125,7.34791,3.02064,8.88774,2.777986,3.107678,6.45444,-0.1668903,-0.446085,1.591558,0.2804285,-0.423223,1.575466,0.06746201,0.4007972,1.665387,-0.1181342,-0.4289354,1.573025,0.2522472,-0.4266477,1.544779,0.06043274,-0.06729008,1.680334,0.06255117,-0.3913145,1.660799,-0.119839,0.1198704,1.671763,-0.01349777,-0.3816994,1.627416,-0.1743872,-0.1426886,1.680551,0.2826402,-0.1524874,1.662745,NA,NA,NotTracked,NotTracked,
0.918457,0.3120117,0.05322266,0.9331055,-0.3574219,0.07080078,-2,-1,0,0,0,-1,0,-2,1,-2,-2,1,0,-1,-2,0,1.25,1.25,1.25,1,1,1,7.350385,3.019188,8.88623,2.779589,3.106485,6.453437,-0.166858,-0.4457815,1.59153,0.2806322,-0.4223005,1.576103,0.06730035,0.4007608,1.665162,-0.1182513,-0.4300087,1.573048,0.2441389,-0.4209121,1.560546,0.06043978,-0.06730185,1.680327,0.06256405,-0.3913319,1.660797,-0.1198556,0.1198378,1.671758,-0.01348643,-0.3817189,1.627406,-0.1742443,-0.143007,1.680477,0.2826111,-0.1525377,1.662745,NA,NA,NotTracked,NotTracked,
0.9296875,0.3149414,0.05810547,0.934082,-0.3574219,0.06347656,0,1,0,0,-2,-1,0,1,-1,-2,-1,-2,-3,-1,-3,1,0.375,0.375,0.375,0.0625,0.0625,0.0625,7.350883,3.018043,8.885742,2.781296,3.104642,6.452285,-0.1661207,-0.4456319,1.591753,0.2800304,-0.4239113,1.576109,0.06718457,0.4007488,1.665023,-0.1185819,-0.4371394,1.572162,0.2514461,-0.4254266,1.545038,0.06044026,-0.0673019,1.680328,0.06258895,-0.3913186,1.660818,-0.1198656,0.1197944,1.671737,-0.01346208,-0.3817041,1.627419,-0.1732814,-0.1377207,1.681499,0.2825526,-0.1524545,1.662849,NA,NA,NotTracked,NotTracked,
0.9238281,0.315918,0.05078125,0.9257813,-0.362793,0.06933594,-2,-1,-1,-1,0,-2,0,-2,0,-2,0,-1,0,-2,-1,1,-0.5,-0.5,-0.5,-0.6875,-0.6875,-0.6875,7.351372,3.017282,8.884358,2.782211,3.103123,6.450714,-0.1665272,-0.4467045,1.592102,0.2792535,-0.4245365,1.575836,0.06709592,0.4007692,1.664861,-0.1181648,-0.430445,1.57282,0.2488365,-0.427039,1.547674,0.06044612,-0.06730177,1.680332,0.06262474,-0.3913119,1.660843,-0.1198924,0.1197747,1.671745,-0.01342712,-0.3816971,1.62742,-0.1728742,-0.1349248,1.681764,0.2825646,-0.1524329,1.662871,NA,NA,NotTracked,NotTracked,
0.9272461,0.3115234,0.04296875,0.9282227,-0.3681641,0.06201172,1,-1,-2,0,-1,-2,0,0,0,-3,-1,0,-2,-2,-1,-3,-0.3125,-0.3125,-0.3125,0.375,0.375,0.375,7.353029,3.016688,8.882889,2.782664,3.102518,6.450104,-0.166125,-0.4459107,1.591641,0.2832842,-0.4115033,1.57645,0.06705853,0.4007703,1.664828,-0.1182299,-0.4308897,1.572611,0.2560427,-0.4197696,1.546023,0.06044792,-0.06730556,1.680323,0.06262708,-0.3913101,1.660841,-0.1199048,0.1197642,1.671742,-0.01342462,-0.3816948,1.62742,-0.1727791,-0.1372117,1.681314,0.2825432,-0.1523559,1.662865,NA,NA,NotTracked,NotTracked,
0.9213867,0.3168945,0.05126953,0.9326172,-0.3666992,0.0625,-1,-1,-1,-1,-1,1,-3,-2,-1,1,0,-1,-3,-2,-2,0,0.75,0.75,0.75,1.3125,1.3125,1.3125,7.354213,3.017108,8.881159,2.783593,3.102529,6.450491,-0.166432,-0.4466904,1.592379,0.2837132,-0.4117526,1.577529,0.06702795,0.4008258,1.664765,-0.1182227,-0.4306763,1.572818,0.2535767,-0.4035,1.558667,0.06044636,-0.06731436,1.680322,0.06263554,-0.3913377,1.660838,-0.1199028,0.1197746,1.67174,-0.01341913,-0.3817168,1.62742,-0.1726889,-0.1354091,1.681561,0.2825373,-0.152353,1.662864,NA,NA,NotTracked,NotTracked,
0.9179688,0.3168945,0.05371094,0.934082,-0.3657227,0.07177734,0,-1,-1,0,-1,0,0,-2,-1,0,-1,-3,-1,0,0,0,0.375,0.375,0.375,0.5,0.5,0.5,7.358575,3.017667,8.876402,2.783958,3.102552,6.450291,-0.166507,-0.44668,1.593331,0.2722251,-0.4472618,1.571728,0.06688906,0.4008444,1.664562,-0.1183607,-0.4318417,1.572986,0.2373907,-0.4243522,1.581125,0.06044443,-0.06731539,1.680325,0.06263778,-0.3913361,1.660852,-0.1199244,0.1197293,1.67175,-0.01341456,-0.3817224,1.627443,-0.1730513,-0.1390372,1.681573,0.2825871,-0.152349,1.662892,NA,NA,NotTracked,NotTracked,
0.9248047,0.3173828,0.05517578,0.9311523,-0.3691406,0.06152344,-1,-2,-1,-1,-1,2,0,-2,-1,0,-1,0,0,0,-1,0,-0.25,-0.25,-0.25,-2,-2,-2,7.360812,3.017643,8.873979,2.78236,3.102635,6.450724,-0.1661835,-0.4468272,1.59203,0.2789904,-0.4325422,1.573147,0.06681223,0.4008085,1.664392,-0.1184824,-0.4360425,1.571776,0.258255,-0.4305801,1.539968,0.06042987,-0.06734185,1.680251,0.062648,-0.3913471,1.660777,-0.1199217,0.1196981,1.671692,-0.01341242,-0.3817486,1.62735,-0.1732529,-0.1420949,1.680465,0.2825651,-0.1522507,1.662812,NA,NA,NotTracked,NotTracked,
0.9233398,0.3066406,0.05712891,0.9243164,-0.3657227,0.06103516,-3,0,-1,0,-2,0,0,-1,-4,-2,-2,-1,-2,0,1,-1,-0.0625,-0.0625,-0.0625,0,0,0,7.361691,3.017998,8.871496,2.78236,3.102635,6.450724,-0.1667245,-0.4459647,1.593153,0.2787629,-0.4334421,1.57427,0.06676961,0.4007788,1.664374,-0.1186809,-0.4214256,1.575267,0.2517232,-0.4327575,1.545022,0.06042232,-0.06734397,1.680256,0.06264374,-0.3913457,1.660789,-0.1199218,0.1196638,1.671689,-0.01342002,-0.3817497,1.627369,-0.1725449,-0.1366125,1.68253,0.2825583,-0.1522553,1.662811,NA,NA,NotTracked,NotTracked,
0.9208984,0.3134766,0.05908203,0.9243164,-0.3608398,0.06689453,0,-1,-1,-1,1,-1,-1,0,-2,-2,-1,-1,-1,-2,-1,0,1,1,1,-1.75,-1.75,-1.75,7.36314,3.018286,8.870595,2.780647,3.10302,6.451553,-0.1668639,-0.4463866,1.592692,0.2784506,-0.4339194,1.573656,0.06677096,0.4007633,1.664324,-0.1182716,-0.4255775,1.574034,0.2429642,-0.4292378,1.562955,0.06041973,-0.06735443,1.680261,0.06264859,-0.3913569,1.660802,-0.1199235,0.1196544,1.671679,-0.01341706,-0.3817595,1.627387,-0.1731941,-0.1395795,1.681817,0.2826,-0.1523864,1.662921,NA,NA,NotTracked,NotTracked,
0.9223633,0.3115234,0.06005859,0.9296875,-0.3666992,0.06835938,-1,0,-2,-1,-1,0,-1,-3,-1,0,-1,-3,0,1,-2,-2,0.75,0.75,0.75,-0.8125,-0.8125,-0.8125,7.363171,3.018508,8.870274,2.777694,3.103822,6.452966,-0.1660148,-0.4459912,1.590295,0.2779982,-0.4348109,1.5716,0.06673127,0.4007467,1.664196,-0.1183769,-0.4276512,1.573553,0.244233,-0.4343025,1.551677,0.06038993,-0.06734701,1.68023,0.06263351,-0.3913324,1.660767,-0.1199465,0.1196123,1.671642,-0.01343074,-0.3817387,1.627361,-0.1731772,-0.1402209,1.681438,0.2826261,-0.1522564,1.662791,NA,NA,NotTracked,NotTracked,
0.921875,0.3095703,0.05371094,0.9296875,-0.362793,0.06591797,-2,-1,-1,-1,0,-1,-1,-1,-2,-1,0,1,0,-1,0,-2,0,0,0,-0.375,-0.375,-0.375,7.362954,3.018502,8.869752,2.777516,3.104785,6.453164,-0.1665947,-0.4458383,1.59072,0.2780795,-0.4346577,1.571963,0.06669252,0.4007371,1.664031,-0.1183723,-0.4187573,1.573357,0.2488701,-0.431284,1.54679,0.06038921,-0.0673493,1.680217,0.06263926,-0.3913362,1.660757,-0.1199342,0.119621,1.671559,-0.01342468,-0.3817401,1.627342,-0.1733253,-0.1407638,1.681245,0.2827194,-0.1520539,1.66255,NA,NA,NotTracked,NotTracked,
0.9248047,0.3115234,0.05126953,0.9326172,-0.3574219,0.06445313,-1,-1,-1,0,-2,2,1,-3,-1,-1,-1,-2,-2,0,-1,-2,0.1875,0.1875,0.1875,-2,-2,-2,7.360555,3.017466,8.872198,2.774629,3.10512,6.454025,-0.1673202,-0.4465701,1.590724,0.2786947,-0.4431562,1.573573,0.06667183,0.4007497,1.663887,-0.1184071,-0.4276369,1.57297,0.2388191,-0.4268695,1.569613,0.06040077,-0.06733049,1.680153,0.06267466,-0.3912698,1.660653,-0.1199453,0.1196195,1.671516,-0.01338853,-0.3816755,1.627213,-0.1735412,-0.1417678,1.680869,0.2828034,-0.1519859,1.662373,NA,NA,NotTracked,NotTracked,
0.9194336,0.3085938,0.05273438,0.9262695,-0.3554688,0.07080078,-1,0,0,-1,-1,-1,1,-1,-2,-1,-1,-2,0,0,0,0,-0.4375,-0.4375,-0.4375,-1.5,-1.5,-1.5,7.357539,3.01752,8.873852,2.772833,3.104721,6.454069,-0.1674668,-0.446588,1.589934,0.2728517,-0.4415096,1.572609,0.06663164,0.4006331,1.663567,-0.1704729,-0.4718336,1.543,0.2374435,-0.4395882,1.553828,0.06041223,-0.06738666,1.680078,0.06270912,-0.3913229,1.660567,-0.1199425,0.1196212,1.671403,-0.01333317,-0.3817503,1.627112,-0.1737568,-0.1428111,1.679948,0.2828032,-0.1520984,1.662244,NA,NA,NotTracked,NotTracked,
0.921875,0.3061523,0.05126953,0.925293,-0.3564453,0.06103516,-1,0,0,-2,-1,-1,-2,0,-1,0,-1,0,-2,-1,-1,-1,-0.4375,-0.4375,-0.4375,-1.8125,-1.8125,-1.8125,7.354915,3.016476,8.875792,2.771424,3.104669,6.453931,-0.1671245,-0.4458746,1.588997,0.2721356,-0.441585,1.572246,0.06660395,0.400572,1.663291,-0.1185071,-0.4332597,1.570143,0.2386227,-0.4420309,1.548084,0.06039179,-0.06737422,1.680033,0.06270695,-0.3912874,1.660513,-0.1199523,0.1196614,1.67133,-0.01334546,-0.3816916,1.627033,-0.1736853,-0.1365431,1.680201,0.2828226,-0.1520169,1.662224,NA,NA,NotTracked,NotTracked,
0.921875,0.3076172,0.05419922,0.9311523,-0.3613281,0.06591797,1,1,-1,1,0,-1,-1,-2,0,-2,-3,-2,-1,-1,0,1,-0.5,-0.5,-0.5,-1.75,-1.75,-1.75,7.351609,3.016079,8.877584,2.770369,3.104343,6.452981,-0.1678405,-0.446005,1.590249,0.269575,-0.4432191,1.574088,0.06664364,0.400607,1.663204,-0.1185363,-0.4328647,1.570518,0.2333368,-0.4293587,1.558042,0.06037211,-0.06737853,1.680014,0.06265653,-0.3912824,1.660485,-0.1199517,0.119672,1.671299,-0.01338938,-0.3816773,1.627028,-0.1738144,-0.1349941,1.680281,0.2828096,-0.1520936,1.662159,NA,NA,NotTracked,NotTracked,
0.9282227,0.3076172,0.04833984,0.9238281,-0.3583984,0.05908203,-1,0,-3,-1,-1,-3,-1,1,-2,-1,-2,0,0,-2,1,-3,-0.8125,-0.8125,-0.8125,-1.25,-1.25,-1.25,7.351126,3.015257,8.877827,2.76851,3.104089,6.453227,-0.1676016,-0.4458134,1.589785,0.2630595,-0.4554886,1.572193,0.06667075,0.4006172,1.662914,-0.1185315,-0.4305742,1.571086,0.2205722,-0.4209707,1.564438,0.06037405,-0.06738241,1.680006,0.06266181,-0.3912832,1.660481,-0.1199603,0.1196861,1.671267,-0.01338533,-0.3816819,1.627026,-0.1745737,-0.1390287,1.67896,0.2828266,-0.1520537,1.662109,NA,NA,NotTracked,NotTracked,
0.925293,0.3154297,0.04736328,0.9277344,-0.3603516,0.06347656,1,-2,-1,-1,0,-3,1,-3,-1,-2,-1,-1,-2,0,-5,-2,-0.625,-0.625,-0.625,-1.8125,-1.8125,-1.8125,7.350495,3.014871,8.876903,2.766976,3.104037,6.452871,-0.1680921,-0.4456545,1.588759,0.2751924,-0.4379644,1.572198,0.06676976,0.4006611,1.662601,-0.1180816,-0.4177844,1.572077,0.2393138,-0.4410745,1.549083,0.06039922,-0.06734473,1.67989,0.06269535,-0.3912348,1.66033,-0.1199826,0.1197141,1.671156,-0.01335191,-0.3816364,1.626839,-0.1745152,-0.1338008,1.678932,0.2827971,-0.1518588,1.661919,NA,NA,NotTracked,NotTracked,
0.9179688,0.3110352,0.04980469,0.9257813,-0.3613281,0.06884766,-1,0,-1,0,0,-3,-1,-2,2,-3,-1,-3,-1,0,2,1,-0.4375,-0.4375,-0.4375,-1.4375,-1.4375,-1.4375,7.351309,3.014213,8.874687,2.767336,3.104297,6.45107,-0.1680782,-0.4462099,1.587335,0.2749093,-0.4375051,1.570484,0.06677925,0.4006579,1.662396,-0.1183539,-0.428901,1.570385,0.2406813,-0.4366498,1.549143,0.06036256,-0.06733491,1.679806,0.06267559,-0.3912292,1.660226,-0.1199092,0.1197648,1.670959,-0.01337821,-0.3816199,1.626711,-0.1744998,-0.1321492,1.678892,0.282741,-0.1516385,1.661763,NA,NA,NotTracked,NotTracked,
0.9189453,0.3134766,0.04638672,0.9282227,-0.3564453,0.06005859,-1,-1,0,-1,-1,0,1,-1,-3,4,49,6,0,-1,0,-1,-0.3125,-0.3125,-0.3125,-1.5,-1.5,-1.5,7.354709,3.013822,8.87046,2.766773,3.104321,6.449896,-0.1682774,-0.4456531,1.587658,0.2657965,-0.4485313,1.572356,0.06679051,0.4006708,1.662216,-0.1184706,-0.4403598,1.569029,0.21996,-0.4317228,1.562364,0.06038891,-0.06732985,1.679717,0.06272124,-0.3911797,1.660085,-0.1199088,0.1198032,1.670885,-0.01333847,-0.3815687,1.62655,-0.1741138,-0.1304166,1.679042,0.2826316,-0.1512734,1.661585,NA,NA,NotTracked,NotTracked,
0.9277344,0.3095703,0.05761719,0.9233398,-0.3579102,0.06054688,-1,-1,1,-1,-1,1,-3,1,8,13,-7,-1,-3,-3,-14,-1,-0.625,-0.625,-0.625,-3.0625,-3.0625,-3.0625,7.357024,3.013674,8.867001,2.765542,3.104968,6.448557,-0.1681205,-0.4457123,1.587218,0.2490234,-0.4969938,1.573373,0.06683031,0.4006949,1.662138,-0.1183929,-0.4348087,1.569341,0.208251,-0.4695609,1.552118,0.06041596,-0.06731593,1.679616,0.06275838,-0.3911343,1.659918,-0.119934,0.1198359,1.670778,-0.01330103,-0.3815286,1.626364,-0.1747164,-0.1357068,1.677302,0.2826182,-0.1512009,1.661592,NA,NA,NotTracked,NotTracked,
0.9223633,0.3125,0.04541016,0.9350586,-0.3735352,0.06152344,-1,-1,-1,-4,-2,0,-1,-2,-7,-15,-6,6,2,-2,0,1,0.0625,0.0625,0.0625,-5.1875,-5.1875,-5.1875,7.361626,3.01371,8.861026,2.761668,3.10743,6.447394,-0.1676117,-0.4455777,1.587545,0.2723615,-0.4533993,1.567274,0.06687076,0.4006641,1.661925,-0.1184261,-0.4322234,1.570038,0.2404403,-0.4287678,1.564191,0.06041818,-0.0673029,1.679588,0.06276418,-0.3910869,1.659874,-0.1199462,0.1198567,1.67072,-0.01328947,-0.3814664,1.62628,-0.174771,-0.1370016,1.677052,0.2826246,-0.1512263,1.661523,NA,NA,NotTracked,NotTracked,
0.9233398,0.3125,0.04833984,0.9711914,-0.4125977,0.05859375,-1,-2,0,0,0,-4,0,-2,-3,-2,-6,-3,-5,-2,-7,-20,2.3125,2.3125,2.3125,-4.3125,-4.3125,-4.3125,7.3693,3.012966,8.854877,2.771349,3.116255,6.429772,-0.1673941,-0.4451709,1.586472,0.2843376,-0.4147646,1.575477,0.06682995,0.4005294,1.661585,-0.1183838,-0.431235,1.570033,0.2522031,-0.4166288,1.550371,0.06039346,-0.06731977,1.679391,0.06271385,-0.3911043,1.659624,-0.1199546,0.1198599,1.670539,-0.01335241,-0.381451,1.626048,-0.1746332,-0.1369421,1.676029,0.2826264,-0.1511641,1.661395,NA,NA,NotTracked,NotTracked,
0.9492188,0.3227539,0.04199219,1.026855,-0.3774414,0.1000977,0,0,-3,1,10,-13,-6,0,2,-1,3,7,-7,-1,-3,-15,0,0,0,-4.4375,-4.4375,-4.4375,7.370376,3.01366,8.853629,2.870732,3.153304,6.321448,-0.1665691,-0.4448781,1.585269,0.2430824,-0.5027652,1.575629,0.06683025,0.400533,1.66149,-0.1183843,-0.4321427,1.569294,0.2010033,-0.4653024,1.544214,0.06041431,-0.06734044,1.679294,0.06272035,-0.3911231,1.659501,-0.1199917,0.1198128,1.670482,-0.01335149,-0.381473,1.625954,-0.1746997,-0.1344139,1.676634,0.2826484,-0.151202,1.661257,NA,NA,NotTracked,NotTracked,
0.9672852,0.300293,0.01708984,1.007813,-0.3696289,0.112793,0,7,8,1,-1,2,-1,0,0,-3,-3,-12,-14,-6,-5,7,1.3125,1.3125,1.3125,-0.5,-0.5,-0.5,7.359407,3.017484,8.864642,2.931709,3.174675,6.254517,-0.165263,-0.4434568,1.583343,0.2428067,-0.5019729,1.574146,0.06680873,0.400531,1.661436,-0.1183759,-0.4321585,1.569142,0.2014798,-0.46334,1.544187,0.06039858,-0.0673085,1.679168,0.06269743,-0.3910529,1.659293,-0.119996,0.1198621,1.670403,-0.01337486,-0.3813857,1.625656,-0.175192,-0.1324653,1.676852,0.2827033,-0.1511986,1.661199,NA,NA,NotTracked,NotTracked,
1.028809,0.3129883,-0.03076172,0.9736328,-0.4160156,0.1938477,-3,2,11,-3,3,-5,-3,-1,-5,-5,-5,-11,-16,-11,-9,-8,17.4375,17.4375,17.4375,-37.5625,-37.5625,-37.5625,7.325956,3.035088,8.91679,3.099643,3.272659,6.026959,-0.1636196,-0.4400497,1.579583,0.2697306,-0.4512078,1.565465,0.06679296,0.4005465,1.661423,-0.1183046,-0.4309474,1.569411,0.2364299,-0.4205579,1.579778,0.06039271,-0.06726405,1.679087,0.06267197,-0.3909647,1.659148,-0.120027,0.1198476,1.670381,-0.01340721,-0.3812958,1.625502,-0.1750224,-0.1301214,1.677697,0.2829915,-0.1511921,1.66124,NA,NA,NotTracked,NotTracked,
1.059082,0.4047852,0.02050781,0.9658203,-0.6523438,0.3271484,-2,6,14,5,0,-2,0,0,1,-3,11,1,-6,-4,3,-5,16.9375,16.9375,16.9375,-34.1875,-34.1875,-34.1875,7.217422,3.08406,9.059271,3.189397,3.38605,5.872973,-0.1592716,-0.4363787,1.570163,0.2644011,-0.4392102,1.566626,0.06677084,0.4005671,1.661409,-0.1137278,-0.4258082,1.562232,0.2276191,-0.4241321,1.5705,0.06036989,-0.06724985,1.67898,0.06260014,-0.3909294,1.658848,-0.1200574,0.1199603,1.670317,-0.01350099,-0.3812473,1.625175,-0.1758339,-0.1325188,1.677698,0.2834776,-0.1510304,1.661775,NA,NA,NotTracked,NotTracked,
1.064941,0.434082,0.1782227,0.9018555,-0.7070313,0.3657227,0,29,8,-1,0,-2,5,0,0,2,-1,2,2,-21,-7,-2,1.6875,1.6875,1.6875,-6.5625,-6.5625,-6.5625,7.03571,3.173503,9.260118,3.247715,3.456097,5.799154,-0.1430288,-0.4034058,1.535915,0.2524303,-0.416411,1.544227,0.06672107,0.4005753,1.661382,-0.1018752,-0.3690712,1.542773,0.2284793,-0.4482842,1.5596,0.06048856,-0.06708418,1.678394,0.06290455,-0.3905219,1.657373,-0.1201264,0.1200383,1.670271,-0.01330732,-0.3808379,1.623422,-0.1776993,-0.1257228,1.681715,0.2859653,-0.1498312,1.662738,NA,NA,NotTracked,NotTracked,
1.041504,0.4238281,0.2333984,0.7529297,-0.690918,0.4042969,-3,-17,-17,-2,-4,-9,-25,-3,-1,0,8,-4,-4,3,-5,1,15.5,15.5,15.5,19.0625,19.0625,19.0625,6.958392,3.234756,9.355032,3.360317,3.61385,5.681565,-0.1294724,-0.3780149,1.518398,0.2324261,-0.3977283,1.531469,0.06663934,0.4006802,1.661404,-0.09236388,-0.3471872,1.536452,0.1961989,-0.3649754,1.540526,0.06056212,-0.06705296,1.678104,0.0631065,-0.3904264,1.656656,-0.1201688,0.120127,1.670285,-0.01317159,-0.3808054,1.622655,-0.1787061,-0.1222919,1.683626,0.2879723,-0.1481083,1.664156,NA,NA,NotTracked,NotTracked,
0.8833008,0.7265625,0.3623047,0.5947266,-0.6264648,0.4692383,0,11,6,-21,11,-1,-7,-3,-2,1,1,3,-6,3,-6,-6,18.75,18.75,18.75,16,16,16,6.801467,3.484226,9.596294,3.503568,3.871309,5.530662,-0.119441,-0.3472777,1.49983,0.2184118,-0.3700748,1.513499,0.06654614,0.4007181,1.661357,-0.08604097,-0.3387405,1.51869,0.1859848,-0.3460008,1.5371,0.06054848,-0.06697056,1.677808,0.06309374,-0.3902097,1.655959,-0.1202138,0.120163,1.670313,-0.01326867,-0.3806519,1.621823,-0.1793491,-0.1164989,1.686403,0.2955076,-0.1393819,1.666267,NA,NA,Unknown,NotTracked,
0.7207031,0.7324219,0.4584961,0.5791016,-0.5834961,0.496582,-1,-11,-19,0,-2,-7,-9,-9,-1,-2,-11,2,-15,-3,0,-2,-31.6875,-31.6875,-31.6875,12.5,12.5,12.5,6.691039,3.693868,9.708164,3.543583,3.956809,5.478826,-0.0851926,-0.3300168,1.501681,0.1786014,-0.3437621,1.511762,0.06651039,0.4007145,1.661328,-0.08181433,-0.4087489,1.534191,0.1922789,-0.4193006,1.530333,0.06038795,-0.06682412,1.677506,0.06269222,-0.3898815,1.655293,-0.1202695,0.12024,1.670347,-0.01359303,-0.3804035,1.621349,-0.1792211,-0.1122978,1.686445,0.3007975,-0.124283,1.667564,NA,NA,Unknown,Unknown,
0.4604492,0.6445313,0.5,0.387207,-0.6337891,0.5444336,2,-3,-8,-7,10,3,2,4,-2,1,-1,-4,0,-12,-1,1,-36.375,-36.375,-36.375,11.75,11.75,11.75,6.593625,3.918336,9.785046,3.635806,4.212117,5.344038,-0.07133246,-0.3008441,1.493567,0.167933,-0.3017066,1.502177,0.06642129,0.4006912,1.661261,-0.08640134,-0.3641391,1.531533,0.1639173,-0.3736519,1.521359,0.06010213,-0.06678252,1.677231,0.06192478,-0.3897746,1.654788,-0.1203156,0.1203299,1.67038,-0.01409553,-0.3802722,1.621002,-0.1792743,-0.1079973,1.686193,0.3030908,-0.1133553,1.667131,NA,NA,Unknown,Unknown,
0.3461914,0.5756836,0.5009766,0.4042969,-0.6083984,0.5761719,-2,-2,-33,8,12,2,-2,-3,2,-1,4,-3,2,-4,-1,2,-18.75,-18.75,-18.75,7.5,7.5,7.5,6.535088,4.138463,9.837263,3.675275,4.363411,5.277069,-0.03060121,-0.2365259,1.4777,0.147583,-0.2302633,1.453871,0.06636436,0.4007117,1.661154,-0.04715364,-0.2989173,1.521454,0.1110622,-0.2588543,1.515215,0.05965384,-0.06651478,1.676934,0.06061752,-0.3890347,1.654226,-0.1203015,0.1206484,1.670403,-0.01491132,-0.3796275,1.620631,-0.1806447,-0.09826941,1.681318,0.3017261,-0.1029781,1.664357,NA,NA,NotTracked,Lasso,
0.2583008,0.6557617,0.4282227,0.3510742,-0.6396484,0.5830078,-3,2,4,-14,1,-3,8,2,-3,-3,2,6,4,-13,-1,-2,11.9375,11.9375,11.9375,9.8125,9.8125,9.8125,6.517591,4.417586,9.883228,3.691436,4.434438,5.248018,-0.01956301,-0.2076202,1.463538,0.1538882,-0.1923701,1.447997,0.06630141,0.4006402,1.661143,-0.02570445,-0.2680207,1.517653,0.109988,-0.1921532,1.507523,0.05959285,-0.06641308,1.676886,0.06058013,-0.3887364,1.654187,-0.1203112,0.1208297,1.670385,-0.01487908,-0.3792837,1.620612,-0.1806296,-0.0944447,1.677595,0.306163,-0.1016104,1.661908,NA,NA,NotTracked,NotTracked,
0.3110352,0.6782227,0.4443359,0.2626953,-0.640625,0.5766602,-3,-3,-1,-27,7,2,-9,-1,-1,-2,2,1,7,0,1,0,15.625,15.625,15.625,8.6875,8.6875,8.6875,6.524211,4.488237,9.892956,3.715902,4.558615,5.202169,-0.01879236,-0.1871946,1.456546,0.1531687,-0.1701526,1.434287,0.0663081,0.4006318,1.661173,-0.01829613,-0.2461141,1.520635,0.1180175,-0.2064665,1.499923,0.05951357,-0.06627993,1.676902,0.06044374,-0.3883823,1.654273,-0.1202778,0.1209047,1.67033,-0.015003,-0.3788661,1.620689,-0.1792085,-0.09527837,1.672958,0.3087417,-0.1010904,1.658827,NA,NA,NotTracked,NotTracked,
0.2817383,0.6972656,0.5083008,0.2841797,-0.6542969,0.5859375,-2,4,-5,3,15,2,-1,-1,0,0,2,-4,-2,1,-1,-2,1.4375,1.4375,1.4375,-6.6875,-6.6875,-6.6875,6.524048,4.598629,9.918853,3.722907,4.684887,5.158616,-0.001543318,-0.1629886,1.433957,0.1484473,-0.1507032,1.427627,0.06629434,0.4006521,1.661206,0.04157198,-0.1367108,1.50675,0.1043829,-0.1522205,1.473833,0.05931463,-0.06580299,1.676849,0.06005485,-0.3868725,1.654163,-0.1202699,0.120988,1.6703,-0.01525053,-0.3781714,1.620542,-0.1782665,-0.09592312,1.667582,0.3098891,-0.1011452,1.653045,NA,NA,NotTracked,NotTracked,
0.2060547,0.7070313,0.5698242,0.2485352,-0.7641602,0.6425781,-1,8,9,-12,37,7,5,-1,-2,0,-3,-9,-7,-8,1,2,8.3125,8.3125,8.3125,-8.5,-8.5,-8.5,6.515932,4.694571,9.959497,3.716604,4.716659,5.153118,-0.0002888221,-0.1507811,1.433392,0.1591247,-0.1383529,1.437895,0.06626179,0.4006947,1.661541,0.01612451,-0.2020715,1.509128,0.1246921,-0.1883548,1.499273,0.05927375,-0.06564938,1.676851,0.06005771,-0.3866257,1.654161,-0.1202499,0.121076,1.670271,-0.01522748,-0.3777024,1.620508,-0.1772317,-0.09640332,1.662953,0.3131087,-0.1002896,1.648451,NA,NA,NotTracked,NotTracked,
0.1791992,0.7807617,0.5639648,0.2060547,-0.6538086,0.6552734,7,2,10,-12,20,7,2,6,-2,-4,-23,-12,-2,-4,0,-4,3.625,3.625,3.625,2.875,2.875,2.875,6.51971,4.730756,9.966196,3.724271,4.76536,5.14187,-0.00856737,-0.1225841,1.416285,0.09919319,-0.1175834,1.410568,0.06615293,0.4006025,1.662222,0.03605525,-0.1425766,1.4072,0.08623433,-0.1163809,1.4264,0.05908807,-0.06515662,1.676891,0.05975887,-0.3854871,1.654173,-0.12023,0.1210997,1.670229,-0.01551067,-0.3762492,1.620446,-0.176571,-0.09680587,1.655402,0.3356931,-0.1017581,1.603905,NA,NA,NotTracked,NotTracked,
0.1459961,0.7998047,0.6069336,0.1816406,-0.690918,0.7143555,-2,1,-6,17,-10,-1,2,5,-1,0,-2,1,15,13,-2,-3,-1,-1,-1,-24.8125,-24.8125,-24.8125,6.518579,4.749352,9.962991,3.708912,4.786193,5.138955,-0.01205673,-0.1171189,1.416188,0.0806457,-0.1145144,1.406515,0.06610296,0.4006054,1.662318,0.02775205,-0.1381804,1.403556,0.08807599,-0.1031076,1.422857,0.05903569,-0.06502149,1.676886,0.05973816,-0.3852253,1.654122,-0.1202247,0.1211001,1.670204,-0.01548318,-0.3759305,1.620381,-0.1771073,-0.09668031,1.653702,0.3359089,-0.1018697,1.604226,NA,NA,NotTracked,NotTracked,
0.3076172,0.6879883,0.8110352,0.1088867,-0.7919922,0.7084961,4,5,7,30,-6,-3,0,-1,0,0,1,-4,5,14,1,0,-5.1875,-5.1875,-5.1875,-18.6875,-18.6875,-18.6875,6.506281,4.767554,9.949078,3.697671,4.797734,5.138709,-0.01174259,-0.1113415,1.416234,0.0490435,-0.1031002,1.406567,0.06607299,0.4005433,1.662504,0.03541308,-0.1291926,1.402889,0.0202502,-0.1324148,1.3958,0.05901199,-0.06487267,1.676886,0.05976279,-0.3848515,1.654086,-0.1202288,0.1211092,1.670179,-0.01539953,-0.3753484,1.620263,-0.1773091,-0.09662316,1.652763,0.3333718,-0.101659,1.597135,NA,NA,NotTracked,NotTracked,
0.04492188,1.036133,0.2353516,0.1069336,-0.6943359,0.7001953,-3,-8,-13,-27,-6,-2,12,1,-2,-2,-11,-8,-4,-11,-1,-2,15.8125,15.8125,15.8125,12.75,12.75,12.75,6.531215,4.782962,9.945459,3.706747,4.812052,5.132829,-0.00804879,-0.1059838,1.41478,0.05007449,-0.09828389,1.408002,0.06610478,0.4006065,1.662869,0.03579967,-0.1232771,1.401917,0.01793002,-0.1308573,1.399567,0.0589244,-0.0645536,1.676875,0.0595456,-0.3838991,1.653999,-0.1202215,0.1211355,1.670166,-0.01544633,-0.3749533,1.620251,-0.1776682,-0.09649879,1.652463,0.3331771,-0.1014007,1.596881,NA,NA,NotTracked,NotTracked,
0.5024414,1.066406,0.4272461,0.1103516,-0.7294922,0.7353516,-1,-1,-10,-14,-57,-15,-10,-5,1,-1,12,-1,-1,-5,-2,-2,9.8125,9.8125,9.8125,-14.5,-14.5,-14.5,6.57533,4.854426,9.946378,3.698201,4.830823,5.136129,-0.02356844,-0.1075838,1.429643,0.03082475,-0.09932587,1.410046,0.06598751,0.4006403,1.663188,0.009744407,-0.1245945,1.390813,-0.005592817,-0.13266,1.4355,0.05887006,-0.06442308,1.676906,0.05953345,-0.3837133,1.653991,-0.1202272,0.1211818,1.670148,-0.01541721,-0.374491,1.620128,-0.1784489,-0.09624115,1.652319,0.3315902,-0.10009,1.593281,NA,NA,NotTracked,NotTracked,
0.5024414,1.066406,0.4272461,0.06445313,-0.7763672,0.7529297,-1,5,5,10,5,2,1,-1,-1,0,3,7,-5,-9,4,2,9.8125,9.8125,9.8125,-9.4375,-9.4375,-9.4375,6.57533,4.854426,9.946378,3.693965,4.843397,5.136463,-0.01838827,-0.1009374,1.427133,0.03226566,-0.09038692,1.410528,0.06596114,0.4007125,1.66361,-0.006982399,-0.1240178,1.413333,-0.00153638,-0.1282155,1.432,0.05879176,-0.06429966,1.676888,0.059515,-0.3836453,1.653888,-0.1202295,0.1212204,1.670126,-0.01541598,-0.3742878,1.620062,-0.179294,-0.09596431,1.650584,0.3335504,-0.09775323,1.59412,NA,NA,NotTracked,NotTracked,
-0.6762695,0.6328125,0.4643555,-0.009765625,-0.78125,0.7177734,3,-6,0,3,-3,-2,2,2,-2,-3,-9,2,-1,0,-4,-2,-0.9375,-0.9375,-0.9375,13.4375,13.4375,13.4375,6.571078,4.943875,9.934515,3.701449,4.878646,5.13592,0.06943147,-0.07502034,1.407317,0.0580034,-0.07812017,1.409464,0.06596654,0.4007265,1.663704,0.1412996,-0.08913403,1.363,0.04260059,-0.1042588,1.4102,0.05878795,-0.06421299,1.676876,0.05957756,-0.383511,1.653815,-0.1202051,0.1212458,1.670112,-0.01534603,-0.3742078,1.620048,-0.179867,-0.09576704,1.650036,0.3358881,-0.09785799,1.592957,NA,NA,NotTracked,NotTracked,
0.1708984,0.9555664,0.3974609,-0.004394531,-0.6821289,0.6826172,-4,-1,-3,-4,2,-2,5,-28,1,-1,-7,8,12,10,3,2,2.625,2.625,2.625,-8.625,-8.625,-8.625,6.561118,4.919336,9.904282,3.702704,4.918481,5.143808,0.1152875,-0.07428086,1.400309,0.04313955,-0.07462286,1.407306,0.06595533,0.4007703,1.66384,0.07476771,-0.03909498,1.354462,0.07297496,-0.07332744,1.459889,0.05877907,-0.06416775,1.676879,0.05957898,-0.3834856,1.653804,-0.1202011,0.1212708,1.670112,-0.015335,-0.3741913,1.620056,-0.1800673,-0.09567656,1.649332,0.3365144,-0.09713715,1.590299,NA,NA,NotTracked,NotTracked,
0.2680664,0.5795898,0.9360352,0.0004882813,-0.7861328,0.6884766,-9,-1,-7,-5,-7,-68,1,-50,-2,-2,-7,-2,-10,-13,-3,-4,-1.8125,-1.8125,-1.8125,-3.375,-3.375,-3.375,6.554349,4.889637,9.871161,3.691883,4.958708,5.151979,0.01649683,-0.07238055,1.40799,0.04050558,-0.07146662,1.403916,0.06595168,0.4008725,1.664233,-0.01489905,-0.08139013,1.372822,0.01864059,-0.1011556,1.406429,0.05879783,-0.06408194,1.676869,0.05964882,-0.383371,1.653773,-0.1201952,0.1212987,1.6701,-0.01523588,-0.3740256,1.620062,-0.1806166,-0.09548003,1.64859,0.3353286,-0.09758504,1.581414,NA,NA,NotTracked,NotTracked,
0.1308594,0.7651367,0.5800781,-0.02148438,-0.7167969,0.6621094,-3,-1,-19,-36,-114,-25,-1,7,-2,-2,-3,-4,-1,-4,-6,-5,20.6875,20.6875,20.6875,3.6875,3.6875,3.6875,6.567667,4.860757,9.840993,3.696717,4.996121,5.162919,0.002269109,-0.07181632,1.417023,0.1654934,-0.09963422,1.380203,0.06592008,0.4008679,1.66432,-0.01507822,-0.05913338,1.374014,0.1380116,-0.1331077,1.366364,0.05871656,-0.06403779,1.676843,0.05956929,-0.3833316,1.653679,-0.1201839,0.1213016,1.670079,-0.01530191,-0.3739441,1.620004,-0.1807299,-0.09543449,1.648167,0.3251483,-0.09136395,1.604752,NA,NA,NotTracked,NotTracked,
0.2011719,0.9140625,0.6005859,-0.0234375,-0.7299805,0.668457,2,16,2,-33,11,12,-2,8,-3,-2,-4,-4,1,1,-1,0,93.9375,93.9375,93.9375,-10.1875,-10.1875,-10.1875,6.651673,4.843105,9.815866,3.687931,5.020467,5.177752,0.0004397197,-0.06615576,1.415165,0.1713812,-0.1145647,1.377504,0.06593163,0.4008325,1.664554,-0.01649209,-0.05337625,1.373169,0.1568384,-0.1519064,1.364571,0.05868649,-0.06401781,1.676842,0.05951053,-0.3833114,1.653654,-0.120157,0.1213218,1.670092,-0.01535292,-0.3739147,1.620005,-0.1804768,-0.09543093,1.64611,0.3252721,-0.0912746,1.604421,NA,NA,NotTracked,NotTracked,
0.2773438,1.130859,0.4692383,-0.01513672,-0.7163086,0.6303711,-2,-12,-3,-19,1,4,-4,-8,0,0,1,-4,0,1,3,3,42.3125,42.3125,42.3125,-5.125,-5.125,-5.125,6.72285,4.813618,9.854102,3.679825,5.027604,5.189009,-0.001426016,-0.06016784,1.406821,0.1755481,-0.1306527,1.399963,0.06587608,0.4009187,1.664822,-0.01905883,-0.03739611,1.369222,0.1971483,-0.1489251,1.36992,0.05867525,-0.06386381,1.676849,0.05951355,-0.3830916,1.653603,-0.1201621,0.1213408,1.670109,-0.01534275,-0.373607,1.620001,-0.1804088,-0.09534174,1.643507,0.325347,-0.09088385,1.60287,NA,NA,NotTracked,NotTracked,
0.1318359,0.8154297,0.5917969,0.015625,-0.7148438,0.6459961,2,-6,-12,22,4,1,3,9,-1,1,1,1,-2,-1,0,0,-9,-9,-9,-19,-19,-19,6.700705,4.794431,9.930713,3.664401,5.01937,5.200843,-0.002264019,-0.06048986,1.402395,0.171944,-0.1245349,1.419473,0.06593722,0.4009158,1.664998,-0.02015884,-0.04925492,1.36356,0.1727753,-0.1116521,1.385556,0.05867086,-0.06383063,1.676856,0.05950082,-0.3830573,1.653589,-0.1201406,0.1213642,1.670122,-0.01535375,-0.3735202,1.620005,-0.1797027,-0.09542332,1.641563,0.3265119,-0.09035312,1.602584,NA,NA,NotTracked,NotTracked,
-0.01367188,0.8945313,0.6166992,0.05175781,-0.7641602,0.6943359,-24,-33,-9,6,4,-2,-15,-24,-2,-2,-1,-4,-3,3,2,-4,-31.3125,-31.3125,-31.3125,-14.125,-14.125,-14.125,6.661019,4.804042,0.003054818,3.646945,4.997883,5.206036,-0.00287288,-0.06312402,1.399954,0.1652573,-0.1140181,1.437783,0.06599929,0.4009852,1.665166,-0.02059331,-0.0428507,1.363049,0.2052135,-0.1065426,1.407285,0.05866535,-0.06377811,1.676861,0.05950907,-0.3829863,1.653585,-0.1200803,0.1214749,1.670121,-0.01530829,-0.3733786,1.620029,-0.179219,-0.09530076,1.639212,0.3283645,-0.08945882,1.602101,NA,NA,NotTracked,NotTracked,
-0.07421875,0.8344727,0.6279297,0.06103516,-0.7348633,0.7114258,11,9,-10,-2,5,2,3,5,-2,-4,-5,-6,1,7,1,-1,-75,-75,-75,-8.5625,-8.5625,-8.5625,6.575676,4.841991,0.0463911,3.641073,4.974577,5.200998,-0.008031473,-0.06944846,1.397014,0.1013317,-0.09186385,1.422603,0.06599936,0.4009784,1.665167,-0.02179433,-0.05591155,1.358879,0.1257286,-0.1217357,1.410714,0.05865276,-0.06375409,1.676855,0.05950129,-0.3829741,1.653575,-0.1200478,0.1215184,1.67012,-0.01529707,-0.3733255,1.620044,-0.1784872,-0.09526315,1.636453,0.3302476,-0.08860089,1.602044,NA,NA,NotTracked,NotTracked,
-0.06689453,0.7460938,0.6118164,0.04785156,-0.7875977,0.7045898,-14,2,-7,-10,-2,2,-2,-4,-1,0,-2,-1,-3,-7,1,-2,-48.8125,-48.8125,-48.8125,-9.3125,-9.3125,-9.3125,6.506862,4.900255,0.04127518,3.632334,4.957807,5.193173,-0.007843027,-0.07274086,1.396251,0.01861254,-0.06820005,1.386697,0.06601095,0.4009688,1.665253,-0.02116153,-0.06020204,1.357222,-0.003407005,-0.1014045,1.384,0.05863929,-0.06372301,1.676865,0.05945557,-0.3829458,1.653569,-0.1200301,0.1215534,1.670134,-0.01531263,-0.3733047,1.620069,-0.1782046,-0.09524644,1.63575,0.3309319,-0.08826572,1.601975,NA,NA,NotTracked,NotTracked,
-0.1157227,0.7856445,0.6025391,0.03662109,-0.7944336,0.7099609,1,3,1,57,-10,1,4,2,0,-2,-1,0,1,0,-2,-5,-25.25,-25.25,-25.25,4.5,4.5,4.5,6.473732,4.972371,0.003581655,3.635201,4.949872,5.18364,-0.0112818,-0.07980953,1.400947,0.03746555,-0.06359465,1.393653,0.06611341,0.4009132,1.665386,-0.01912702,-0.05491369,1.361992,0.006037701,-0.102362,1.374727,0.05858858,-0.06368527,1.676873,0.05929415,-0.3829013,1.653542,-0.1198837,0.121623,1.670133,-0.01544439,-0.3731956,1.620138,-0.1783437,-0.09507035,1.635389,0.3311574,-0.08796905,1.602093,NA,NA,NotTracked,NotTracked,
-0.1035156,0.6904297,0.5307617,-0.01074219,-0.762207,0.6713867,0,-5,8,78,20,14,-3,2,-3,-2,-1,4,-4,1,-4,-2,-24.6875,-24.6875,-24.6875,10.875,10.875,10.875,6.448985,5.026038,9.944603,3.647031,4.95402,5.178059,-0.0116621,-0.0801595,1.40252,0.03446902,-0.06748428,1.390536,0.06614055,0.4008973,1.665384,-0.01770392,-0.05351239,1.364117,-0.0001768662,-0.1038701,1.380811,0.05859686,-0.06367319,1.676876,0.05933782,-0.3828723,1.653522,-0.119877,0.121624,1.670133,-0.01536899,-0.3732016,1.620154,-0.1783238,-0.09506067,1.635236,0.3311458,-0.08785057,1.601666,NA,NA,NotTracked,NotTracked,
-0.02099609,0.7695313,0.4951172,-0.01855469,-0.78125,0.6665039,6,5,7,23,13,7,2,-4,-1,0,-1,1,4,1,2,-1,71.375,71.375,71.375,5.3125,5.3125,5.3125,6.493472,5.054545,9.870541,3.653172,4.964777,5.178941,-0.01193383,-0.07949922,1.404856,0.04062699,-0.06282669,1.390923,0.06618339,0.4009482,1.665612,-0.01608428,-0.05070426,1.366198,0.01597339,-0.09850752,1.380929,0.05858614,-0.06364904,1.676895,0.05931696,-0.382843,1.653527,-0.119858,0.1216526,1.670161,-0.01538826,-0.3732028,1.620189,-0.17834,-0.09502126,1.635248,0.3311111,-0.08775172,1.601248,NA,NA,NotTracked,NotTracked,
0.1586914,0.9384766,0.5703125,0.001953125,-0.784668,0.6611328,4,10,-1,-22,10,-2,-7,-3,-1,-1,-1,-3,-3,-2,-4,-3,98.375,98.375,98.375,5.9375,5.9375,5.9375,6.549169,5.053424,9.838025,3.657722,4.975289,5.183862,-0.01237636,-0.07922269,1.403838,0.03385812,-0.06398598,1.389478,0.06619594,0.4009076,1.66565,-0.01621991,-0.04811065,1.365586,0.008437316,-0.1002623,1.381195,0.05857905,-0.06363447,1.67689,0.05928265,-0.382824,1.6535,-0.1197641,0.1216863,1.670137,-0.01540082,-0.3731825,1.620198,-0.1784654,-0.09493688,1.635341,0.3365027,-0.08744316,1.57998,NA,NA,NotTracked,NotTracked,
0.01757813,0.7255859,0.6420898,0.008789063,-0.7773438,0.6552734,-3,-5,2,-1,3,-5,-3,0,0,-1,-2,-4,-7,-9,-1,-1,-32.4375,-32.4375,-32.4375,-0.4375,-0.4375,-0.4375,6.556517,5.022562,9.847989,3.657963,4.982825,5.190709,-0.0130313,-0.07808643,1.404901,0.03177748,-0.0643139,1.388555,0.06620051,0.4009043,1.665674,-0.01675293,-0.04707171,1.366803,0.005170804,-0.100952,1.381588,0.05860057,-0.06357086,1.676874,0.05941207,-0.3825675,1.653325,-0.119752,0.1216889,1.670144,-0.01527615,-0.3732142,1.620165,-0.1784787,-0.0949072,1.635102,0.3332133,-0.08876559,1.568845,NA,NA,NotTracked,NotTracked,
-0.08789063,0.7504883,0.6254883,0.03955078,-0.7729492,0.6494141,-2,-1,-1,1,7,0,7,0,1,-1,0,1,1,9,7,2,27.625,27.625,27.625,-3.1875,-3.1875,-3.1875,6.558575,5.008615,9.876007,3.65229,4.984336,5.198532,-0.01344922,-0.07430756,1.403861,0.03033166,-0.06251772,1.389368,0.06624039,0.4009119,1.665688,-0.01782047,-0.0453166,1.365819,0.008211836,-0.08933373,1.367125,0.05856625,-0.06350246,1.676849,0.05934422,-0.3824882,1.65323,-0.1197243,0.1217313,1.670129,-0.01530208,-0.3731447,1.620156,-0.1776924,-0.09492798,1.63338,0.3332117,-0.08986623,1.563504,NA,NA,NotTracked,NotTracked,
-0.09082031,0.9199219,0.5795898,0.008789063,-0.7338867,0.6811523,1,4,2,55,46,7,-1,1,-1,-1,-1,-2,1,1,-2,-1,-8.5,-8.5,-8.5,-2.4375,-2.4375,-2.4375,6.56644,5.003967,9.888144,3.649723,4.982371,5.205705,-0.01372989,-0.07445773,1.40236,0.02960998,-0.06232231,1.388749,0.066257,0.4008988,1.66569,-0.01854079,-0.04642142,1.363826,0.005591564,-0.09294961,1.370669,0.05857404,-0.0634737,1.676849,0.05935803,-0.3824608,1.653213,-0.1196874,0.1217432,1.670142,-0.01528537,-0.3731303,1.620168,-0.1776939,-0.09486403,1.632938,0.3333393,-0.09007338,1.562834,NA,NA,NotTracked,NotTracked,
-0.09130859,0.7329102,0.597168,-0.0004882813,-0.7431641,0.6899414,-3,-8,-8,-40,-2,0,-2,-1,1,-2,-4,-2,-9,-10,-3,-1,-18.25,-18.25,-18.25,-4.3125,-4.3125,-4.3125,6.537545,5.008286,9.886319,3.648013,4.978475,5.199193,-0.01478609,-0.07419676,1.403781,0.02926864,-0.06218913,1.390476,0.06635869,0.4008615,1.665802,-0.01894358,-0.04837143,1.36413,0.01023497,-0.09427296,1.382812,0.05857304,-0.063472,1.676865,0.05935426,-0.3824907,1.65323,-0.1196667,0.1217456,1.670166,-0.01528798,-0.3731593,1.620229,-0.1776181,-0.09486213,1.632803,0.3333818,-0.09034931,1.562541,NA,NA,NotTracked,NotTracked,
-0.07128906,0.8535156,0.5849609,-0.01757813,-0.7578125,0.6875,-3,5,5,-4,28,3,-2,-3,-1,-1,2,3,-3,-9,-3,-1,11.4375,11.4375,11.4375,1.5,1.5,1.5,6.544073,5.014335,9.874884,3.648605,4.976297,5.18927,-0.01590666,-0.07506029,1.404967,0.03065941,-0.0626619,1.39139,0.06648108,0.400823,1.66585,-0.01818848,-0.04396039,1.365685,0.002584313,-0.0971628,1.381761,0.05857363,-0.06347173,1.676864,0.05935934,-0.3824947,1.653226,-0.1196204,0.1217011,1.670164,-0.0152767,-0.3731552,1.620232,-0.1777333,-0.0948648,1.632832,0.3335007,-0.09045571,1.562368,NA,NA,NotTracked,NotTracked,
-0.04296875,0.8945313,0.5639648,-0.01074219,-0.7661133,0.675293,-5,-8,-9,-37,-6,-1,8,0,-1,-1,-3,-2,1,-3,-1,-2,-1.3125,-1.3125,-1.3125,5.9375,5.9375,5.9375,6.545033,5.01492,9.869689,3.654193,4.975029,5.186659,-0.01405447,-0.07556245,1.405054,0.03250122,-0.06314316,1.391986,0.06659493,0.4007743,1.665895,-0.01807948,-0.04793045,1.364747,0.005765282,-0.0925051,1.371415,0.05857838,-0.06346497,1.676867,0.05935811,-0.3824944,1.653226,-0.1195621,0.1217328,1.670199,-0.01527972,-0.3731554,1.620251,-0.1776229,-0.09482859,1.632663,0.3336442,-0.09064993,1.562477,NA,NA,NotTracked,NotTracked,
0.1035156,0.7749023,0.7890625,0.009277344,-0.7490234,0.6713867,0,-3,-4,18,65,8,0,-4,-4,-2,1,0,4,-2,-4,0,-4.375,-4.375,-4.375,3.5,3.5,3.5,6.523092,5.012125,9.862688,3.65942,4.974771,5.18958,-0.01431452,-0.075281,1.405412,0.03281405,-0.06324149,1.391794,0.06670822,0.4007183,1.665966,-0.01841708,-0.04388562,1.368586,0.009693739,-0.09424441,1.377398,0.05856498,-0.06335609,1.676867,0.05927854,-0.3821447,1.65318,-0.1195532,0.1217353,1.670205,-0.01528669,-0.373132,1.620282,-0.1775461,-0.09482242,1.632432,0.3337027,-0.09068053,1.562511,NA,NA,NotTracked,NotTracked,
0.1035156,0.7749023,0.7890625,0.009277344,-0.7490234,0.6713867,0,-3,-4,18,65,8,0,-4,-4,-2,1,0,4,-2,-4,0,-4.375,-4.375,-4.375,3.5,3.5,3.5,6.523092,5.012125,9.862688,3.65942,4.974771,5.18958,-0.01425073,-0.07558502,1.404096,0.03100495,-0.06306503,1.390639,0.06679998,0.400703,1.666,-0.01811052,-0.04376894,1.36698,0.007556994,-0.09505534,1.37731,0.05858535,-0.06336473,1.676871,0.05936881,-0.3822515,1.653172,-0.1195181,0.1217504,1.670216,-0.01517673,-0.3732299,1.620297,-0.1774094,-0.09480017,1.632076,0.3336858,-0.09080596,1.562654,NA,NA,NotTracked,NotTracked,
