ALX,ALY,ALZ,ARX,ARY,ARZ,EMG0L,EMG1L,EMG2L,EMG3L,EMG4L,EMG5L,EMG6L,EMG7L,EMG0R,EMG1R,EMG2R,EMG3R,EMG4R,EMG5R,EMG6R,EMG7R,GLX,GLY,GLZ,GRX,GRY,GRZ,ORL,OPL,OYL,ORR,OPR,OYR,LHNX,LHNY,LHNZ,RHNX,RHNY,RHNZ,HX,HY,HZ,LTX,LTY,LTZ,RTX,RTY,RTZ,SpineMidX,SpineMidY,SpineMidZ,SpineBaseX,SpineBaseY,SpineBaseZ,ShoulderLeftX,ShoulderLeftY,ShoulderLeftZ,ShoulderRightX,ShoulderRightY,ShoulderRightZ,ElbowLeftX,ElbowLeftY,ElbowLeftZ,ElbowRightX,ElbowRightY,ElbowRightZ,Myo_Pose_left,Myo_Pose_Right,Kinect_pose_left,Kinect_pose_right
0.9155273,0.3325195,0.07617188,0.9370117,-0.3276367,0.07226563,-7,-3,-4,-1,-5,-3,5,-46,-2,-2,-1,-2,-1,-2,-1,-3,2.25,2.25,2.25,2.875,2.875,2.875,7.136756,3.062078,6.796144,2.859313,3.066035,3.805127,-0.1598438,-0.4382857,1.510588,0.2463063,-0.4246414,1.4769,0.05711954,0.4095202,1.591197,-0.2055708,-0.4575523,1.521033,0.2042435,-0.4089429,1.454792,0.05422116,-0.05945104,1.597619,0.04782198,-0.3800269,1.572252,-0.1275216,0.11706,1.599472,-0.0283319,-0.3700509,1.541067,-0.1675893,-0.1494686,1.60126,0.2791415,-0.1414996,1.577282,NA,NA,NotTracked,NotTracked,
0.9306641,0.3173828,0.07763672,0.9443359,-0.340332,0.08007813,-3,-2,-2,-1,-1,-3,-3,-4,-3,-1,0,-2,-1,1,-1,-1,2.9375,2.9375,2.9375,2.25,2.25,2.25,7.134651,3.060123,6.802309,2.860387,3.066354,3.807803,-0.1600239,-0.4387485,1.511447,0.2455354,-0.4245035,1.47735,0.05697639,0.4095084,1.591143,-0.2057997,-0.4351481,1.5275,0.2041256,-0.407376,1.455554,0.05407725,-0.05949632,1.597559,0.04765483,-0.380069,1.572182,-0.127813,0.1170008,1.599501,-0.02848498,-0.370079,1.540996,-0.1675693,-0.1493632,1.601259,0.2790648,-0.1414992,1.577284,NA,NA,NotTracked,NotTracked,
0.9272461,0.3369141,0.07714844,0.9370117,-0.3364258,0.078125,-2,1,-1,0,-3,-1,15,-6,-2,-1,-5,0,0,-1,-1,0,5.875,5.875,5.875,4.625,4.625,4.625,7.13794,3.058386,6.81337,2.862038,3.0674,3.813287,-0.1600144,-0.4385445,1.5117,0.2452269,-0.4244267,1.477383,0.05672631,0.4095949,1.591101,-0.2048665,-0.4373361,1.525875,0.2039017,-0.4043013,1.456274,0.05397359,-0.05949866,1.59751,0.04759181,-0.3800514,1.572154,-0.1279272,0.1169705,1.599615,-0.02855753,-0.3700781,1.540997,-0.1676006,-0.14937,1.601351,0.2789155,-0.1413982,1.577371,NA,NA,NotTracked,NotTracked,
0.9238281,0.3999023,0.03955078,0.9428711,-0.3413086,0.08007813,-20,-5,-3,-4,-2,-5,11,-83,-3,0,-1,-1,-3,0,-4,-3,-0.3125,-0.3125,-0.3125,3.625,3.625,3.625,7.150235,3.062939,6.805464,2.863241,3.068606,3.819201,-0.1601078,-0.4388602,1.512037,0.2452389,-0.4245757,1.477003,0.05654665,0.4095863,1.591091,-0.2056806,-0.4605287,1.520571,0.2042644,-0.4083247,1.45499,0.05379499,-0.05947201,1.597366,0.04748784,-0.3800448,1.571994,-0.1280665,0.116868,1.599618,-0.02864145,-0.3700793,1.540891,-0.1676689,-0.1493887,1.601359,0.2786961,-0.1411066,1.577302,NA,NA,NotTracked,NotTracked,
1.011719,0.3676758,-0.009277344,0.9301758,-0.3461914,0.06396484,-7,-3,2,-4,-3,-1,1,-11,-1,-1,-3,-2,-2,-1,-2,-1,2,2,2,3.5,3.5,3.5,7.135327,3.09464,6.813259,2.867702,3.070612,3.820803,-0.1605033,-0.4397261,1.511391,0.2448178,-0.4222082,1.472871,0.05630204,0.4096178,1.591077,-0.2022595,-0.4553016,1.515381,0.202591,-0.4147039,1.451294,0.05365817,-0.05947338,1.597301,0.0473118,-0.3800292,1.571841,-0.1282138,0.116777,1.599712,-0.02882644,-0.3700634,1.540733,-0.1677027,-0.1492626,1.601519,0.2789395,-0.1406953,1.577355,NA,NA,NotTracked,NotTracked,
0.980957,0.7006836,0.002441406,0.940918,-0.3383789,0.06835938,-14,-7,-14,10,-3,-5,-7,0,-1,-2,-2,-1,-2,-1,-2,-2,-42.6875,-42.6875,-42.6875,7.8125,7.8125,7.8125,7.090405,3.196894,6.868986,2.872676,3.075997,3.826212,-0.1605552,-0.4385429,1.512162,0.2411992,-0.4114397,1.455816,0.05599387,0.4096766,1.591088,-0.2063651,-0.4242556,1.528179,0.2371336,-0.4202285,1.401047,0.05349502,-0.05942273,1.597308,0.04701228,-0.3799672,1.571777,-0.128558,0.1167631,1.600044,-0.02911339,-0.3699699,1.54066,-0.1678222,-0.1493711,1.601741,0.2809906,-0.1389449,1.578798,NA,NA,NotTracked,NotTracked,
1.178223,0.4487305,0.2402344,0.9418945,-0.3266602,0.07910156,10,3,19,20,9,-3,-4,-7,-2,0,-2,-2,-1,-1,-3,-1,-28.8125,-28.8125,-28.8125,-2.875,-2.875,-2.875,6.880978,3.417323,6.983938,2.870471,3.075066,3.830968,-0.1613925,-0.4384598,1.510083,0.232252,-0.3710421,1.39758,0.05574031,0.4096571,1.591048,-0.2080531,-0.4327537,1.528911,0.1877205,-0.3597547,1.40039,0.05301638,-0.05932395,1.597229,0.04642437,-0.3797775,1.571715,-0.1288811,0.1166984,1.600379,-0.02971683,-0.3697362,1.540568,-0.1679561,-0.149486,1.601853,0.2886879,-0.131603,1.579062,NA,NA,NotTracked,NotTracked,
0.6567383,0.9790039,0.5327148,0.9296875,-0.3496094,0.08447266,11,6,-15,-76,-12,-2,-2,-3,0,-2,-2,-2,-1,1,-1,-1,-30.25,-30.25,-30.25,-8.625,-8.625,-8.625,6.767468,3.949982,7.141444,2.853219,3.068825,3.832181,-0.1616585,-0.4390151,1.512651,0.2156298,-0.271071,1.340038,0.05539532,0.4096333,1.590984,-0.2059599,-0.4355435,1.525365,0.1721964,-0.3066429,1.349143,0.05213592,-0.0591625,1.597241,0.04443232,-0.3793004,1.571656,-0.1289946,0.1167064,1.600511,-0.0316815,-0.3691812,1.540485,-0.1681938,-0.1495611,1.601933,0.3067769,-0.09190904,1.57673,NA,NA,NotTracked,Unknown,
0.3173828,0.7211914,0.5688477,0.9375,-0.34375,0.08447266,20,19,-2,-7,8,-1,-1,4,-2,-1,-1,-1,-1,-1,-1,0,-15.125,-15.125,-15.125,-7.3125,-7.3125,-7.3125,6.67303,4.459714,7.21418,2.847295,3.067606,3.826506,-0.1620858,-0.439759,1.512662,0.2105031,-0.1336924,1.300216,0.05514878,0.4094684,1.590787,-0.2071037,-0.4640104,1.523167,0.2209429,-0.1668946,1.2616,0.05148285,-0.05906241,1.597365,0.04370977,-0.3790184,1.571735,-0.1290565,0.1167257,1.600563,-0.03248637,-0.3689263,1.540508,-0.1683776,-0.1486594,1.602158,0.3166334,-0.08044281,1.569387,NA,NA,NotTracked,Unknown,
-0.2109375,0.7612305,0.4702148,0.9355469,-0.3432617,0.08105469,17,0,3,9,4,15,7,3,1,1,-1,-1,-2,-2,0,0,17.5,17.5,17.5,-4.5625,-4.5625,-4.5625,6.702507,5.181162,7.321866,2.849772,3.069781,3.81418,-0.1619415,-0.4391994,1.512286,0.1995323,-0.00247155,1.297526,0.05517133,0.4092562,1.590553,-0.2053623,-0.4397629,1.520852,0.1919036,-0.02647281,1.247042,0.05120293,-0.05889818,1.597596,0.04320682,-0.3784024,1.572057,-0.1290361,0.1167626,1.600603,-0.0329235,-0.3684303,1.541182,-0.1686519,-0.1474047,1.602497,0.3218713,-0.06361508,1.516036,NA,NA,NotTracked,Unknown,
-0.378418,0.7133789,0.4853516,0.9272461,-0.3310547,0.06005859,-48,-22,-13,-3,0,-3,-5,-13,0,0,0,-3,-1,0,0,0,27.5625,27.5625,27.5625,1.9375,1.9375,1.9375,6.764419,5.641998,7.431286,2.850679,3.074253,3.808083,-0.1619757,-0.4382174,1.512171,0.1774124,0.1104541,1.319041,0.0553085,0.4090411,1.590502,-0.2091829,-0.4356902,1.534588,0.1682716,0.1045433,1.249158,0.05076658,-0.05929959,1.597854,0.04301321,-0.378967,1.572221,-0.1289331,0.1167933,1.600579,-0.03333514,-0.3694195,1.541927,-0.1688132,-0.1467523,1.602451,0.3196031,-0.05423695,1.490268,NA,NA,NotTracked,Unknown,
-0.4741211,0.6660156,0.3325195,0.9208984,-0.3173828,0.078125,36,5,-7,3,1,-3,-7,8,0,0,-2,-2,-2,-1,-1,0,18.875,18.875,18.875,3.125,3.125,3.125,6.932975,6.082349,7.63617,2.854293,3.079655,3.809876,-0.1620805,-0.438502,1.511584,0.1668784,0.1859549,1.347461,0.0552911,0.4091033,1.590488,-0.2073313,-0.4371219,1.527411,0.1368485,0.2113441,1.40287,0.05080494,-0.05897748,1.597874,0.0423079,-0.379141,1.572283,-0.127704,0.1174001,1.600903,-0.03459415,-0.3695507,1.542343,-0.1685419,-0.1453172,1.602559,0.3257743,-0.04621808,1.471986,NA,NA,NotTracked,Unknown,
-0.5522461,0.6049805,0.2358398,0.9394531,-0.315918,0.07128906,26,4,-6,-2,0,1,-1,-4,-1,-1,-1,-2,-2,-2,0,0,19.1875,19.1875,19.1875,4.0625,4.0625,4.0625,7.110364,6.307416,7.847159,2.859632,3.079063,3.810967,-0.1618067,-0.4378471,1.510747,0.1610257,0.2311958,1.370856,0.05534153,0.4090683,1.590263,-0.2059928,-0.4258872,1.525773,0.136754,0.2406574,1.427122,0.05122641,-0.05844984,1.598121,0.04163852,-0.378758,1.57247,-0.1263916,0.1177919,1.600975,-0.03592792,-0.3689093,1.542628,-0.1680371,-0.1418705,1.602876,0.3296086,-0.02986386,1.44918,NA,NA,NotTracked,Unknown,
-0.6157227,0.6240234,0.1923828,0.9418945,-0.340332,0.07080078,-2,-4,2,1,2,-4,-1,1,-1,-4,-2,-2,-2,-1,0,-2,6.8125,6.8125,6.8125,0.9375,0.9375,0.9375,7.301556,6.444398,8.074357,2.858486,3.075414,3.814608,-0.1614815,-0.4344834,1.513183,0.1727442,0.2333338,1.383763,0.05539351,0.4090086,1.590056,-0.2053969,-0.4339368,1.525206,0.143878,0.2446846,1.440667,0.05175366,-0.05804599,1.59873,0.04094447,-0.3777754,1.572722,-0.1252062,0.1182863,1.601468,-0.03699843,-0.3676811,1.542881,-0.1678619,-0.1403997,1.603244,0.3410046,-0.02351812,1.437457,NA,NA,NotTracked,Unknown,
-0.7216797,0.5439453,0.04882813,0.9311523,-0.3710938,0.07714844,-16,-1,2,4,3,0,1,2,-3,-2,-3,-5,-2,-1,-1,-2,-1.75,-1.75,-1.75,1.5625,1.5625,1.5625,7.500887,6.532641,8.322963,2.853047,3.075148,3.823914,-0.1615917,-0.4352198,1.513685,0.173779,0.2375644,1.393385,0.0553868,0.4088872,1.589929,-0.2052218,-0.4440881,1.527857,0.1455756,0.2427064,1.462,0.05192566,-0.05780217,1.598588,0.04057131,-0.3768045,1.572718,-0.1245838,0.1183221,1.601735,-0.03759017,-0.3667944,1.542974,-0.1674336,-0.1393398,1.60369,0.3314179,0.01784642,1.408607,NA,NA,NotTracked,Unknown,
-0.7290039,0.5322266,0.009765625,0.9228516,-0.359375,0.07714844,24,8,2,2,1,0,0,5,0,1,0,0,-1,-2,-1,0,-3.5,-3.5,-3.5,1.125,1.125,1.125,7.597722,6.55143,8.443819,2.852779,3.078405,3.828491,-0.1608303,-0.438201,1.513332,0.2507827,0.1296702,1.39599,0.05540968,0.4089084,1.589961,-0.205128,-0.4551118,1.527111,0.241146,0.08972026,1.469643,0.0519894,-0.05755123,1.598552,0.03996302,-0.3757971,1.572901,-0.1236797,0.1184904,1.602096,-0.0384738,-0.3657341,1.543414,-0.1670438,-0.1379641,1.604664,0.3306715,0.02220606,1.406142,NA,NA,NotTracked,Unknown,
-0.7602539,0.5195313,-0.002929688,0.9331055,-0.3466797,0.07910156,-50,3,-6,-2,-3,-5,-5,-19,0,-1,0,-2,0,-2,0,-1,-4.125,-4.125,-4.125,-1.125,-1.125,-1.125,7.645492,6.547287,8.518191,2.853445,3.080938,3.824631,-0.1615441,-0.435022,1.515284,0.2024279,0.1986319,1.40319,0.0554193,0.4088945,1.589952,-0.205146,-0.4406018,1.529101,0.1837956,0.1869606,1.4394,0.05258252,-0.05669748,1.599211,0.03972354,-0.3750743,1.573127,-0.123102,0.1186967,1.602613,-0.03880049,-0.3650946,1.543647,-0.166791,-0.1374055,1.605119,0.3301178,0.02684868,1.403742,NA,NA,NotTracked,Unknown,
-0.8154297,0.5615234,-0.03808594,0.9238281,-0.3496094,0.07373047,14,5,45,21,2,0,1,4,-1,1,-1,-2,-2,1,-2,-1,-11.5,-11.5,-11.5,-1.1875,-1.1875,-1.1875,7.6643,6.54166,8.558495,2.852204,3.08196,3.821776,-0.1615788,-0.4349109,1.515094,0.2040514,0.194178,1.404856,0.05547054,0.4089627,1.58994,-0.2045318,-0.4395934,1.527461,0.2245095,0.1416785,1.448125,0.05305277,-0.05627196,1.599725,0.03960569,-0.3747811,1.573227,-0.1227888,0.1187544,1.60286,-0.0389441,-0.3648496,1.543729,-0.1666496,-0.1370884,1.605514,0.3293425,0.03077764,1.401643,NA,NA,NotTracked,Unknown,
-0.8178711,0.5703125,-0.07910156,0.9370117,-0.3305664,0.07519531,4,2,-9,-2,-1,-1,0,1,0,-1,0,0,-1,0,-1,-1,-9.625,-9.625,-9.625,1.1875,1.1875,1.1875,7.671346,6.533451,8.584557,2.852646,3.083991,3.824308,-0.1616393,-0.4386233,1.513719,0.2037017,0.1945063,1.407845,0.05551833,0.4090102,1.589931,-0.2060844,-0.4497917,1.532545,0.2223408,0.1291542,1.456867,0.0534352,-0.0559487,1.599914,0.03954127,-0.3745878,1.573194,-0.1225811,0.1187102,1.60307,-0.03903667,-0.3646874,1.543683,-0.1664647,-0.1369222,1.605657,0.3263701,0.03519923,1.397456,NA,NA,NotTracked,Unknown,
-0.8208008,0.6098633,-0.1064453,0.9375,-0.3364258,0.07617188,-4,-11,-3,-2,-3,-1,-3,-1,-2,-2,0,-2,0,-1,0,-1,4.5,4.5,4.5,1.4375,1.4375,1.4375,7.686457,6.525524,8.604562,2.854921,3.086473,3.823416,-0.161523,-0.4391627,1.511978,0.1007831,0.3132857,1.453259,0.05552728,0.4090036,1.589921,-0.2043462,-0.4551202,1.517889,0.1050305,0.2864194,1.49285,0.05371062,-0.05580883,1.600099,0.03947925,-0.374532,1.573174,-0.122131,0.1186106,1.603149,-0.03916454,-0.3646269,1.543645,-0.1663984,-0.1369648,1.605647,0.3266262,0.03627237,1.397102,NA,NA,NotTracked,Unknown,
-0.7954102,0.5976563,-0.07519531,0.9311523,-0.3491211,0.06640625,-27,-15,3,2,-2,-4,-4,-13,-2,-1,-2,-1,-1,-3,-3,-2,14.3125,14.3125,14.3125,-1,-1,-1,7.684581,6.52362,8.579709,2.853926,3.085781,3.823911,-0.1617798,-0.4377779,1.511471,0.2091544,0.1928699,1.409204,0.05552144,0.4089744,1.589889,-0.2064045,-0.4269952,1.53125,0.1555893,0.2279051,1.44,0.05370782,-0.05580448,1.599977,0.03938655,-0.3742305,1.572971,-0.1219139,0.1185251,1.603247,-0.03933081,-0.3642765,1.543338,-0.1660811,-0.136631,1.605624,0.3280141,0.03562646,1.398687,NA,NA,NotTracked,Unknown,
-0.8613281,0.5224609,0.1220703,0.9414063,-0.3457031,0.06298828,7,10,1,-2,-2,1,2,5,0,-2,-1,-1,-1,-1,0,-1,28.8125,28.8125,28.8125,3.625,3.625,3.625,7.6432,6.562053,8.494534,2.85362,3.08484,3.827745,-0.1614336,-0.434858,1.513834,0.1289364,0.3153329,1.445521,0.05566785,0.4083985,1.589991,-0.2057964,-0.432017,1.529825,0.06026042,0.2794299,1.47556,0.05363302,-0.05575746,1.599897,0.03920016,-0.3736882,1.572971,-0.1215314,0.1185198,1.603509,-0.03964265,-0.3637636,1.543351,-0.1660492,-0.1364412,1.605553,0.3311829,0.0351815,1.401152,NA,NA,NotTracked,Unknown,
-0.4155273,0.6606445,-0.04931641,0.9331055,-0.3457031,0.08105469,8,-2,8,1,0,-1,-1,-5,-1,0,-1,-1,-2,-1,-2,-3,42.3125,42.3125,42.3125,2,2,2,7.59116,6.602029,8.347513,2.85178,3.083953,3.833884,-0.1616705,-0.4354593,1.512696,0.1588698,0.3228857,1.437314,0.05589611,0.4077922,1.590709,-0.206198,-0.4228078,1.52888,0.07106723,0.2972941,1.472861,0.05367861,-0.05534055,1.600292,0.03910181,-0.3726096,1.572991,-0.1208309,0.1186574,1.603748,-0.03981995,-0.3627455,1.543403,-0.1661428,-0.1364767,1.605593,0.3364412,0.03453665,1.406483,NA,NA,NotTracked,Unknown,
-0.8378906,0.5429688,-0.1728516,0.9282227,-0.3466797,0.08105469,13,0,1,-7,2,1,0,5,-1,-1,-1,-1,-1,-1,-1,1,58.5625,58.5625,58.5625,4.5,4.5,4.5,7.434065,6.757746,8.044931,2.852,3.082946,3.840874,-0.1625654,-0.435356,1.514501,0.2068486,0.3303648,1.426958,0.05543008,0.4078846,1.592125,-0.2069089,-0.4308083,1.531801,0.2000935,0.3308032,1.473909,0.05314815,-0.05516066,1.600427,0.03911067,-0.3719714,1.573033,-0.122904,0.1187636,1.603063,-0.03982358,-0.3622249,1.543284,-0.1663824,-0.1369932,1.605908,0.3411914,0.03359312,1.412135,NA,NA,NotTracked,Unknown,
-1.371094,0.3256836,-0.105957,0.9316406,-0.3535156,0.08691406,1,-2,-3,-17,-3,-3,-1,-1,-2,0,-1,-1,-1,0,0,0,60.3125,60.3125,60.3125,-2.625,-2.625,-2.625,7.207614,6.883329,7.695581,2.854402,3.082196,3.839684,-0.1626322,-0.4349073,1.51453,0.2460264,0.3227447,1.429364,0.05517139,0.4078619,1.592535,-0.2063279,-0.4259524,1.529417,0.2339911,0.3149008,1.469462,0.05293347,-0.05522693,1.60039,0.03949773,-0.3721468,1.57297,-0.123346,0.1184565,1.603387,-0.03887136,-0.3627631,1.543259,-0.1665896,-0.1382467,1.606167,0.3447995,0.03146754,1.415906,NA,NA,NotTracked,Unknown,
-0.9453125,0.2436523,0.1738281,0.9345703,-0.3540039,0.07666016,2,-1,-5,-47,-3,0,1,5,-1,-2,-1,-2,-2,0,0,2,38.5625,38.5625,38.5625,1.4375,1.4375,1.4375,6.884628,6.958408,7.272984,2.85518,3.082134,3.839371,-0.1625747,-0.4355964,1.515124,0.2755584,0.3218772,1.433268,0.05502008,0.4080054,1.593059,-0.2065562,-0.4246409,1.529052,0.2425027,0.3177426,1.45738,0.0525851,-0.05550858,1.60055,0.03957323,-0.372658,1.573146,-0.1246807,0.1183921,1.603207,-0.03838896,-0.363517,1.543637,-0.167302,-0.140764,1.606956,0.3502493,0.02511384,1.422357,NA,NA,NotTracked,Unknown,
-0.9799805,0.2026367,0.2373047,0.9277344,-0.3457031,0.08398438,-11,-9,-2,-6,3,1,-3,-8,0,-1,-1,-1,0,-3,-1,-1,26.875,26.875,26.875,0.375,0.375,0.375,6.603685,6.99428,6.923865,2.853032,3.08441,3.838082,-0.1630042,-0.4354,1.514894,0.2879412,0.3657492,1.440314,0.0549531,0.4079377,1.593329,-0.2083127,-0.4644987,1.527,0.241178,0.3489707,1.457,0.05202683,-0.05586652,1.600967,0.03966871,-0.373324,1.57316,-0.1248302,0.1181045,1.603449,-0.03797675,-0.3642702,1.543725,-0.1675023,-0.1411942,1.607011,0.3522064,0.02206605,1.423731,NA,NA,NotTracked,Unknown,
-1.011719,0.1835938,0.1958008,0.9301758,-0.3344727,0.08544922,-3,-5,2,-6,-5,-4,-4,-1,0,-2,-1,-1,-1,-2,0,-2,-7.0625,-7.0625,-7.0625,-3.875,-3.875,-3.875,6.513275,6.997898,6.830155,2.853738,3.085157,3.83489,-0.1627373,-0.4347172,1.514202,0.2872396,0.3229719,1.435668,0.05492652,0.4078849,1.593711,-0.2080331,-0.4628943,1.525318,0.2637209,0.2939999,1.480129,0.0519298,-0.05610846,1.600874,0.03992613,-0.3739143,1.573121,-0.1248744,0.1179612,1.6035,-0.03739262,-0.3649983,1.543644,-0.1676291,-0.1411576,1.60697,0.3528484,0.02104839,1.424257,NA,NA,NotTracked,Open,
-0.9975586,0.2519531,0.1669922,0.9345703,-0.328125,0.07519531,6,-3,-5,-8,-6,-2,1,-1,1,1,2,0,-4,-3,-2,0,-7,-7,-7,0.9375,0.9375,0.9375,6.575581,6.987818,6.9038,2.86137,3.087914,3.825229,-0.163318,-0.4347094,1.513915,0.2789447,0.3216507,1.433468,0.05498007,0.4080372,1.594134,-0.2066631,-0.4386669,1.526968,0.2550564,0.2929056,1.470743,0.05178408,-0.05628547,1.601063,0.04029092,-0.3743948,1.573106,-0.1249822,0.1177341,1.603681,-0.03677938,-0.365508,1.543561,-0.1675663,-0.1413977,1.6069,0.3538691,0.01902989,1.424566,NA,NA,NotTracked,Unknown,
-0.9882813,0.2900391,0.1513672,0.9311523,-0.3330078,0.06884766,22,4,5,16,9,1,2,10,-2,-3,-2,-1,-2,-2,1,0,-7.25,-7.25,-7.25,1.6875,1.6875,1.6875,6.68018,6.969917,7.034109,2.868287,3.089202,3.819602,-0.1623239,-0.4346154,1.513031,0.273599,0.3208777,1.43171,0.05505924,0.4081489,1.594566,-0.2082572,-0.4402868,1.531019,0.2468695,0.2947065,1.465429,0.05171528,-0.05641426,1.601277,0.04051905,-0.3747366,1.573121,-0.1250164,0.1176417,1.603888,-0.03641026,-0.3658763,1.543493,-0.1676761,-0.1414246,1.606626,0.3540864,0.01739763,1.425217,NA,NA,NotTracked,Unknown,
-0.9555664,0.2773438,0.1669922,0.9331055,-0.3354492,0.06347656,0,2,3,4,2,-1,2,4,-3,-1,-2,-3,-1,-2,-2,-2,-2.5,-2.5,-2.5,0,0,0,6.677836,6.966632,7.039641,2.868855,3.087671,3.820431,-0.1619654,-0.4340174,1.513015,0.2724384,0.3199378,1.429749,0.05516575,0.4082662,1.59496,-0.2042226,-0.4277065,1.523656,0.2451224,0.2987954,1.473045,0.05159562,-0.05653575,1.601427,0.04078193,-0.3750363,1.573061,-0.1250229,0.1175861,1.603912,-0.03602654,-0.3661751,1.543317,-0.1677151,-0.1418209,1.606392,0.3540605,0.01644171,1.425513,NA,NA,NotTracked,Unknown,
-0.9628906,0.2773438,0.1645508,0.9335938,-0.3598633,0.07763672,15,9,5,0,-4,0,3,15,1,0,1,1,-1,0,0,-1,-4.5,-4.5,-4.5,1.625,1.625,1.625,6.674293,6.965072,7.041768,2.86638,3.086656,3.824074,-0.1617784,-0.4339412,1.51301,0.2714366,0.3196739,1.430168,0.05524305,0.4082558,1.59531,-0.2053755,-0.4370758,1.527367,0.2410402,0.3020185,1.475686,0.05152994,-0.05666576,1.601591,0.04093203,-0.3752443,1.573071,-0.1251001,0.1174523,1.604097,-0.03580928,-0.3664013,1.543293,-0.167647,-0.1419786,1.606271,0.3537681,0.01578254,1.425504,NA,NA,NotTracked,Unknown,
-0.9682617,0.2895508,0.1772461,0.9272461,-0.3515625,0.08398438,6,2,-6,-48,-14,-3,2,9,-2,-3,-1,-2,-1,0,-4,-3,-1.125,-1.125,-1.125,0.1875,0.1875,0.1875,6.684364,6.961312,7.059871,2.867762,3.087391,3.826873,-0.1615614,-0.4344794,1.513936,0.2696769,0.3196416,1.429071,0.05535893,0.4083309,1.59586,-0.2052902,-0.4393055,1.529059,0.2416806,0.2986216,1.468764,0.05154819,-0.05680411,1.60144,0.04112815,-0.3754249,1.573043,-0.1250256,0.1173927,1.604284,-0.03553679,-0.3665785,1.543227,-0.1677323,-0.1422506,1.606297,0.3538757,0.01533553,1.425181,NA,NA,NotTracked,Unknown,
-0.9667969,0.2841797,0.152832,0.9311523,-0.355957,0.09082031,3,-6,-4,12,-12,2,-2,-3,-2,-2,-1,-1,0,-1,-1,-1,-2.3125,-2.3125,-2.3125,-1.4375,-1.4375,-1.4375,6.68372,6.96101,7.06642,2.866342,3.087664,3.826097,-0.1618085,-0.4345051,1.514139,0.2685732,0.3183278,1.427827,0.05566456,0.4083946,1.596265,-0.2046116,-0.4396779,1.526205,0.245313,0.2962091,1.468614,0.0516528,-0.05689402,1.60123,0.04122973,-0.3755459,1.573113,-0.1249507,0.1173256,1.604353,-0.035422,-0.3666761,1.543275,-0.1677692,-0.1422685,1.606302,0.3538097,0.01536402,1.425059,NA,NA,NotTracked,Unknown,
-0.9584961,0.284668,0.1816406,0.9365234,-0.3427734,0.07519531,-14,-2,-4,-1,-9,-3,-3,-6,-2,1,0,0,0,0,-1,-1,-5.25,-5.25,-5.25,0.3125,0.3125,0.3125,6.689893,6.958547,7.074062,2.866421,3.087787,3.82632,-0.1613101,-0.4367731,1.511538,0.2664176,0.3171459,1.425501,0.05576678,0.4084142,1.596352,-0.2057908,-0.4361325,1.531629,0.2355868,0.2971789,1.463029,0.05167174,-0.05694251,1.601077,0.04129037,-0.3756154,1.573059,-0.1249357,0.1172753,1.60437,-0.03535387,-0.3667265,1.543215,-0.1677694,-0.1422734,1.606219,0.3536282,0.01528651,1.424795,NA,NA,NotTracked,Unknown,
-0.9682617,0.2871094,0.1767578,0.9277344,-0.3574219,0.07617188,-2,-4,-3,-6,3,2,-1,-5,0,-1,-2,-1,1,-1,-1,-3,-6.25,-6.25,-6.25,0.6875,0.6875,0.6875,6.692844,6.956037,7.083217,2.860636,3.085336,3.825663,-0.1608887,-0.4370711,1.512068,0.2663145,0.3190271,1.424072,0.05586172,0.4084329,1.59648,-0.20527,-0.4409162,1.532867,0.2342737,0.3006937,1.461969,0.05162941,-0.05691343,1.601242,0.04138599,-0.3756571,1.573109,-0.1249078,0.1172801,1.60441,-0.03526787,-0.3667631,1.543244,-0.1676759,-0.142182,1.606208,0.3532274,0.01639781,1.424551,NA,NA,NotTracked,Unknown,
-0.9604492,0.309082,0.1679688,0.9375,-0.3442383,0.08056641,-12,0,-2,-2,-2,-1,0,6,-1,0,1,0,-1,-2,0,1,-5.4375,-5.4375,-5.4375,-1.4375,-1.4375,-1.4375,6.688339,6.954514,7.083823,2.859316,3.083395,3.827144,-0.1612421,-0.4375017,1.511374,0.2658885,0.3184044,1.424851,0.05594361,0.4084366,1.596436,-0.2058097,-0.4345187,1.528531,0.2377667,0.2977695,1.466058,0.05163274,-0.05690597,1.601348,0.04146196,-0.3757306,1.573106,-0.1248604,0.1172773,1.604356,-0.03519005,-0.3668124,1.543267,-0.1675378,-0.1422587,1.606183,0.3535441,0.01633676,1.423548,NA,NA,NotTracked,Unknown,
-0.9692383,0.2871094,0.1523438,0.9248047,-0.3515625,0.08056641,0,3,0,6,-1,-1,0,2,0,-2,-2,0,-1,0,1,0,-5.25,-5.25,-5.25,-0.3125,-0.3125,-0.3125,6.688934,6.95364,7.098482,2.855672,3.083875,3.830121,-0.1607565,-0.4381563,1.511846,0.2652144,0.3176203,1.424769,0.05603312,0.408433,1.596477,-0.2052649,-0.4403203,1.528427,0.2402,0.2964738,1.467555,0.05163451,-0.05691283,1.601463,0.04161957,-0.3757918,1.573159,-0.1248208,0.1173005,1.604281,-0.03502696,-0.3668782,1.543281,-0.1675865,-0.1421134,1.606011,0.3530041,0.01685432,1.423387,NA,NA,NotTracked,Unknown,
-0.965332,0.2973633,0.1699219,0.9306641,-0.3520508,0.07910156,23,2,-2,8,-1,-1,1,5,-2,-3,-2,-1,-2,-1,0,-2,-3,-3,-3,-1.4375,-1.4375,-1.4375,6.698713,6.949157,7.110891,2.854152,3.083981,3.830573,-0.1610206,-0.4377553,1.512334,0.2650177,0.3171015,1.423597,0.05615712,0.4084234,1.596452,-0.2055601,-0.434593,1.528944,0.239728,0.2905022,1.462139,0.05179913,-0.05696699,1.601295,0.04180118,-0.3758453,1.573195,-0.1247392,0.1173884,1.604235,-0.03482228,-0.366915,1.543281,-0.1673744,-0.1423479,1.606006,0.3530234,0.01718295,1.422484,NA,NA,NotTracked,Open,
-0.9663086,0.2915039,0.1704102,0.9282227,-0.3417969,0.07470703,-7,0,2,6,2,1,2,8,-1,1,12,-1,0,-1,0,0,1.875,1.875,1.875,-0.25,-0.25,-0.25,6.689829,6.947336,7.10177,2.854152,3.083981,3.830573,-0.1618159,-0.4380523,1.513108,0.2649821,0.3183106,1.42415,0.05629156,0.4084863,1.596418,-0.2065925,-0.4227693,1.527824,0.2368135,0.2977239,1.468856,0.05185857,-0.05696089,1.60124,0.04198914,-0.3758656,1.573274,-0.1247231,0.1173945,1.604267,-0.03461373,-0.3669489,1.543343,-0.1672574,-0.1420619,1.605976,0.3528458,0.01741748,1.42278,NA,NA,NotTracked,Open,
-0.9755859,0.2827148,0.1699219,0.9335938,-0.340332,0.07910156,2,-5,2,-1,1,1,-1,-1,0,-2,-5,0,-1,-2,-2,-2,-10.0625,-10.0625,-10.0625,-1.875,-1.875,-1.875,6.667797,6.944487,7.089645,2.850946,3.084809,3.830204,-0.1610618,-0.4372912,1.510625,0.2646982,0.3176763,1.422175,0.05644384,0.4084576,1.596283,-0.2034633,-0.4473537,1.519588,0.2394012,0.294939,1.459026,0.05188503,-0.05697185,1.601258,0.04219289,-0.3759708,1.573194,-0.1246657,0.1173662,1.604157,-0.0343476,-0.3670805,1.543182,-0.1671376,-0.1420375,1.605571,0.3529783,0.01715887,1.422256,NA,NA,NotTracked,Unknown,
-0.9624023,0.309082,0.1923828,0.9291992,-0.3388672,0.07470703,-5,4,-3,-16,-1,-1,-2,-8,-3,-2,-3,1,-1,0,-1,-2,4.625,4.625,4.625,-0.875,-0.875,-0.875,6.65392,6.940228,7.073189,2.850848,3.084676,3.830521,-0.161263,-0.4374832,1.511412,0.2648256,0.3172967,1.421543,0.05663565,0.4084423,1.596122,-0.2045536,-0.4467651,1.522928,0.2349759,0.2974237,1.459491,0.05188469,-0.05697884,1.60129,0.04229118,-0.3760306,1.573151,-0.1246803,0.1173236,1.60392,-0.03423491,-0.3671378,1.543071,-0.1671389,-0.1420767,1.605452,0.3530358,0.01639919,1.421836,NA,NA,NotTracked,Unknown,
-0.9570313,0.2807617,0.1811523,0.9321289,-0.3481445,0.07470703,13,-3,-2,4,-1,-1,1,4,-1,-1,-1,0,-1,0,-2,-1,-3.375,-3.375,-3.375,0.25,0.25,0.25,6.653778,6.936521,7.078625,2.848907,3.083787,3.830874,-0.1612916,-0.437031,1.510753,0.2649739,0.3162034,1.423006,0.05676278,0.4084516,1.596086,-0.2037629,-0.4362564,1.519494,0.2417736,0.28986,1.463819,0.05195003,-0.05703695,1.601156,0.04235584,-0.3760868,1.57317,-0.1246162,0.1173947,1.60383,-0.03418657,-0.3671782,1.543072,-0.1672205,-0.1415852,1.605172,0.3530434,0.01652276,1.422353,NA,NA,NotTracked,Unknown,
-0.9575195,0.3056641,0.184082,0.9282227,-0.3413086,0.07763672,5,-1,1,-1,-1,-1,-2,-6,0,-1,0,-1,-3,0,-2,-2,0.125,0.125,0.125,-0.5625,-0.5625,-0.5625,6.650495,6.942916,7.069438,2.848983,3.08391,3.831099,-0.1610879,-0.4375827,1.511367,0.2657515,0.3176206,1.422362,0.0570048,0.4084696,1.595916,-0.2019566,-0.4474633,1.519348,0.2367435,0.2962434,1.461798,0.05207438,-0.05706333,1.600949,0.04239586,-0.3761241,1.573149,-0.124602,0.1174412,1.603606,-0.03414712,-0.3672065,1.543052,-0.1672216,-0.1416448,1.605151,0.3528639,0.01685029,1.422468,NA,NA,NotTracked,Open,
-0.9619141,0.2880859,0.1689453,0.9394531,-0.3378906,0.08398438,3,5,3,-2,1,1,-1,0,-3,-1,0,-2,-1,-1,0,0,0,0,0,1.5,1.5,1.5,6.655709,6.947141,7.075809,2.850331,3.08355,3.830742,-0.1617637,-0.4373272,1.510308,0.2656988,0.3165919,1.421447,0.05715672,0.4084746,1.595765,-0.2066092,-0.4330128,1.527759,0.2393365,0.2936623,1.462699,0.05205976,-0.05706849,1.600949,0.04243037,-0.3761627,1.573085,-0.1245162,0.1174866,1.603235,-0.03409109,-0.3672256,1.542899,-0.1672068,-0.1415304,1.605015,0.3534181,0.01559528,1.421789,NA,NA,NotTracked,Unknown,
