ALX,ALY,ALZ,ARX,ARY,ARZ,EMG0L,EMG1L,EMG2L,EMG3L,EMG4L,EMG5L,EMG6L,EMG7L,EMG0R,EMG1R,EMG2R,EMG3R,EMG4R,EMG5R,EMG6R,EMG7R,GLX,GLY,GLZ,GRX,GRY,GRZ,ORL,OPL,OYL,ORR,OPR,OYR,LHNX,LHNY,LHNZ,RHNX,RHNY,RHNZ,HX,HY,HZ,LTX,LTY,LTZ,RTX,RTY,RTZ,SpineMidX,SpineMidY,SpineMidZ,SpineBaseX,SpineBaseY,SpineBaseZ,ShoulderLeftX,ShoulderLeftY,ShoulderLeftZ,ShoulderRightX,ShoulderRightY,ShoulderRightZ,ElbowLeftX,ElbowLeftY,ElbowLeftZ,ElbowRightX,ElbowRightY,ElbowRightZ,Myo_Pose_left,Myo_Pose_Right,Kinect_pose_left,Kinect_pose_right
0.9243164,0.2978516,0.02636719,0.934082,-0.3427734,0.07421875,-5,-1,-4,-2,0,-2,1,-12,1,2,-2,0,-1,1,-2,-1,1.5625,1.5625,1.5625,-0.1875,-0.1875,-0.1875,7.336606,3.00084,5.770934,2.778852,3.07721,7.475334,-0.1347763,-0.4498284,1.576891,0.2874306,-0.4474134,1.553852,0.08780535,0.4004174,1.649113,-0.1816382,-0.4436911,1.584333,0.2436004,-0.4249394,1.540607,0.09403156,-0.06556071,1.663308,0.089193,-0.3880362,1.638466,-0.08283053,0.1162193,1.661652,0.01194871,-0.379207,1.605475,-0.1429902,-0.1414931,1.665103,0.3043117,-0.14582,1.637071,NA,NA,NotTracked,NotTracked,
0.9248047,0.2983398,0.02539063,0.9301758,-0.3447266,0.07421875,1,0,0,0,0,1,0,40,-5,-13,-6,-3,-1,-2,0,-2,-0.8125,-0.8125,-0.8125,1.5625,1.5625,1.5625,7.34004,2.998567,5.7672,2.779818,3.076901,7.475904,-0.1352265,-0.4486974,1.576608,0.2872281,-0.447495,1.553627,0.08772841,0.4003637,1.649068,-0.181745,-0.4444164,1.585278,0.2429532,-0.415781,1.537318,0.09402354,-0.06557986,1.663322,0.08919118,-0.3880462,1.638474,-0.08287203,0.1161806,1.661659,0.01194544,-0.3792097,1.60548,-0.1428706,-0.1400589,1.665432,0.3042541,-0.1459606,1.637137,NA,NA,NotTracked,NotTracked,
0.9287109,0.2958984,0.02294922,0.9282227,-0.3388672,0.07666016,-4,-1,-1,-3,0,-2,4,-35,1,-12,-4,-1,-1,-2,-1,0,-0.0625,-0.0625,-0.0625,1.0625,1.0625,1.0625,7.342311,2.996133,5.764951,2.780932,3.076092,7.47688,-0.1351819,-0.4483586,1.575967,0.2871332,-0.4468885,1.553875,0.08766051,0.4003351,1.649068,-0.1797291,-0.4488356,1.577602,0.243542,-0.4166942,1.53833,0.09398001,-0.0656144,1.663336,0.08917251,-0.3880846,1.638475,-0.0828866,0.1161552,1.661664,0.01192813,-0.3792448,1.605481,-0.1427444,-0.1394026,1.66562,0.3042336,-0.1459811,1.637169,NA,NA,NotTracked,NotTracked,
0.9262695,0.2890625,0.02490234,0.9345703,-0.3427734,0.07324219,2,0,-1,-2,-2,-1,-8,14,-5,8,1,-1,-1,0,-1,0,0.5,0.5,0.5,0.875,0.875,0.875,7.343093,2.99534,5.764091,2.779701,3.074952,7.479496,-0.1349451,-0.4494836,1.576674,0.2873665,-0.4454297,1.555331,0.08762007,0.4003082,1.649053,-0.1811076,-0.450173,1.582375,0.2420437,-0.4143528,1.537689,0.09397097,-0.06563897,1.663344,0.08916349,-0.3881139,1.638486,-0.08291518,0.1160976,1.661689,0.01191629,-0.3792714,1.605492,-0.1425895,-0.1381339,1.666008,0.3042039,-0.1459673,1.637257,NA,NA,NotTracked,NotTracked,
0.934082,0.2983398,0.03076172,0.9350586,-0.3369141,0.07080078,-1,-3,1,0,-1,-1,2,4,-3,-4,-1,-2,-2,0,-1,-1,0.25,0.25,0.25,0.8125,0.8125,0.8125,7.344163,2.994023,5.763333,2.779217,3.074197,7.481369,-0.1346576,-0.4492908,1.576924,0.2874559,-0.4458465,1.555677,0.08749101,0.4001948,1.648965,-0.180847,-0.4409656,1.58465,0.2430202,-0.4154503,1.537608,0.0939539,-0.06566145,1.663359,0.08914443,-0.3881378,1.638514,-0.08292077,0.116078,1.661693,0.01190377,-0.3792876,1.605503,-0.1425668,-0.1378947,1.666158,0.3041878,-0.1459568,1.637281,NA,NA,NotTracked,NotTracked,
0.9267578,0.2895508,0.02539063,0.9355469,-0.340332,0.07958984,-1,1,0,0,1,1,1,-3,0,-1,0,0,-1,-2,-1,0,-0.5,-0.5,-0.5,0.3125,0.3125,0.3125,7.345591,2.992348,5.761911,2.77964,3.073519,7.481357,-0.1349689,-0.4501331,1.577367,0.292773,-0.4379575,1.557155,0.08745077,0.4001815,1.648968,-0.1824692,-0.442857,1.589528,0.246133,-0.4052478,1.545118,0.09393263,-0.06574118,1.663383,0.0891744,-0.3882932,1.638568,-0.08292174,0.1159851,1.6617,0.01193968,-0.3794228,1.605554,-0.1425772,-0.1373121,1.666483,0.3041386,-0.1460579,1.637388,NA,NA,NotTracked,NotTracked,
0.9282227,0.2880859,0.03369141,0.9350586,-0.3432617,0.07324219,3,0,0,-1,-1,-1,1,4,-2,-2,-2,-1,1,-1,-2,1,-0.0625,-0.0625,-0.0625,1.6875,1.6875,1.6875,7.345933,2.992037,5.761728,2.78046,3.073276,7.482353,-0.1353791,-0.4501153,1.577768,0.2886722,-0.4440805,1.556681,0.08740124,0.4001409,1.648936,-0.1811455,-0.4494796,1.583861,0.243275,-0.4166098,1.539812,0.09389196,-0.06577031,1.6634,0.08916801,-0.3883085,1.638585,-0.08293563,0.1159286,1.661722,0.01193286,-0.3794371,1.605562,-0.142573,-0.1368467,1.666633,0.3040506,-0.1459859,1.637691,NA,NA,NotTracked,NotTracked,
0.9287109,0.2919922,0.02734375,0.9370117,-0.340332,0.07226563,-7,-3,-2,-2,-1,0,0,-42,-1,0,2,-1,-2,-1,-3,-1,-0.25,-0.25,-0.25,1.3125,1.3125,1.3125,7.345894,2.992226,5.761429,2.781497,3.072865,7.483552,-0.1349865,-0.4500318,1.577828,0.2884861,-0.4438984,1.555882,0.0872927,0.3999793,1.648885,-0.1826195,-0.4479359,1.591438,0.2435629,-0.4126945,1.539205,0.09389667,-0.06580287,1.663406,0.08917281,-0.3883419,1.63859,-0.08293594,0.1158634,1.66171,0.01192917,-0.3794718,1.605544,-0.1424657,-0.1365662,1.666941,0.3040597,-0.1460247,1.637748,NA,NA,NotTracked,NotTracked,
0.9311523,0.2939453,0.02050781,0.9379883,-0.34375,0.07128906,-1,-1,-1,-2,-2,0,3,-3,5,2,-2,-2,-2,-1,-2,-3,-1.875,-1.875,-1.875,1,1,1,7.34635,2.991245,5.760375,2.781934,3.072535,7.483951,-0.135073,-0.4493453,1.578007,0.2883001,-0.4435072,1.556586,0.08726112,0.3999963,1.648889,-0.1818066,-0.4464583,1.587235,0.2436513,-0.4131916,1.539145,0.09386994,-0.06582571,1.663419,0.0891535,-0.3883686,1.638611,-0.08295359,0.1158394,1.661713,0.01190634,-0.3794976,1.605567,-0.1425477,-0.1364405,1.667068,0.3040477,-0.1461046,1.637814,NA,NA,NotTracked,NotTracked,
0.9345703,0.2895508,0.01904297,0.9389648,-0.3427734,0.07666016,-3,-1,-1,-1,-2,1,2,-9,-3,-4,-1,-1,-2,-2,-1,0,-2.0625,-2.0625,-2.0625,0.3125,0.3125,0.3125,7.345431,2.990409,5.759761,2.781928,3.072159,7.483952,-0.1353146,-0.4500346,1.578821,0.2886987,-0.4440383,1.557489,0.08724278,0.3999388,1.648896,-0.1818085,-0.446635,1.587097,0.2440737,-0.4133823,1.539972,0.09381091,-0.06590867,1.66348,0.08910943,-0.3885047,1.638685,-0.08295525,0.1158239,1.661726,0.01187016,-0.3796021,1.605637,-0.1432988,-0.1446409,1.665856,0.3039933,-0.1462976,1.637985,NA,NA,NotTracked,NotTracked,
0.9321289,0.2939453,0.009765625,0.934082,-0.347168,0.07519531,-1,-3,-2,0,-1,-1,0,3,-2,-2,0,-1,-2,-2,-1,-1,1.75,1.75,1.75,0.25,0.25,0.25,7.348295,2.986781,5.758903,2.782686,3.072548,7.4832,-0.1343986,-0.4504153,1.578148,0.2882985,-0.4439275,1.556406,0.08720183,0.3998751,1.648841,-0.1810144,-0.4474244,1.584728,0.2442102,-0.4190311,1.540916,0.0938123,-0.06593604,1.663479,0.08910488,-0.3885302,1.638681,-0.08297165,0.1157862,1.661744,0.01186217,-0.3796313,1.605622,-0.1434748,-0.1419254,1.667088,0.3040084,-0.1463601,1.638096,NA,NA,NotTracked,NotTracked,
0.9262695,0.2885742,0.0234375,0.9291992,-0.3374023,0.06884766,15,3,1,2,0,1,-8,80,-5,-9,-4,0,-2,0,-2,-2,0.375,0.375,0.375,0.5,0.5,0.5,7.348886,2.985122,5.759172,2.783523,3.07247,7.483062,-0.1346279,-0.4498854,1.577925,0.2880564,-0.4435076,1.557169,0.08715528,0.3998659,1.648797,-0.1825225,-0.4556228,1.5939,0.2436252,-0.4134223,1.539454,0.09378421,-0.06595823,1.663466,0.08902773,-0.3885753,1.638629,-0.0829756,0.1157835,1.661753,0.01178024,-0.3796439,1.60555,-0.1431934,-0.1411376,1.667207,0.3039286,-0.1465109,1.638233,NA,NA,NotTracked,NotTracked,
0.9282227,0.2827148,0.02783203,0.9326172,-0.3452148,0.06884766,-5,-1,0,0,-2,-1,2,-18,0,-3,-1,-2,0,-3,0,-1,1.125,1.125,1.125,-0.5,-0.5,-0.5,7.348108,2.984069,5.760607,2.783523,3.07247,7.483062,-0.1348443,-0.4497641,1.578699,0.2878758,-0.4436353,1.557361,0.08714565,0.3998378,1.648792,-0.181718,-0.4493265,1.588599,0.243033,-0.4205136,1.539363,0.09377578,-0.06597633,1.663464,0.08901318,-0.3885992,1.638621,-0.08298306,0.1157736,1.661778,0.01175023,-0.3796784,1.605544,-0.1429585,-0.1399951,1.667481,0.3038628,-0.146524,1.638327,NA,NA,NotTracked,NotTracked,
0.9296875,0.2910156,0.02099609,0.9326172,-0.3432617,0.07617188,-4,0,0,-1,-1,1,1,-10,-1,-2,0,0,-2,-1,-1,-1,0.875,0.875,0.875,0.4375,0.4375,0.4375,7.349623,2.983747,5.759643,2.784223,3.07287,7.482928,-0.1341743,-0.4496832,1.576513,0.2877618,-0.4437368,1.556547,0.0871253,0.3998053,1.648646,-0.1807018,-0.4465612,1.587379,0.242284,-0.4113703,1.537922,0.09377871,-0.06598529,1.663463,0.08902818,-0.3886162,1.638622,-0.08298881,0.1157717,1.661779,0.01178897,-0.3797117,1.60552,-0.1426672,-0.1387086,1.667726,0.3038329,-0.1465138,1.638352,NA,NA,NotTracked,NotTracked,
0.9311523,0.2895508,0.02783203,0.9370117,-0.340332,0.07275391,-2,-2,-1,0,-2,-3,1,-12,3,0,-1,1,1,0,-1,-2,-1.4375,-1.4375,-1.4375,-0.25,-0.25,-0.25,7.350557,2.982923,5.758288,2.783472,3.072856,7.483679,-0.1344985,-0.4487048,1.578007,0.2878226,-0.4434001,1.557086,0.08713375,0.3998251,1.648561,-0.181978,-0.4501979,1.590635,0.2430359,-0.4120407,1.539159,0.09377832,-0.06598408,1.663463,0.08902732,-0.3886115,1.638626,-0.08300977,0.115783,1.661808,0.01178777,-0.3797098,1.60552,-0.142361,-0.1374431,1.668093,0.3038271,-0.1465127,1.63835,NA,NA,NotTracked,NotTracked,
0.9350586,0.2749023,0.02636719,0.9321289,-0.3417969,0.07958984,-5,-1,-2,-1,-2,-3,2,-20,-3,0,-1,-1,-2,-1,-2,-1,-0.375,-0.375,-0.375,-1.125,-1.125,-1.125,7.350771,2.981814,5.756698,2.782493,3.073036,7.48382,-0.1350291,-0.448579,1.57821,0.2877865,-0.4438943,1.557813,0.08713127,0.3998275,1.648491,-0.1816657,-0.4501886,1.587843,0.2431773,-0.4144964,1.538534,0.09377358,-0.06599288,1.663466,0.08902165,-0.3886191,1.638632,-0.08305493,0.1157744,1.661852,0.01178468,-0.3797105,1.605517,-0.1424207,-0.139893,1.667682,0.3037016,-0.1464121,1.638473,NA,NA,NotTracked,NotTracked,
0.9316406,0.2783203,0.02490234,0.9355469,-0.3408203,0.07373047,-2,-1,-1,-1,0,-3,-2,-6,8,5,0,-1,-1,-1,-1,-1,1.25,1.25,1.25,-0.375,-0.375,-0.375,7.351766,2.980698,5.756903,2.783245,3.073049,7.483069,-0.1341966,-0.4489363,1.576401,0.297908,-0.4328497,1.559289,0.08717013,0.3998573,1.648371,-0.1814981,-0.4506216,1.587472,0.2682126,-0.432241,1.528286,0.09378418,-0.06598168,1.663456,0.08904678,-0.3885885,1.638611,-0.08305703,0.1157743,1.661852,0.01180224,-0.3796899,1.605503,-0.1423107,-0.1383612,1.667741,0.3037034,-0.1464277,1.638469,NA,NA,NotTracked,NotTracked,
0.9335938,0.2910156,0.02587891,0.9394531,-0.3369141,0.07861328,-2,-2,-1,-1,1,-2,3,-2,-1,-3,1,0,-1,-1,-1,-1,0.6875,0.6875,0.6875,-0.375,-0.375,-0.375,7.35288,2.980474,5.756406,2.783238,3.072673,7.48307,-0.1346593,-0.4486614,1.577431,0.2876326,-0.4441423,1.558143,0.08718728,0.3998412,1.648268,-0.1817302,-0.4507195,1.589948,0.241677,-0.4189451,1.537342,0.09380415,-0.06601023,1.663464,0.08915687,-0.3886479,1.638658,-0.08306463,0.1157624,1.66186,0.01194304,-0.3797649,1.605536,-0.1422677,-0.1381589,1.667823,0.3036425,-0.1463949,1.63846,NA,NA,NotTracked,NotTracked,
0.9316406,0.284668,0.01953125,0.9345703,-0.3354492,0.07373047,-4,-3,-2,-2,-2,-1,3,-18,1,-1,-2,-2,-1,-1,-2,-1,-1,-1,-1,-0.6875,-0.6875,-0.6875,7.35288,2.980474,5.756406,2.784199,3.072547,7.482107,-0.1345772,-0.4500717,1.577291,0.2877822,-0.4448634,1.558191,0.08720107,0.3998183,1.648264,-0.1813245,-0.4495101,1.586887,0.2416329,-0.4164753,1.537792,0.09380411,-0.06602605,1.663463,0.08916237,-0.3886585,1.638662,-0.08306279,0.1157149,1.661876,0.01194459,-0.3797688,1.605535,-0.1429227,-0.1450064,1.66643,0.3036386,-0.146485,1.63845,NA,NA,NotTracked,NotTracked,
0.9301758,0.2758789,0.02441406,0.9345703,-0.3369141,0.07519531,-3,-2,-2,0,-1,1,1,-13,-4,5,1,-1,-1,-2,-2,-1,0,0,0,-0.6875,-0.6875,-0.6875,7.349411,2.978683,5.759793,2.785093,3.072459,7.481352,-0.1353169,-0.4496269,1.576146,0.287193,-0.4445755,1.557629,0.08720478,0.3998164,1.648262,-0.1809872,-0.4496742,1.585232,0.2415609,-0.4106018,1.536727,0.09380116,-0.06604889,1.663459,0.08916485,-0.3886883,1.638659,-0.08307016,0.1156975,1.661875,0.0119456,-0.3797912,1.605525,-0.1426018,-0.1417066,1.666587,0.3035662,-0.1466094,1.638492,NA,NA,NotTracked,NotTracked,
0.9311523,0.2822266,0.02490234,0.9345703,-0.3398438,0.07226563,2,-2,0,0,0,0,1,11,-1,-3,0,-2,-2,-1,1,-1,1.1875,1.1875,1.1875,-0.5625,-0.5625,-0.5625,7.349147,2.977447,5.762046,2.785093,3.072459,7.481352,-0.1345874,-0.4492963,1.577826,0.28749,-0.4443534,1.558773,0.08721872,0.3998127,1.648267,-0.18123,-0.4475831,1.588687,0.2444807,-0.4172377,1.537167,0.09381671,-0.06605363,1.663463,0.08917451,-0.3886912,1.638663,-0.08308086,0.1156879,1.661897,0.01195017,-0.3797913,1.605525,-0.1423946,-0.1400069,1.667431,0.3035478,-0.1466112,1.638552,NA,NA,NotTracked,NotTracked,
0.9287109,0.2836914,0.02441406,0.9384766,-0.3378906,0.07519531,1,-1,-1,-1,-2,1,-1,-1,2,-1,-3,-3,-1,-2,1,0,-0.375,-0.375,-0.375,-0.125,-0.125,-0.125,7.349108,2.977643,5.761738,2.786054,3.072334,7.480388,-0.1348693,-0.4496799,1.57818,0.2872389,-0.4447402,1.558669,0.08724625,0.3997945,1.648262,-0.1826251,-0.4489902,1.592501,0.2421752,-0.4122595,1.539532,0.09381517,-0.06610853,1.663472,0.089214,-0.3887934,1.638677,-0.08306658,0.1156725,1.661907,0.01198307,-0.3798685,1.605523,-0.1422129,-0.1389839,1.667805,0.3035038,-0.1469995,1.638609,NA,NA,NotTracked,NotTracked,
0.9345703,0.2822266,0.02783203,0.9365234,-0.3388672,0.0703125,-1,0,-1,0,0,-1,1,4,-2,-10,-4,-2,-1,0,0,0,0.5,0.5,0.5,0.0625,0.0625,0.0625,7.346948,2.97761,5.763772,2.786048,3.071957,7.48039,-0.1342738,-0.4490801,1.57603,0.2868508,-0.4439392,1.557404,0.08725143,0.3997704,1.648168,-0.182447,-0.449846,1.591531,0.2437488,-0.4152865,1.537196,0.09380627,-0.06610506,1.663439,0.08921719,-0.3887853,1.638618,-0.08307067,0.1156628,1.661906,0.01198052,-0.3798485,1.605354,-0.1420764,-0.1385353,1.667825,0.3034591,-0.1470006,1.638628,NA,NA,NotTracked,NotTracked,
0.9331055,0.2792969,0.02490234,0.9326172,-0.3383789,0.06933594,-2,0,-1,0,-2,-1,-4,-2,6,3,1,0,-1,0,2,2,1.4375,1.4375,1.4375,-0.75,-0.75,-0.75,7.346377,2.976444,5.766052,2.786949,3.072245,7.479632,-0.1339615,-0.4482204,1.577053,0.286464,-0.4434946,1.557858,0.08728446,0.3997776,1.648136,-0.1823576,-0.4527251,1.594711,0.2403826,-0.408924,1.536632,0.09381726,-0.06609633,1.663431,0.0892536,-0.3887651,1.638614,-0.08307125,0.1156619,1.661906,0.01201843,-0.3798366,1.605345,-0.1420012,-0.1375454,1.667853,0.3034327,-0.1470774,1.638612,NA,NA,NotTracked,NotTracked,
0.9335938,0.2890625,0.01904297,0.9350586,-0.3413086,0.07080078,-1,-3,-1,0,-1,1,2,-2,-2,-3,-1,0,-2,-2,-2,-1,2.1875,2.1875,2.1875,0.4375,0.4375,0.4375,7.346457,2.976457,5.768299,2.787701,3.072259,7.478881,-0.1344334,-0.4489977,1.577258,0.2903607,-0.4380059,1.559711,0.08727582,0.3997715,1.648136,-0.1809173,-0.4464814,1.589248,0.2454217,-0.4213582,1.538887,0.09380897,-0.06610184,1.663433,0.08925063,-0.3887642,1.63861,-0.083126,0.1156526,1.661939,0.01201527,-0.3798319,1.605322,-0.1420283,-0.1370815,1.667868,0.3034192,-0.1470541,1.638667,NA,NA,NotTracked,NotTracked,
0.9331055,0.28125,0.02490234,0.9331055,-0.3354492,0.0703125,-2,-2,-2,-1,-2,-1,1,-9,7,14,3,-1,-1,0,1,-1,2.0625,2.0625,2.0625,0.6875,0.6875,0.6875,7.344201,2.97638,5.773407,2.788612,3.072116,7.478949,-0.1339795,-0.4494644,1.576596,0.28803,-0.4385273,1.559719,0.08727752,0.3998049,1.648121,-0.1816831,-0.4510696,1.589791,0.2415609,-0.4307039,1.537091,0.09380955,-0.06610178,1.663433,0.08924563,-0.3887629,1.63861,-0.08313585,0.1156572,1.661957,0.01201231,-0.3798302,1.605321,-0.1420293,-0.136281,1.667887,0.3033986,-0.1471031,1.638685,NA,NA,NotTracked,NotTracked,
0.9316406,0.2827148,0.02929688,0.940918,-0.3383789,0.07519531,-1,1,-1,-2,-8,-8,-4,7,-2,-2,-5,-2,-1,0,0,-1,4.3125,4.3125,4.3125,0.25,0.25,0.25,7.345289,2.976883,5.774287,2.789438,3.072469,7.477988,-0.1341619,-0.4483151,1.577004,0.2877169,-0.4400526,1.559053,0.08727521,0.3998007,1.648139,-0.1788398,-0.4400587,1.584778,0.2421726,-0.4127009,1.537953,0.09380699,-0.06609774,1.663427,0.08924329,-0.3887294,1.638575,-0.08313756,0.1156589,1.661961,0.011996,-0.3797593,1.605237,-0.1418326,-0.1360023,1.66798,0.3033819,-0.1471018,1.638695,NA,NA,NotTracked,NotTracked,
0.9316406,0.2827148,0.02929688,0.9345703,-0.3388672,0.07177734,-1,1,-1,-2,-8,-8,-4,7,-4,-6,-3,-2,-2,-2,-1,-1,4.3125,4.3125,4.3125,-0.0625,-0.0625,-0.0625,7.345289,2.976883,5.774287,2.789438,3.072469,7.477988,-0.134298,-0.4494169,1.576163,0.2873268,-0.4401017,1.557032,0.08725385,0.3997771,1.648053,-0.1826942,-0.4377835,1.594154,0.2414656,-0.4078557,1.535222,0.09382172,-0.06612994,1.663382,0.08928983,-0.3887781,1.638449,-0.08317045,0.1156144,1.661958,0.01204824,-0.379818,1.605047,-0.1423072,-0.1435199,1.665676,0.3033001,-0.1471829,1.63862,NA,NA,NotTracked,NotTracked,
0.9389648,0.2875977,0.02392578,0.9394531,-0.3383789,0.07324219,13,6,5,8,45,22,-16,61,-5,-5,-1,-2,1,-1,-2,-2,7.5,7.5,7.5,-0.375,-0.375,-0.375,7.352623,2.977321,5.774354,2.789575,3.071991,7.477984,-0.1338249,-0.4493159,1.576845,0.2876147,-0.4398201,1.558183,0.08726348,0.3997261,1.648039,-0.1799455,-0.4431431,1.586613,0.2429205,-0.4128017,1.5388,0.09382223,-0.06613353,1.663381,0.08930118,-0.3887872,1.638429,-0.08319053,0.1155797,1.661985,0.01206317,-0.3798314,1.605037,-0.1418431,-0.1416349,1.666555,0.3033001,-0.1472363,1.63864,NA,NA,NotTracked,NotTracked,
0.9438477,0.300293,0.04003906,0.9399414,-0.3427734,0.06982422,-8,-5,-3,-5,-22,-18,4,-38,-3,-7,0,-1,-1,-2,0,-3,6.125,6.125,6.125,0.25,0.25,0.25,7.357126,2.979957,5.776106,2.790326,3.072005,7.477232,-0.1336976,-0.4485741,1.576122,0.285968,-0.4401058,1.557028,0.08724283,0.3997539,1.648027,-0.1786898,-0.4558316,1.580545,0.2413324,-0.4035925,1.53692,0.09382012,-0.06613828,1.663376,0.0892969,-0.3887855,1.638424,-0.08319557,0.1155792,1.661989,0.01205913,-0.3798283,1.605037,-0.1418528,-0.1405947,1.666913,0.3032815,-0.1473034,1.638625,NA,NA,NotTracked,NotTracked,
0.9892578,0.3452148,-0.005859375,0.9438477,-0.347168,0.06640625,-2,-1,-1,0,10,8,-2,-16,-1,1,-2,-1,-2,-1,0,-2,6,6,6,1.6875,1.6875,1.6875,7.364758,2.988782,5.777061,2.79103,3.072377,7.477515,-0.1336613,-0.450185,1.576921,0.2859041,-0.4406531,1.556595,0.08725169,0.3996968,1.648013,-0.1824602,-0.4517481,1.597,0.2417401,-0.4147969,1.535866,0.09379794,-0.06616194,1.663352,0.08925851,-0.3888318,1.63834,-0.0832077,0.1155487,1.661998,0.01202505,-0.3798694,1.604982,-0.1417166,-0.140111,1.667128,0.3032408,-0.1474555,1.638602,NA,NA,NotTracked,NotTracked,
0.9643555,0.3334961,-0.004882813,0.9248047,-0.3378906,0.0625,-2,-1,-1,0,6,3,-1,8,-2,0,-1,-1,-1,0,-2,-1,9.3125,9.3125,9.3125,0.625,0.625,0.625,7.368202,2.996018,5.779353,2.793727,3.07366,7.476799,-0.1340151,-0.4489625,1.576133,0.2841261,-0.4408408,1.554039,0.08722491,0.3996731,1.648029,-0.1787194,-0.4733767,1.5798,0.2376787,-0.4118752,1.532239,0.0937944,-0.06615848,1.663336,0.08922525,-0.3887918,1.638261,-0.0832044,0.1155429,1.662002,0.01198806,-0.3798289,1.604899,-0.1421318,-0.1442116,1.66625,0.3032286,-0.1473838,1.638374,NA,NA,NotTracked,NotTracked,
0.9467773,0.3764648,-0.07324219,0.9199219,-0.3447266,0.06835938,-3,1,0,0,-2,-4,-3,-11,-4,-5,-2,-1,-2,-1,2,-1,15.125,15.125,15.125,-2.6875,-2.6875,-2.6875,7.37578,3.023101,5.789399,2.792781,3.074364,7.476215,-0.1338658,-0.4484134,1.575803,0.2839383,-0.4383377,1.550964,0.08722642,0.3996981,1.648018,-0.182202,-0.4470011,1.592923,0.2382778,-0.4135318,1.532147,0.09378657,-0.0661405,1.663311,0.0891754,-0.3887532,1.638195,-0.08320823,0.1155428,1.662001,0.01193734,-0.3797802,1.604826,-0.1422317,-0.1411076,1.666688,0.3032338,-0.1473858,1.638185,NA,NA,NotTracked,NotTracked,
0.9296875,0.4335938,-0.01904297,0.9204102,-0.359375,0.07910156,5,6,2,4,9,3,-8,5,-2,0,-3,0,0,-1,-2,-3,-6.6875,-6.6875,-6.6875,-3.1875,-3.1875,-3.1875,7.34116,3.06707,5.829098,2.79133,3.076007,7.473907,-0.1341181,-0.4486317,1.577294,0.2865596,-0.4349316,1.548583,0.08719008,0.3996929,1.648106,-0.1810241,-0.4456423,1.5894,0.2412845,-0.4112981,1.535861,0.09377892,-0.06610464,1.663302,0.08912256,-0.3886473,1.63814,-0.0832229,0.1155282,1.662008,0.01189159,-0.3796907,1.604774,-0.1423349,-0.1400257,1.667191,0.3038929,-0.1465975,1.637908,NA,NA,NotTracked,NotTracked,
0.949707,0.3862305,0.07617188,0.9208984,-0.347168,0.07373047,5,-2,0,-3,1,4,2,56,1,1,-2,0,-2,-1,0,-1,-18.9375,-18.9375,-18.9375,-3.625,-3.625,-3.625,7.257716,3.118809,5.89542,2.786034,3.076739,7.475851,-0.1343312,-0.4476389,1.57706,0.2849049,-0.4335028,1.540931,0.0871672,0.3997209,1.648134,-0.1835048,-0.4377253,1.598333,0.2432318,-0.4230129,1.54,0.09371401,-0.0660665,1.663298,0.08896238,-0.3885271,1.638098,-0.08324739,0.1155858,1.66202,0.01172492,-0.3795665,1.604757,-0.1426122,-0.1421418,1.66654,0.3047165,-0.146008,1.637526,NA,NA,NotTracked,NotTracked,
0.8852539,0.4814453,0.1328125,0.9379883,-0.3486328,0.07958984,-4,-2,-12,-7,-2,0,2,-20,1,-1,-1,-1,0,0,-1,-1,-2.125,-2.125,-2.125,-2.25,-2.25,-2.25,7.184286,3.190211,5.968146,2.781491,3.078705,7.477761,-0.1349389,-0.448328,1.577737,0.2847754,-0.4247579,1.531075,0.08713337,0.3997428,1.648133,-0.180893,-0.4564227,1.58225,0.2531641,-0.4145215,1.557522,0.09369211,-0.06604692,1.663303,0.08888319,-0.3884828,1.638096,-0.08327481,0.1155935,1.662028,0.01165644,-0.379516,1.604752,-0.1422694,-0.138052,1.667244,0.3062741,-0.144371,1.637049,NA,NA,NotTracked,NotTracked,
0.8984375,0.5605469,0.1542969,0.9331055,-0.3466797,0.08740234,-1,-12,-15,-3,-2,-1,-3,-3,-1,-2,0,-3,-1,-2,-1,0,-9.375,-9.375,-9.375,-2.75,-2.75,-2.75,7.150424,3.237687,5.999621,2.78305,3.081018,7.474134,-0.1353101,-0.448483,1.576177,0.2922629,-0.4117117,1.509583,0.08709355,0.3997351,1.648145,-0.1810686,-0.4467012,1.583269,0.3326959,-0.4190914,1.528,0.09365153,-0.06603134,1.663282,0.08872624,-0.3884418,1.637988,-0.08330317,0.1155889,1.662035,0.01149739,-0.3794338,1.604593,-0.1423332,-0.1375538,1.667321,0.3073359,-0.1429915,1.636334,NA,NA,NotTracked,NotTracked,
0.9179688,0.6054688,0.2036133,0.9321289,-0.3442383,0.08935547,-3,3,11,-7,1,1,23,-14,-3,-10,-2,0,-2,1,-2,-2,-33.125,-33.125,-33.125,-3.25,-3.25,-3.25,7.062327,3.347179,6.062049,2.784754,3.081954,7.470623,-0.1353649,-0.4489993,1.57583,0.2869571,-0.4071575,1.491963,0.08696529,0.3997632,1.648254,-0.1808746,-0.4561267,1.577944,0.3301361,-0.4100786,1.51025,0.09347658,-0.06608385,1.663273,0.08827172,-0.3885853,1.637924,-0.08331545,0.1155883,1.662051,0.01110755,-0.3794743,1.604571,-0.1424959,-0.137037,1.667392,0.3091746,-0.1408259,1.635111,NA,NA,NotTracked,Unknown,
0.8925781,0.6850586,0.2949219,0.9360352,-0.3354492,0.08349609,-9,-11,-20,-14,-7,-5,15,-10,0,-16,-11,-3,0,-1,0,-1,-42.8125,-42.8125,-42.8125,-3.125,-3.125,-3.125,6.972021,3.481329,6.113329,2.790839,3.083894,7.461202,-0.1356005,-0.4494151,1.574949,0.2825094,-0.3942059,1.469863,0.08680005,0.3997518,1.648364,-0.1812235,-0.4558449,1.576947,0.3251435,-0.3965676,1.4858,0.09318306,-0.06610106,1.663309,0.08780661,-0.3886285,1.637892,-0.08332338,0.1155888,1.662055,0.01060147,-0.379434,1.604439,-0.1427476,-0.1419908,1.666029,0.3104705,-0.1385924,1.633184,NA,NA,NotTracked,Unknown,
0.9082031,0.7211914,0.3452148,0.9370117,-0.3408203,0.08251953,10,19,29,7,0,-1,-13,3,2,1,0,1,-1,0,-2,-2,-45.125,-45.125,-45.125,-5.625,-5.625,-5.625,6.883807,3.655594,6.157209,2.795737,3.084998,7.450573,-0.1354464,-0.4500518,1.574111,0.2775694,-0.3736894,1.443466,0.0864362,0.3996706,1.648668,-0.1810145,-0.4488467,1.579364,0.2509291,-0.4171314,1.45225,0.09297751,-0.06619211,1.663339,0.08746357,-0.3888296,1.637906,-0.08338483,0.1154965,1.662069,0.01024005,-0.3795569,1.604415,-0.143224,-0.1475029,1.664382,0.3117678,-0.1364251,1.630613,NA,NA,NotTracked,Unknown,
0.7817383,0.7768555,0.3969727,0.9272461,-0.3408203,0.08691406,-2,-6,15,3,0,0,1,4,0,-1,0,-1,-1,-1,-1,-1,-29.3125,-29.3125,-29.3125,-3.6875,-3.6875,-3.6875,6.813549,3.863058,6.202795,2.80488,3.086585,7.435848,-0.1357557,-0.4495315,1.575329,0.2706346,-0.3507717,1.415267,0.08609477,0.3995109,1.649309,-0.1815907,-0.4836592,1.582667,0.2388831,-0.4029092,1.435167,0.09265984,-0.06638097,1.663505,0.08703572,-0.3892067,1.638134,-0.08342449,0.1154557,1.662096,0.009842468,-0.3798264,1.604631,-0.1436666,-0.1435989,1.665694,0.312795,-0.131985,1.627283,NA,NA,NotTracked,Unknown,
0.7182617,0.8134766,0.4370117,0.9326172,-0.3359375,0.08789063,4,2,-23,3,-1,0,-4,1,-3,-2,-2,-1,-1,-2,-1,-3,-14.9375,-14.9375,-14.9375,-3.8125,-3.8125,-3.8125,6.789864,3.977456,6.226939,2.816024,3.088144,7.420521,-0.1350321,-0.4494731,1.573934,0.2615741,-0.3151401,1.380385,0.0859625,0.3996305,1.649688,-0.1790496,-0.4799458,1.572833,0.2257838,-0.3612854,1.39175,0.09239241,-0.06643178,1.663579,0.08627732,-0.389396,1.638252,-0.08345495,0.1154364,1.662136,0.009073588,-0.3798903,1.604869,-0.143692,-0.1411954,1.665987,0.3148899,-0.1222604,1.620754,NA,NA,NotTracked,Unknown,
0.519043,0.9414063,0.4741211,0.9301758,-0.34375,0.07861328,-4,22,25,-6,0,1,0,-17,1,1,-2,-2,-2,-1,1,-3,0.5,0.5,0.5,-4.5625,-4.5625,-4.5625,6.761337,4.226772,6.276779,2.819551,3.089233,7.414206,-0.1340351,-0.4491834,1.572653,0.2451903,-0.2229517,1.323761,0.08574252,0.399711,1.650223,-0.1813831,-0.4436972,1.58375,0.203625,-0.2633043,1.308429,0.0916832,-0.06652798,1.663829,0.08542736,-0.3895947,1.638348,-0.08345717,0.1154384,1.662166,0.008363103,-0.379964,1.605055,-0.143811,-0.1380739,1.666011,0.3241857,-0.1005592,1.604478,NA,NA,NotTracked,Unknown,
0.2875977,0.9243164,0.5219727,0.9375,-0.3461914,0.08007813,-46,-16,-25,-5,-2,-2,-5,-11,-1,3,0,0,0,-2,0,0,4.625,4.625,4.625,0.375,0.375,0.375,6.732307,4.626841,6.352904,2.838759,3.094459,7.389884,-0.1336668,-0.4474224,1.572514,0.232804,-0.1751382,1.292943,0.08557766,0.3999111,1.651144,-0.1806177,-0.4488543,1.582101,0.1910865,-0.2119641,1.287625,0.09130047,-0.06652731,1.664043,0.08488984,-0.3896118,1.638568,-0.08348794,0.1154489,1.662202,0.007848351,-0.3798872,1.605289,-0.1438052,-0.1416321,1.664963,0.3521668,-0.07843035,1.554097,NA,NA,NotTracked,Unknown,
0.2875977,0.9243164,0.5219727,0.9375,-0.3461914,0.08007813,-46,-16,-25,-5,-2,-2,-5,-11,-1,3,0,0,0,-2,0,0,4.625,4.625,4.625,0.375,0.375,0.375,6.732307,4.626841,6.352904,2.838759,3.094459,7.389884,-0.1331887,-0.4477947,1.572665,0.2181929,-0.123343,1.266264,0.08541277,0.4000612,1.651835,-0.180456,-0.4507446,1.58567,0.1813319,-0.1493398,1.2532,0.09102468,-0.06655599,1.664349,0.08446706,-0.389771,1.638935,-0.08349514,0.1154276,1.662257,0.007417583,-0.3799894,1.605886,-0.1435325,-0.1393896,1.665619,0.3566814,-0.07502302,1.551701,NA,NA,NotTracked,Unknown,
0.08105469,0.9443359,0.5512695,0.9360352,-0.3408203,0.07275391,59,12,15,1,-1,-2,-3,-4,-1,-4,-4,-2,0,0,-1,-1,31,31,31,-1,-1,-1,6.7514,4.904197,6.410465,2.842298,3.096166,7.385528,-0.132887,-0.4479397,1.570662,0.2057628,-0.06486145,1.248212,0.0853515,0.4000348,1.652567,-0.1747065,-0.4555111,1.572926,0.2202612,-0.09071933,1.2241,0.09081043,-0.06660661,1.664539,0.08411946,-0.3899202,1.639108,-0.08349953,0.1153899,1.662291,0.007009375,-0.3802018,1.606586,-0.1435757,-0.1379058,1.665695,0.3498413,-0.06840004,1.531865,NA,NA,NotTracked,Unknown,
-0.07373047,0.9702148,0.4980469,0.9311523,-0.3608398,0.08496094,20,-4,33,5,-3,-1,-5,-16,-1,-3,-3,-1,-1,0,-3,-2,22.0625,22.0625,22.0625,-2.75,-2.75,-2.75,6.780527,5.178396,6.469753,2.846051,3.100589,7.37819,-0.131643,-0.4477058,1.570435,0.1961001,-0.003832416,1.240425,0.08542905,0.3999148,1.653146,-0.1779254,-0.4529511,1.577902,0.1839673,-0.03066193,1.222636,0.09055246,-0.06671771,1.664748,0.08379175,-0.3901706,1.639261,-0.0834728,0.1153162,1.66236,0.006695681,-0.3803344,1.607054,-0.1431972,-0.1408692,1.664814,0.3209974,-0.06296823,1.476988,NA,NA,NotTracked,Unknown,
-0.1865234,0.8959961,0.4804688,0.9335938,-0.3632813,0.07910156,48,2,-13,-4,-2,-1,0,3,0,-4,0,-2,-2,-1,-2,-1,32.5,32.5,32.5,3.9375,3.9375,3.9375,6.825223,5.439715,6.539316,2.850871,3.106881,7.375699,-0.1311285,-0.4475498,1.569155,0.1907575,0.05998889,1.240646,0.08558635,0.3993492,1.654575,-0.1754658,-0.4633465,1.571769,0.2060457,0.03685187,1.22125,0.09038141,-0.06696232,1.665021,0.08367777,-0.3905871,1.639452,-0.08344358,0.1152335,1.662428,0.006616116,-0.380781,1.607419,-0.1429358,-0.1440822,1.664129,0.3211961,-0.05433649,1.479453,NA,NA,NotTracked,Unknown,
-0.3320313,0.862793,0.4599609,0.9228516,-0.3554688,0.07080078,-101,-7,8,-1,-1,-2,-3,-20,-4,-7,-3,-2,-1,-2,0,-1,41.125,41.125,41.125,2,2,2,6.897273,5.690995,6.618018,2.849932,3.111857,7.380635,-0.1314477,-0.4473804,1.568456,0.1842873,0.1194851,1.251443,0.08556066,0.399104,1.655388,-0.1768543,-0.4781764,1.5786,0.198674,0.09360208,1.222368,0.09012526,-0.06730548,1.665194,0.08329981,-0.3913085,1.639497,-0.08344528,0.1152391,1.66259,0.006249404,-0.3814308,1.607712,-0.1427309,-0.140673,1.665158,0.3213769,-0.03903022,1.475933,NA,NA,NotTracked,Unknown,
-0.3891602,0.8481445,0.3520508,0.9311523,-0.3764648,0.07324219,-25,2,3,-3,2,2,-4,-1,-3,-7,-2,0,-1,1,-1,1,33.8125,33.8125,33.8125,5.8125,5.8125,5.8125,6.984891,5.925343,6.718441,2.843964,3.11757,7.391037,-0.1311374,-0.4464534,1.56895,0.1773634,0.1777552,1.275846,0.08550624,0.3990672,1.65571,-0.1771619,-0.444999,1.578957,0.1931266,0.1508164,1.227905,0.09011669,-0.06721836,1.665223,0.08309565,-0.3912614,1.639459,-0.08330843,0.1152098,1.662727,0.005907452,-0.3813997,1.607908,-0.1416966,-0.1355543,1.666408,0.3235313,-0.02187868,1.462224,NA,NA,NotTracked,Unknown,
-0.4663086,0.8027344,0.3422852,0.9208984,-0.3515625,0.07910156,28,5,-1,0,2,6,3,16,-2,-2,-3,-1,-1,-2,-5,-3,28,28,28,9.0625,9.0625,9.0625,7.036683,6.035983,6.782221,2.843046,3.121031,7.402959,-0.1308311,-0.4450569,1.568597,0.1781286,0.2166102,1.300273,0.08553535,0.3990245,1.65578,-0.1766337,-0.4545426,1.575531,0.188,0.2021748,1.244149,0.08998779,-0.06703745,1.6653,0.08228989,-0.3909838,1.639395,-0.08300167,0.1152585,1.662947,0.0049964,-0.3811608,1.608034,-0.140774,-0.1324969,1.667068,0.3261766,-0.0007330292,1.446624,NA,NA,NotTracked,Open,
-0.5161133,0.6948242,0.277832,0.9213867,-0.347168,0.08203125,9,-1,-13,-3,-1,0,2,4,1,-1,1,-2,-1,-2,-2,-2,37.1875,37.1875,37.1875,7.5,7.5,7.5,7.170931,6.244567,6.929039,2.840951,3.121903,7.409702,-0.1307232,-0.4445493,1.569306,0.1728596,0.2572182,1.324719,0.08555297,0.3990078,1.655812,-0.1765403,-0.4469026,1.575125,0.182039,0.2495377,1.260755,0.08999237,-0.06692658,1.665457,0.08210751,-0.3906956,1.63948,-0.08254766,0.1153133,1.663181,0.004690409,-0.3808043,1.608267,-0.1404901,-0.1303727,1.667679,0.3130768,0.04754535,1.420925,NA,NA,NotTracked,Open,
-0.5332031,0.6630859,0.2241211,0.9238281,-0.3549805,0.08203125,25,-11,-12,-10,0,-5,3,9,-3,-2,-1,0,-1,-1,-1,-2,34.8125,34.8125,34.8125,5.8125,5.8125,5.8125,7.254628,6.338065,7.018809,2.83287,3.121541,7.426066,-0.1311621,-0.4437506,1.570601,0.1648515,0.3017614,1.343922,0.08559854,0.3986301,1.655828,-0.1760842,-0.4457964,1.571036,0.1724248,0.2980094,1.274969,0.09005792,-0.06668004,1.665675,0.08186413,-0.3901365,1.639714,-0.08192484,0.1156783,1.663642,0.004456239,-0.3802839,1.608589,-0.1405638,-0.1288696,1.668083,0.3118796,0.0590717,1.417367,NA,NA,NotTracked,Open,
-0.5810547,0.6362305,0.1884766,0.9223633,-0.3618164,0.08447266,6,10,7,1,4,3,1,10,-1,-2,0,-1,-2,0,0,0,30.25,30.25,30.25,5.0625,5.0625,5.0625,7.348256,6.425223,7.120492,2.823458,3.119105,7.442886,-0.1320745,-0.4440437,1.571458,0.1625843,0.3253817,1.368582,0.08566538,0.3981397,1.655702,-0.1802198,-0.4489654,1.583589,0.1659749,0.3335615,1.297214,0.09028704,-0.06619935,1.665936,0.08182001,-0.389182,1.639966,-0.08148053,0.1159376,1.663921,0.004392484,-0.3793681,1.609074,-0.1406054,-0.1281765,1.668311,0.3108278,0.07530413,1.413814,NA,NA,NotTracked,Open,
-0.6230469,0.4819336,0.01708984,0.9169922,-0.3579102,0.08496094,-15,-4,0,-3,3,5,-8,-26,1,-4,-1,-1,-1,-2,-3,-2,22.25,22.25,22.25,5.875,5.875,5.875,7.704062,6.629713,7.503901,2.817901,3.114719,7.456236,-0.1335021,-0.4451137,1.574279,0.157351,0.362434,1.410887,0.08598336,0.3964845,1.654775,-0.1795821,-0.4497421,1.581826,0.1527534,0.4148585,1.331917,0.09087587,-0.06477478,1.666594,0.08254368,-0.3857348,1.641017,-0.08096893,0.1162745,1.664504,0.004764935,-0.3765326,1.610623,-0.1407504,-0.1274317,1.669046,0.2891493,0.1428937,1.407614,NA,NA,NotTracked,Open,
-0.6386719,0.4492188,-0.01416016,0.9223633,-0.3579102,0.08789063,18,1,-6,-4,-2,-1,14,-22,-2,-4,-4,-2,0,-3,-1,-1,27.5625,27.5625,27.5625,2.9375,2.9375,2.9375,7.846948,6.67798,7.652179,2.811209,3.109442,7.468459,-0.1337296,-0.4477402,1.574965,0.1512973,0.3802517,1.427474,0.08613695,0.3958465,1.654463,-0.1792913,-0.4495501,1.581508,0.159664,0.3841542,1.353917,0.09089999,-0.06443051,1.666727,0.08248727,-0.3849735,1.641161,-0.08071873,0.1163063,1.664678,0.004655741,-0.37593,1.610766,-0.1408941,-0.1268269,1.669528,0.2876096,0.1466476,1.407705,NA,NA,NotTracked,Open,
-0.9047852,0.4003906,-0.2539063,0.9145508,-0.3779297,0.09960938,20,8,2,2,4,8,3,10,1,1,-2,0,-1,0,-2,-1,15.4375,15.4375,15.4375,0.625,0.625,0.625,8.293252,6.766767,8.11031,2.804869,3.105038,7.47655,-0.1343105,-0.4480568,1.577464,0.14996,0.3858634,1.441835,0.08624322,0.3954136,1.654046,-0.1810028,-0.4580097,1.584484,0.148859,0.4338505,1.371,0.09105217,-0.06411421,1.666944,0.0827108,-0.3843602,1.641453,-0.0804892,0.1162276,1.664931,0.004802856,-0.3754497,1.611094,-0.1407763,-0.126494,1.670388,0.2857229,0.1532117,1.40838,NA,NA,NotTracked,Open,
-1.057617,0.3964844,-0.5952148,0.9194336,-0.3701172,0.08544922,-16,-6,1,2,4,3,0,0,-1,2,-2,0,-1,0,1,1,7.4375,7.4375,7.4375,3.5625,3.5625,3.5625,8.540923,6.762388,8.376451,2.802599,3.100855,7.483243,-0.1347044,-0.4477369,1.5793,0.1473908,0.3948098,1.450904,0.08641789,0.3951014,1.653486,-0.1804736,-0.451363,1.584322,0.1452829,0.4413316,1.3914,0.09107174,-0.0639828,1.667061,0.08265487,-0.3841193,1.641623,-0.08024234,0.1161276,1.66507,0.004711622,-0.3751899,1.611328,-0.1407407,-0.1260612,1.671301,0.2840811,0.1592863,1.409174,NA,NA,NotTracked,Unknown,
-0.4389648,0.4306641,-0.4228516,0.9208984,-0.3657227,0.08496094,-23,-1,1,4,4,6,9,61,-1,0,-2,0,0,0,1,-1,4.6875,4.6875,4.6875,1.875,1.875,1.875,8.725863,6.741775,8.570743,2.801082,3.099453,7.48628,-0.1357228,-0.4476952,1.580486,0.1467135,0.3927164,1.458436,0.08669623,0.3949201,1.652947,-0.182597,-0.4419329,1.592611,0.1507055,0.40687,1.402778,0.09107138,-0.06367365,1.667218,0.08240393,-0.3833318,1.641843,-0.07999624,0.1160711,1.665237,0.00433623,-0.3744341,1.611564,-0.1410959,-0.133797,1.671918,0.2825523,0.1656269,1.410247,NA,NA,NotTracked,Unknown,
-0.8217773,0.2080078,-0.3803711,0.9165039,-0.3793945,0.09228516,2,0,0,0,-1,2,-13,-39,-1,0,-1,1,-3,-3,-5,-2,5.125,5.125,5.125,-1.1875,-1.1875,-1.1875,8.843191,6.715319,8.694278,2.799132,3.098914,7.488221,-0.135749,-0.4450215,1.581279,0.1447447,0.3941339,1.463976,0.0867708,0.3947171,1.65236,-0.1813425,-0.4490861,1.58777,0.1516272,0.3969539,1.4072,0.09107838,-0.06340966,1.667328,0.08238829,-0.3828138,1.641937,-0.0798593,0.1160663,1.665356,0.004312078,-0.3739979,1.611694,-0.1412868,-0.1312634,1.673324,0.2821387,0.1678548,1.410631,NA,NA,NotTracked,Unknown,
-0.8037109,0.237793,-0.4165039,0.9257813,-0.3769531,0.09082031,-48,-6,2,0,-1,-6,-13,-22,-5,-2,0,0,-1,0,-1,-1,15,15,15,2.5,2.5,2.5,8.871551,6.708833,8.715048,2.802858,3.100727,7.486211,-0.1355572,-0.4454621,1.582134,0.1440151,0.3948057,1.465819,0.08687385,0.3945571,1.652108,-0.1812265,-0.4442237,1.589809,0.1467318,0.4236325,1.413143,0.0910252,-0.06304622,1.667509,0.08223905,-0.382197,1.642127,-0.0797516,0.1160328,1.66546,0.004050469,-0.3734223,1.61189,-0.1412639,-0.1301156,1.674056,0.2815132,0.1705787,1.411206,NA,NA,NotTracked,Unknown,
-0.8862305,0.4682617,-0.3173828,0.9291992,-0.3681641,0.09082031,5,2,-2,-4,1,-1,-6,-10,-1,-4,-2,-1,-1,-2,0,-1,-4.9375,-4.9375,-4.9375,3.1875,3.1875,3.1875,8.819154,6.717701,8.627992,2.811174,3.104327,7.48147,-0.1355379,-0.4455322,1.581497,0.1437487,0.3959611,1.46068,0.08683196,0.3943365,1.651673,-0.1819259,-0.4465591,1.590317,0.1468539,0.4253961,1.4108,0.09104224,-0.06285055,1.667546,0.08228227,-0.3819064,1.642087,-0.07960351,0.1159551,1.665571,0.004057993,-0.3731987,1.611884,-0.1412653,-0.1287135,1.67471,0.2816062,0.1711977,1.411401,NA,NA,NotTracked,Unknown,
-0.9125977,0.4008789,-0.3286133,0.9316406,-0.3735352,0.09472656,0,0,-3,-1,-2,0,5,-5,1,-2,-2,0,1,-2,1,-1,-26.0625,-26.0625,-26.0625,0.0625,0.0625,0.0625,8.75597,6.711567,8.573668,2.818501,3.109505,7.474938,-0.135278,-0.4470867,1.581297,0.1171702,0.4220809,1.494527,0.08681092,0.3943508,1.65162,-0.1810609,-0.4504836,1.585304,0.133101,0.4718541,1.426595,0.0910666,-0.06265602,1.667594,0.08228352,-0.3816343,1.642118,-0.07949041,0.1159352,1.66566,0.004023385,-0.3729824,1.611881,-0.1413464,-0.1283993,1.674995,0.2815555,0.1719628,1.411577,NA,NA,NotTracked,Unknown,
-0.9467773,0.2949219,-0.3237305,0.9238281,-0.3725586,0.09375,-27,6,4,-1,-1,3,-2,-4,0,5,1,0,-1,-2,-1,0,-28.375,-28.375,-28.375,-0.6875,-0.6875,-0.6875,8.690569,6.706973,8.516432,2.825715,3.114866,7.466835,-0.1355323,-0.4457661,1.580327,0.1179252,0.4219244,1.489673,0.08669126,0.394178,1.651591,-0.1809175,-0.4439142,1.584989,0.1402687,0.4584627,1.403292,0.09105942,-0.06243718,1.667605,0.08229897,-0.3811788,1.641954,-0.07942721,0.1159227,1.665702,0.003981204,-0.3726409,1.611781,-0.1412699,-0.1277917,1.675089,0.2808897,0.1733626,1.411814,NA,NA,NotTracked,Unknown,
-0.8798828,0.4418945,-0.2158203,0.9223633,-0.3720703,0.09179688,12,-6,-5,-5,-6,-1,0,9,-2,-2,-2,-2,-2,0,-2,0,3,3,3,-1.0625,-1.0625,-1.0625,8.566077,6.702326,8.387753,2.82801,3.1169,7.464016,-0.1356364,-0.4463017,1.580856,0.1204369,0.4212849,1.486299,0.08658493,0.3940348,1.651684,-0.1815805,-0.4446186,1.587916,0.1404585,0.4651546,1.403154,0.0895474,-0.06128438,1.668908,0.08237027,-0.3804188,1.642076,-0.08055612,0.1155333,1.666864,0.003991641,-0.3722137,1.611937,-0.1411837,-0.1271957,1.675403,0.2811319,0.1726928,1.413111,NA,NA,NotTracked,Unknown,
-0.8691406,0.4472656,-0.2084961,0.9267578,-0.3657227,0.07714844,-22,-3,2,-1,-3,-10,-2,3,-1,1,-1,0,-1,0,-1,0,-1.6875,-1.6875,-1.6875,-1.6875,-1.6875,-1.6875,8.551042,6.699017,8.373969,2.829182,3.120058,7.461074,-0.1353253,-0.4463475,1.577513,0.1195291,0.4213023,1.484241,0.08613892,0.3929843,1.651687,-0.1801199,-0.4458425,1.582851,0.1412969,0.457168,1.393681,0.0896402,-0.06115163,1.668815,0.08237746,-0.3800439,1.641915,-0.0802693,0.1154488,1.666903,0.003862263,-0.3718068,1.611635,-0.1411916,-0.1262408,1.675575,0.2809757,0.1731361,1.412789,NA,NA,NotTracked,Unknown,
-0.8833008,0.3891602,-0.2290039,0.9213867,-0.359375,0.07958984,-37,-4,2,-1,-5,-26,-8,-24,0,0,-3,-1,0,-1,-1,-1,-0.375,-0.375,-0.375,-2.75,-2.75,-2.75,8.574612,6.69716,8.407579,2.829731,3.122363,7.458035,-0.1354134,-0.4458009,1.578062,0.1182829,0.4209731,1.488396,0.08610754,0.3928898,1.651664,-0.1808521,-0.4469189,1.584697,0.1406557,0.4577958,1.399412,0.08960023,-0.06111338,1.668829,0.08203939,-0.379874,1.642039,-0.0801613,0.1154711,1.666969,0.003448233,-0.3715551,1.611778,-0.1411199,-0.1261788,1.675699,0.2803518,0.1740435,1.412951,NA,NA,NotTracked,Open,
-0.8862305,0.3803711,-0.2587891,0.9169922,-0.3652344,0.07958984,3,-8,-4,-4,-1,3,25,3,0,-3,1,1,-1,0,0,-1,4.8125,4.8125,4.8125,-2.375,-2.375,-2.375,8.646652,6.693027,8.486388,2.82834,3.124192,7.456645,-0.135314,-0.4456217,1.576184,0.1169477,0.422242,1.492145,0.08610955,0.3927698,1.651461,-0.1807657,-0.4465657,1.584831,0.1411592,0.4563364,1.402961,0.08956784,-0.06109674,1.668822,0.08186525,-0.3798172,1.642009,-0.08010518,0.1154628,1.666995,0.003257474,-0.3714679,1.611746,-0.1409877,-0.1255901,1.675716,0.2798692,0.1749712,1.413046,NA,NA,NotTracked,Open,
-0.8623047,0.3735352,-0.3305664,0.9174805,-0.3544922,0.08203125,17,-2,-3,-2,-3,-2,6,39,4,5,-1,-1,-1,-2,-3,-3,0,0,0,-2.375,-2.375,-2.375,8.734562,6.685846,8.587132,2.827078,3.12361,7.455508,-0.13536,-0.4453811,1.575237,0.1132203,0.4219492,1.499471,0.08608465,0.3927951,1.651177,-0.1812375,-0.4448515,1.585528,0.1382322,0.463626,1.421833,0.08955588,-0.06102715,1.668815,0.08170892,-0.3796273,1.642019,-0.08003084,0.1154298,1.667005,0.003056714,-0.3712664,1.611727,-0.1409378,-0.1255458,1.675632,0.2792901,0.1758283,1.413117,NA,NA,NotTracked,Unknown,
-0.9033203,0.3295898,-0.5151367,0.9208984,-0.3564453,0.08447266,17,8,1,1,3,0,-7,8,-2,6,-1,-1,-1,-1,0,0,-3.375,-3.375,-3.375,-2.375,-2.375,-2.375,8.806929,6.677458,8.669648,2.827053,3.123683,7.454267,-0.1350166,-0.4452231,1.575324,0.1105859,0.4241305,1.503629,0.08615354,0.3928599,1.650771,-0.1802967,-0.4425924,1.582181,0.1355676,0.4693794,1.438235,0.08952364,-0.06100069,1.668816,0.08154133,-0.3795611,1.642022,-0.07996777,0.1154352,1.666996,0.002900025,-0.3711997,1.611707,-0.1408967,-0.124485,1.675523,0.2788143,0.1769525,1.413253,NA,NA,NotTracked,Unknown,
-0.9272461,0.3032227,-0.4887695,0.9213867,-0.3598633,0.08789063,11,3,2,1,-3,-23,-2,-37,3,21,2,1,-1,-2,0,0,-6.0625,-6.0625,-6.0625,-1.8125,-1.8125,-1.8125,8.798794,6.674839,8.661478,2.825396,3.122877,7.453802,-0.1353375,-0.4451138,1.576017,0.110235,0.4220178,1.504756,0.0861242,0.392883,1.650736,-0.1803476,-0.4541878,1.575938,0.1361116,0.4713349,1.435781,0.08951042,-0.06097989,1.668829,0.08149994,-0.3795013,1.642045,-0.07992363,0.1154407,1.667019,0.002871641,-0.3711472,1.61173,-0.1408969,-0.1244544,1.675506,0.2783445,0.1779367,1.413415,NA,NA,NotTracked,Open,
-0.8383789,0.3530273,-0.2895508,0.9316406,-0.3608398,0.08398438,-21,-6,-4,-2,0,2,-13,-33,2,-7,-3,-2,-3,-1,-1,-2,-1.5,-1.5,-1.5,0,0,0,8.713822,6.676429,8.574099,2.826449,3.122653,7.452885,-0.1353464,-0.4456613,1.575002,0.1109242,0.4225397,1.50273,0.08610437,0.3929196,1.650677,-0.180319,-0.4467908,1.579755,0.1367146,0.4693348,1.430234,0.08949514,-0.06094169,1.668824,0.08143507,-0.3794284,1.642051,-0.07983262,0.1154453,1.667008,0.002813336,-0.3710524,1.611717,-0.1409029,-0.1243803,1.675433,0.2783884,0.1780199,1.413412,NA,NA,NotTracked,Open,
-0.8608398,0.3730469,-0.2509766,0.9350586,-0.359375,0.0859375,2,-1,-1,0,-1,4,6,1,-4,-2,-1,-2,0,1,0,1,6.9375,6.9375,6.9375,0.6875,0.6875,0.6875,8.697661,6.680016,8.549308,2.826507,3.122134,7.45352,-0.1357177,-0.4455999,1.574454,0.1101327,0.4227476,1.501425,0.08607455,0.3928509,1.65058,-0.1809855,-0.4451146,1.580792,0.1357846,0.4708081,1.430876,0.08945097,-0.06091174,1.668843,0.0812889,-0.3793887,1.642087,-0.07976527,0.115456,1.667016,0.002703551,-0.3710127,1.611733,-0.1409029,-0.1242298,1.675402,0.278097,0.1786371,1.41351,NA,NA,NotTracked,Unknown,
-0.8725586,0.3823242,-0.262207,0.9248047,-0.3637695,0.08691406,-4,2,0,2,2,3,-6,-10,-1,-3,-1,-1,-1,-2,-1,-3,5.75,5.75,5.75,-0.0625,-0.0625,-0.0625,8.699587,6.68025,8.549396,2.824904,3.120278,7.455373,-0.1355233,-0.4458562,1.573695,0.1110445,0.4220294,1.500439,0.08604881,0.3928394,1.650555,-0.1791654,-0.4820777,1.57075,0.1360085,0.4695646,1.429265,0.08942842,-0.06091033,1.668828,0.08124678,-0.3793688,1.642077,-0.07973391,0.1154491,1.666995,0.002668627,-0.3709786,1.61169,-0.140895,-0.1240428,1.675305,0.2780436,0.1788488,1.413564,NA,NA,NotTracked,Unknown,
-0.8725586,0.3823242,-0.262207,0.9248047,-0.3637695,0.08691406,-4,2,0,2,2,3,-6,-10,-1,-3,-1,-1,-1,-2,-1,-3,5.75,5.75,5.75,-0.0625,-0.0625,-0.0625,8.699587,6.68025,8.549396,2.824904,3.120278,7.455373,-0.1360823,-0.4453532,1.574319,0.1093478,0.4234671,1.501338,0.08609115,0.3927689,1.650253,-0.1834207,-0.4552312,1.5855,0.136214,0.469501,1.42962,0.08938403,-0.06089086,1.668787,0.08117222,-0.3793373,1.642014,-0.0797077,0.1154182,1.666988,0.002593716,-0.3709444,1.611571,-0.1409366,-0.1240587,1.675292,0.2779362,0.1792929,1.413685,NA,NA,NotTracked,Unknown,
-0.8808594,0.359375,-0.3500977,0.9194336,-0.3618164,0.09130859,-11,-2,-1,-1,-3,-4,-3,0,-2,-3,-3,-2,0,-1,0,0,-0.75,-0.75,-0.75,-1.75,-1.75,-1.75,8.708256,6.67641,8.558864,2.823221,3.11771,7.456027,-0.1356898,-0.4470802,1.574772,0.1105464,0.4217426,1.501321,0.08605881,0.3927416,1.650193,-0.1808156,-0.44315,1.5785,0.1363825,0.468805,1.429978,0.08933078,-0.06084643,1.668775,0.08105278,-0.3792685,1.642003,-0.07964955,0.115394,1.66698,0.002501323,-0.3708814,1.611528,-0.1409593,-0.1239621,1.675224,0.2778646,0.1797491,1.413779,NA,NA,NotTracked,Unknown,
-0.8671875,0.3364258,-0.3344727,0.9223633,-0.3676758,0.08837891,-5,-2,-5,0,2,5,0,42,-4,2,0,0,0,-1,0,-2,-1.625,-1.625,-1.625,-1.3125,-1.3125,-1.3125,8.71301,6.675587,8.564753,2.819575,3.11464,7.458778,-0.1359967,-0.4471368,1.575495,0.1109247,0.4221643,1.501536,0.08605152,0.3926881,1.650134,-0.1830729,-0.4355376,1.5865,0.1365256,0.4688766,1.42977,0.08917582,-0.06082641,1.668781,0.08088695,-0.379255,1.641982,-0.07961155,0.1153871,1.666974,0.002339168,-0.370875,1.611494,-0.1409734,-0.1239353,1.675215,0.2772976,0.1805771,1.413937,NA,NA,NotTracked,Unknown,
-0.8852539,0.3447266,-0.3256836,0.9291992,-0.3662109,0.08398438,10,3,3,1,3,7,5,-4,-2,6,1,-1,-3,-2,-3,-1,0.4375,0.4375,0.4375,0.6875,0.6875,0.6875,8.710851,6.676041,8.563587,2.81636,3.112708,7.462943,-0.1353969,-0.4468971,1.574694,0.1099292,0.4225667,1.500664,0.08597913,0.392594,1.649881,-0.1809345,-0.456191,1.579028,0.1367417,0.467885,1.427145,0.0891765,-0.06078602,1.668757,0.08083814,-0.3791915,1.641956,-0.07955479,0.115379,1.666928,0.002304139,-0.3708076,1.611437,-0.1410138,-0.1236865,1.675119,0.2770871,0.1809009,1.413938,NA,NA,NotTracked,Unknown,
-0.8696289,0.3525391,-0.3212891,0.9248047,-0.3686523,0.09277344,0,4,4,-2,-2,-1,2,3,2,1,1,0,-1,0,-1,-1,-0.5625,-0.5625,-0.5625,1,1,1,8.703773,6.680269,8.559413,2.818862,3.112902,7.464378,-0.1363631,-0.4467987,1.576338,0.1094625,0.422733,1.500656,0.08589964,0.3925477,1.649797,-0.1815234,-0.4487816,1.580764,0.1362378,0.4691266,1.427416,0.08797323,-0.05991869,1.669499,0.0804951,-0.3786868,1.641914,-0.08083957,0.1155192,1.667587,0.001850197,-0.3703252,1.611353,-0.1411484,-0.1235738,1.675127,0.2771595,0.1816528,1.413501,NA,NA,NotTracked,Unknown,
-0.8774414,0.3725586,-0.3242188,0.921875,-0.3652344,0.08740234,-18,3,-1,-3,-2,-2,-5,-30,2,-1,0,-2,-1,-1,1,0,-0.4375,-0.4375,-0.4375,0.9375,0.9375,0.9375,8.700935,6.680233,8.556297,2.820705,3.113745,7.463955,-0.1364043,-0.4483297,1.575982,0.108757,0.4230352,1.500551,0.08583521,0.3925961,1.64969,-0.1805066,-0.4483972,1.57656,0.1359794,0.4690011,1.428334,0.08798426,-0.0599098,1.669414,0.08038708,-0.3786595,1.641858,-0.08075874,0.1155459,1.667552,0.001777328,-0.3702852,1.611336,-0.1411673,-0.1234647,1.675065,0.2768401,0.1819767,1.413537,NA,NA,NotTracked,Unknown,
-0.8657227,0.3735352,-0.3188477,0.9223633,-0.3598633,0.08642578,-13,-3,-1,-1,-2,-3,-2,-5,-2,4,-3,-1,0,-1,1,-2,-2.8125,-2.8125,-2.8125,0.9375,0.9375,0.9375,8.696179,6.679967,8.553102,2.820705,3.113745,7.463955,-0.1362495,-0.4483677,1.57457,0.1079419,0.422839,1.500414,0.08570909,0.3924902,1.649524,-0.1804846,-0.4509267,1.577599,0.1321227,0.4752569,1.437186,0.08794768,-0.05992436,1.66928,0.08019236,-0.3786274,1.641698,-0.08067533,0.115558,1.667518,0.001572857,-0.3702314,1.611194,-0.1411823,-0.1234931,1.675029,0.276798,0.1820508,1.41351,NA,NA,NotTracked,Unknown,
-0.8833008,0.3745117,-0.3295898,0.9262695,-0.3623047,0.09472656,4,-1,-1,-3,-2,-3,-2,4,-2,-4,0,-2,-1,-3,-2,-2,-1.625,-1.625,-1.625,-1.125,-1.125,-1.125,8.694969,6.678509,8.553728,2.821535,3.113336,7.462837,-0.1363784,-0.448149,1.575224,0.1096925,0.4215296,1.500774,0.08559987,0.3924745,1.649428,-0.1808334,-0.4519467,1.577047,0.1352904,0.4698195,1.430584,0.08795884,-0.05994529,1.669186,0.08014727,-0.3786273,1.641638,-0.08057106,0.1154917,1.667452,0.001528326,-0.3702298,1.611121,-0.1411666,-0.1235692,1.675023,0.2767014,0.1821474,1.413581,NA,NA,NotTracked,Unknown,
-0.8793945,0.3652344,-0.3173828,0.9257813,-0.3613281,0.08007813,-13,-2,-4,1,-3,-4,6,-24,3,6,0,-1,-1,0,1,1,0.5,0.5,0.5,-0.375,-0.375,-0.375,8.69356,6.677581,8.552438,2.822379,3.113251,7.462132,-0.1370589,-0.447932,1.57432,0.1076999,0.4230869,1.500571,0.08548948,0.392334,1.649282,-0.1808185,-0.4488539,1.577622,0.1304014,0.4776491,1.439442,0.08787537,-0.05998326,1.669032,0.07988705,-0.3785919,1.641519,-0.08048187,0.1154109,1.667361,0.001153791,-0.370149,1.610963,-0.1411442,-0.1235858,1.67493,0.2766235,0.1822064,1.413542,NA,NA,NotTracked,Unknown,
