ALX,ALY,ALZ,ARX,ARY,ARZ,EMG0L,EMG1L,EMG2L,EMG3L,EMG4L,EMG5L,EMG6L,EMG7L,EMG0R,EMG1R,EMG2R,EMG3R,EMG4R,EMG5R,EMG6R,EMG7R,GLX,GLY,GLZ,GRX,GRY,GRZ,ORL,OPL,OYL,ORR,OPR,OYR,LHNX,LHNY,LHNZ,RHNX,RHNY,RHNZ,HX,HY,HZ,LTX,LTY,LTZ,RTX,RTY,RTZ,SpineMidX,SpineMidY,SpineMidZ,SpineBaseX,SpineBaseY,SpineBaseZ,ShoulderLeftX,ShoulderLeftY,ShoulderLeftZ,ShoulderRightX,ShoulderRightY,ShoulderRightZ,ElbowLeftX,ElbowLeftY,ElbowLeftZ,ElbowRightX,ElbowRightY,ElbowRightZ,Myo_Pose_left,Myo_Pose_Right,Kinect_pose_left,Kinect_pose_right
0.9282227,0.3012695,0.05126953,0.9331055,-0.3510742,0.06445313,-1,-1,0,-2,0,0,-2,-6,-1,3,0,-2,-2,-1,0,-1,-0.75,-0.75,-0.75,-0.0625,-0.0625,-0.0625,7.178902,3.013263,5.978755,2.753906,3.080867,7.405135,-0.1266002,-0.4470138,1.587208,0.2842893,-0.4467195,1.564525,0.09897052,0.4021519,1.666366,-0.174356,-0.4424227,1.594864,0.2436625,-0.4303337,1.539256,0.09898559,-0.06667087,1.671575,0.09661672,-0.3906502,1.648742,-0.07750061,0.1155598,1.6675,0.01969545,-0.3826517,1.616512,-0.1345583,-0.1406601,1.677286,0.3133299,-0.1533171,1.651456,NA,NA,NotTracked,NotTracked,
0.9243164,0.3056641,0.05712891,0.9331055,-0.3486328,0.07226563,-3,-1,-1,-3,-1,-1,-2,0,2,0,1,1,1,-2,-1,0,-0.6875,-0.6875,-0.6875,0.0625,0.0625,0.0625,7.179714,3.01293,5.978616,2.754939,3.079075,7.405064,-0.1266922,-0.4471702,1.587889,0.2840506,-0.4461284,1.564651,0.09898805,0.4021143,1.666472,-0.1739423,-0.4543624,1.5984,0.243349,-0.4307405,1.539358,0.09897678,-0.06673213,1.671642,0.09660921,-0.3907777,1.648843,-0.07748964,0.1155558,1.667504,0.01969851,-0.3827962,1.616655,-0.1343613,-0.1383301,1.678043,0.3133056,-0.1533681,1.651511,NA,NA,NotTracked,NotTracked,
0.9301758,0.3032227,0.05859375,0.9355469,-0.3535156,0.06933594,0,-2,0,-1,-2,-1,0,-3,-1,4,1,0,0,0,0,0,-1.6875,-1.6875,-1.6875,0,0,0,7.18003,3.013009,5.977333,2.754785,3.07795,7.405349,-0.1263605,-0.4481316,1.588944,0.2840089,-0.4463074,1.56527,0.09902844,0.4020645,1.666495,-0.173579,-0.4477704,1.600743,0.2432334,-0.4289972,1.539634,0.09900834,-0.06676471,1.67172,0.09666678,-0.3908335,1.648934,-0.077473,0.1155434,1.66752,0.01974382,-0.3828738,1.61675,-0.1344259,-0.1451004,1.677225,0.3133273,-0.1533433,1.651555,NA,NA,NotTracked,NotTracked,
0.9316406,0.3027344,0.06201172,0.9375,-0.3544922,0.07128906,0,0,-1,-1,0,-1,-1,-1,0,0,-1,0,-1,-1,1,0,-1.8125,-1.8125,-1.8125,0.5625,0.5625,0.5625,7.179399,3.013925,5.975415,2.755908,3.077737,7.404364,-0.1264367,-0.4472316,1.589822,0.2841174,-0.4466119,1.565787,0.09906613,0.4020095,1.666693,-0.1748111,-0.448026,1.605455,0.2427424,-0.4276899,1.539773,0.09897795,-0.06682807,1.671801,0.09661599,-0.3908987,1.648991,-0.07746395,0.1155292,1.667552,0.01966338,-0.3829489,1.616839,-0.1342664,-0.1482907,1.677113,0.3132903,-0.1530864,1.651972,NA,NA,NotTracked,NotTracked,
0.9272461,0.2949219,0.07080078,0.9291992,-0.3530273,0.06640625,0,0,-1,-3,-2,-3,-2,0,0,0,1,-2,-2,1,-2,-1,-0.0625,-0.0625,-0.0625,-0.5625,-0.5625,-0.5625,7.177618,3.013601,5.976763,2.755908,3.077737,7.404364,-0.1255561,-0.4471872,1.589929,0.2838411,-0.4461781,1.56558,0.09906289,0.4019452,1.666868,-0.1710827,-0.4493976,1.594697,0.2415511,-0.4255579,1.540321,0.09897659,-0.06690998,1.671904,0.09664954,-0.3910398,1.649146,-0.07746133,0.1155224,1.667606,0.0196896,-0.3830942,1.617025,-0.1340953,-0.1495031,1.677214,0.3133031,-0.1531881,1.652277,NA,NA,NotTracked,NotTracked,
0.921875,0.2988281,0.05859375,0.9326172,-0.3574219,0.06933594,-1,-2,1,0,-1,0,-1,0,3,0,0,-1,-1,0,-1,-1,1.4375,1.4375,1.4375,-0.25,-0.25,-0.25,7.178632,3.01353,5.976145,2.756589,3.077803,7.403823,-0.125573,-0.4477985,1.590772,0.2843513,-0.4469469,1.566398,0.09913698,0.4019467,1.667222,-0.1732098,-0.4466137,1.598127,0.2428717,-0.4284377,1.540295,0.09896141,-0.06694916,1.672005,0.09661797,-0.3910967,1.649262,-0.07745174,0.1155222,1.667657,0.01966579,-0.3831542,1.617103,-0.1341017,-0.1499884,1.677366,0.3133631,-0.1535507,1.652509,NA,NA,NotTracked,NotTracked,
0.9233398,0.3022461,0.06445313,0.9326172,-0.3500977,0.07128906,0,0,-1,1,-2,-3,-1,-1,-3,-2,-3,-2,-1,-1,-1,-1,1.5,1.5,1.5,-0.125,-0.125,-0.125,7.180142,3.013049,5.976671,2.75733,3.077819,7.403082,-0.1252041,-0.4474316,1.590905,0.2914668,-0.437311,1.56933,0.09917443,0.402004,1.667346,-0.1714221,-0.4443682,1.595391,0.2534826,-0.4221123,1.548909,0.09896567,-0.06698052,1.672097,0.09660549,-0.3911563,1.649371,-0.07744414,0.1154984,1.667709,0.01964508,-0.3832063,1.617239,-0.1336479,-0.1412022,1.680042,0.313336,-0.1535627,1.652725,NA,NA,NotTracked,NotTracked,
0.9233398,0.3022461,0.06445313,0.9321289,-0.3500977,0.06787109,0,0,1,0,0,0,-2,-2,0,-1,0,-1,-1,-2,-2,-2,1.5,1.5,1.5,0.25,0.25,0.25,7.180142,3.013049,5.976671,2.758079,3.078206,7.402336,-0.1248418,-0.4475356,1.590576,0.2916281,-0.437473,1.569247,0.09927979,0.4020211,1.667634,-0.1714492,-0.4465195,1.596093,0.2559342,-0.4431052,1.539313,0.09892748,-0.06710938,1.672237,0.09650321,-0.3914005,1.649583,-0.07743023,0.1154527,1.667797,0.0195521,-0.3834151,1.617476,-0.13365,-0.1388022,1.680624,0.3134036,-0.1535527,1.652827,NA,NA,NotTracked,NotTracked,
0.9316406,0.3041992,0.06640625,0.9326172,-0.3383789,0.07080078,4,3,1,0,-1,-1,-13,24,-2,-5,-2,-2,-2,-1,-1,0,-8.25,-8.25,-8.25,0.8125,0.8125,0.8125,7.176643,3.012692,5.972763,2.761525,3.078919,7.400016,-0.1253527,-0.4473208,1.590525,0.2831727,-0.4468864,1.565998,0.09931937,0.4019991,1.667758,-0.1717366,-0.4441576,1.597532,0.2399878,-0.4223549,1.540413,0.09889754,-0.06719158,1.672351,0.09648338,-0.3915077,1.649729,-0.0774186,0.1154148,1.667847,0.01953577,-0.3835382,1.617705,-0.1332674,-0.1378903,1.680777,0.3134602,-0.1535457,1.652863,NA,NA,NotTracked,NotTracked,
0.925293,0.2836914,0.0625,0.9321289,-0.3408203,0.07373047,-5,-2,0,0,-5,-3,-5,-42,3,2,-1,-3,0,-3,-3,-2,-10.5625,-10.5625,-10.5625,-0.375,-0.375,-0.375,7.173489,3.01167,5.969798,2.763926,3.080102,7.397905,-0.124663,-0.4474678,1.591467,0.2834788,-0.4466473,1.567143,0.09940371,0.4021373,1.668073,-0.1716174,-0.4454488,1.596582,0.2399349,-0.4175204,1.540666,0.09892958,-0.06722134,1.672536,0.09649763,-0.3915524,1.650016,-0.07743435,0.1154148,1.668005,0.01958545,-0.3835969,1.618107,-0.1331526,-0.1373821,1.681227,0.3134043,-0.1532812,1.653393,NA,NA,NotTracked,NotTracked,
0.9301758,0.2734375,0.07177734,0.9287109,-0.3442383,0.07128906,-5,-2,-3,-1,2,-4,-1,-22,0,-3,-6,-1,-1,-2,0,-3,-4.4375,-4.4375,-4.4375,0.25,0.25,0.25,7.171946,3.009856,5.968969,2.766085,3.081053,7.396035,-0.1247602,-0.4474106,1.590406,0.2838532,-0.4470144,1.566792,0.09939364,0.4021115,1.66825,-0.1697169,-0.4431919,1.593384,0.2409049,-0.4185117,1.541017,0.09895054,-0.06729927,1.672661,0.09650889,-0.3917217,1.65018,-0.07741828,0.1154072,1.668064,0.01959277,-0.3837616,1.618323,-0.1334324,-0.1473258,1.680121,0.3133451,-0.1533652,1.653462,NA,NA,NotTracked,NotTracked,
0.9223633,0.3149414,0.05566406,0.9287109,-0.3383789,0.07373047,-3,-2,1,0,3,3,-2,-9,-2,-3,-3,4,-1,-2,-1,-5,10.5625,10.5625,10.5625,-0.3125,-0.3125,-0.3125,7.194378,3.008099,5.960429,2.767045,3.080931,7.395073,-0.12495,-0.4483094,1.590948,0.2830916,-0.4466202,1.56749,0.09930203,0.4020153,1.668631,-0.1713566,-0.4446728,1.597246,0.2412503,-0.4236153,1.540902,0.09896124,-0.06732757,1.672802,0.09652428,-0.3917563,1.650327,-0.07742692,0.1153438,1.66821,0.0196144,-0.3838233,1.618448,-0.1335029,-0.1484396,1.680061,0.3130933,-0.1533211,1.65375,NA,NA,NotTracked,NotTracked,
0.9223633,0.3149414,0.05566406,0.9306641,-0.3383789,0.07080078,0,-1,-2,-2,4,17,14,-4,-9,-3,-5,-3,-1,0,0,1,10.5625,10.5625,10.5625,-0.625,-0.625,-0.625,7.194378,3.008099,5.960429,2.7672,3.080472,7.395055,-0.1248285,-0.4461113,1.591417,0.2914961,-0.435976,1.570404,0.0992936,0.4020741,1.668867,-0.1717231,-0.4458334,1.597267,0.2536797,-0.4340255,1.544751,0.09897094,-0.06737551,1.672941,0.09664006,-0.3918746,1.650567,-0.07742786,0.1153057,1.668335,0.01977424,-0.3839942,1.618839,-0.1333136,-0.1499633,1.680001,0.3128702,-0.1534508,1.654005,NA,NA,NotTracked,NotTracked,
0.9301758,0.3037109,0.0546875,0.9404297,-0.3383789,0.06787109,-2,0,0,-1,0,1,-4,-14,0,-11,1,-1,1,0,8,-1,3.875,3.875,3.875,-2.375,-2.375,-2.375,7.207643,3.00761,5.954025,2.765854,3.080686,7.394724,-0.1250026,-0.4465105,1.592132,0.2918818,-0.4365601,1.571799,0.09921224,0.4019341,1.669409,-0.1710605,-0.4433521,1.603826,0.2606651,-0.4316828,1.542565,0.09772891,-0.06760001,1.674624,0.09651519,-0.3922278,1.650871,-0.07968341,0.1149057,1.671591,0.01962219,-0.3843273,1.61923,-0.1332656,-0.1506779,1.680083,0.3128008,-0.1535791,1.654111,NA,NA,NotTracked,NotTracked,
0.921875,0.3046875,0.06005859,0.9277344,-0.347168,0.07324219,4,2,0,0,1,5,0,21,2,-11,-5,-5,1,6,32,5,5.0625,5.0625,5.0625,0.3125,0.3125,0.3125,7.214792,3.007009,5.952678,2.770051,3.082145,7.390681,-0.1241579,-0.4463556,1.59109,0.2840085,-0.4439687,1.568365,0.09921901,0.4018283,1.669621,-0.1708132,-0.4479731,1.598518,0.2413297,-0.4246107,1.54302,0.09777467,-0.06762613,1.674645,0.09651189,-0.3922677,1.650951,-0.0795434,0.1148655,1.671567,0.01960607,-0.3843659,1.619302,-0.1320493,-0.1436472,1.681436,0.3127284,-0.153595,1.654138,NA,NA,NotTracked,NotTracked,
0.921875,0.3046875,0.06005859,0.9277344,-0.347168,0.07324219,4,2,0,0,1,5,0,21,2,-11,-5,-5,1,6,32,5,5.0625,5.0625,5.0625,0.3125,0.3125,0.3125,7.214792,3.007009,5.952678,2.770051,3.082145,7.390681,-0.1239406,-0.4454407,1.591338,0.2843306,-0.4456525,1.567692,0.09911975,0.4017594,1.669873,-0.1712244,-0.4333472,1.61,0.2433181,-0.4295023,1.542151,0.09678349,-0.06803371,1.675612,0.09635533,-0.3926473,1.65105,-0.08065005,0.113866,1.673079,0.01942066,-0.3847261,1.619422,-0.1317697,-0.1407661,1.682463,0.3126656,-0.1534109,1.654119,NA,NA,NotTracked,NotTracked,
0.9321289,0.3154297,0.06005859,0.9277344,-0.3295898,0.06054688,-1,-3,-3,-2,-3,0,1,-16,1,-1,-3,-1,-1,0,18,4,4.375,4.375,4.375,-4.0625,-4.0625,-4.0625,7.217949,3.006954,5.952247,2.766002,3.082202,7.392632,-0.1232112,-0.4443465,1.591386,0.2840425,-0.4437552,1.568488,0.099009,0.4016221,1.670323,-0.1652128,-0.4509924,1.594563,0.2404795,-0.4192038,1.542974,0.09588446,-0.06828819,1.676642,0.09611395,-0.3929086,1.65122,-0.08148717,0.1134897,1.674256,0.01916451,-0.3849463,1.619604,-0.1320395,-0.1454583,1.682222,0.3125802,-0.1531681,1.654099,NA,NA,NotTracked,NotTracked,
0.9375,0.3198242,0.05615234,0.925293,-0.3588867,0.06689453,-9,-6,-3,-2,8,8,5,-58,3,-3,-3,-1,-2,-2,-3,-2,11.875,11.875,11.875,-3.1875,-3.1875,-3.1875,7.227931,3.007426,5.952024,2.75754,3.083642,7.396771,-0.1232972,-0.4438825,1.593241,0.2843629,-0.4443911,1.568562,0.0989558,0.4014994,1.670771,-0.1665069,-0.4436378,1.598164,0.243715,-0.4283429,1.542683,0.09598745,-0.0682685,1.676601,0.09609105,-0.3928974,1.651249,-0.08113805,0.1135427,1.674068,0.01911564,-0.3849294,1.619683,-0.1317077,-0.1421091,1.683378,0.3124495,-0.1529543,1.65408,NA,NA,NotTracked,NotTracked,
0.9350586,0.340332,0.03271484,0.9262695,-0.3764648,0.06494141,-7,-9,-22,-13,-10,-19,-6,-49,1,-1,-1,0,-2,0,-10,-3,24.875,24.875,24.875,5.125,5.125,5.125,7.239988,3.009364,5.954664,2.753726,3.086377,7.404386,-0.1231442,-0.4430254,1.593554,0.2833649,-0.4427104,1.566421,0.09881101,0.4014306,1.671149,-0.1663764,-0.4494133,1.600521,0.243051,-0.423624,1.541862,0.09546457,-0.06834421,1.677278,0.09597988,-0.3929783,1.651345,-0.08202371,0.1133264,1.675504,0.01901829,-0.3850006,1.619815,-0.1317226,-0.1440232,1.683237,0.312362,-0.1527701,1.653923,NA,NA,NotTracked,NotTracked,
0.9780273,0.6923828,0.02880859,0.9321289,-0.3427734,0.06347656,2,-2,-3,-1,0,-3,-1,-15,-3,-13,-3,1,2,-2,-2,0,-18.9375,-18.9375,-18.9375,10.8125,10.8125,10.8125,7.275876,3.071775,5.944909,2.756237,3.087704,7.414622,-0.122909,-0.4438962,1.594752,0.2818586,-0.4422932,1.560694,0.09859918,0.4014006,1.671562,-0.1632417,-0.4588885,1.5914,0.240028,-0.4176843,1.541677,0.09484681,-0.06838559,1.677897,0.09574689,-0.3930641,1.651416,-0.08264086,0.1132092,1.676716,0.0187797,-0.3850388,1.61992,-0.1320523,-0.1479825,1.683344,0.3120891,-0.1524183,1.653611,NA,NA,NotTracked,NotTracked,
0.9780273,0.6923828,0.02880859,0.9394531,-0.3339844,0.05908203,1,-7,-10,7,0,3,-1,-9,0,3,2,2,0,1,3,1,-18.9375,-18.9375,-18.9375,2.125,2.125,2.125,7.275876,3.071775,5.944909,2.756125,3.085846,7.420734,-0.1229575,-0.4416435,1.593862,0.2778676,-0.4365085,1.550497,0.09833796,0.4013321,1.672006,-0.1655272,-0.4616433,1.601,0.2357446,-0.4112921,1.5352,0.09431755,-0.06844715,1.678347,0.09560202,-0.393151,1.651439,-0.08300868,0.112882,1.677822,0.01864308,-0.3851019,1.619972,-0.1315338,-0.1422406,1.684788,0.3117693,-0.1500321,1.652037,NA,NA,NotTracked,NotTracked,
1.058105,0.4931641,0.008789063,0.9277344,-0.3476563,0.06005859,5,1,-18,-5,0,2,0,9,-4,-3,-3,-8,0,1,-1,-1,-145.625,-145.625,-145.625,-3.25,-3.25,-3.25,7.031194,3.19625,5.993158,2.754184,3.08476,7.420984,-0.1238889,-0.4431476,1.595569,0.272101,-0.4265321,1.536793,0.09797148,0.4012225,1.672673,-0.1662501,-0.4536909,1.600073,0.2297706,-0.4122333,1.533547,0.09387648,-0.06850391,1.678937,0.09534437,-0.3932188,1.651544,-0.08362485,0.1126456,1.678947,0.0184376,-0.3850951,1.620096,-0.1314647,-0.1406993,1.685473,0.3122178,-0.1488747,1.649795,NA,NA,NotTracked,NotTracked,
1.146973,0.3920898,0.2543945,0.9360352,-0.3666992,0.08203125,13,-8,-1,1,0,1,4,11,0,11,3,0,-1,-3,-3,-3,-22.875,-22.875,-22.875,-2.9375,-2.9375,-2.9375,6.881255,3.329772,6.088178,2.756436,3.083763,7.414104,-0.1231358,-0.4424106,1.595105,0.2765413,-0.3987882,1.497392,0.09746868,0.401028,1.673269,-0.1657455,-0.4333672,1.598526,0.2493639,-0.4055279,1.513812,0.09343097,-0.06866217,1.67939,0.09484052,-0.3934158,1.651615,-0.08401804,0.1122912,1.679762,0.01798471,-0.3851406,1.620193,-0.1315276,-0.1462107,1.685185,0.3135082,-0.1453154,1.647186,NA,NA,NotTracked,Unknown,
1.075684,0.7856445,0.5053711,0.9316406,-0.3510742,0.08349609,6,8,-11,-7,-4,1,2,5,0,-4,0,-4,-1,-2,-5,-3,47.125,47.125,47.125,-3.375,-3.375,-3.375,6.814658,3.554529,6.219189,2.76333,3.08279,7.404962,-0.1227437,-0.4424878,1.595471,0.2716754,-0.3615676,1.461975,0.09705165,0.4008982,1.673812,-0.1661546,-0.4456224,1.600871,0.2422622,-0.3579405,1.457833,0.09267671,-0.06877814,1.680198,0.09383171,-0.3937623,1.651985,-0.08452412,0.1119618,1.680872,0.01704263,-0.3852124,1.620525,-0.1315923,-0.1476854,1.685592,0.3150831,-0.138727,1.645305,NA,NA,NotTracked,Unknown,
0.8139648,0.9780273,0.5019531,0.9272461,-0.3588867,0.08789063,6,2,21,-8,0,0,0,-3,0,-3,-1,0,-2,-1,-3,0,5.875,5.875,5.875,-7.8125,-7.8125,-7.8125,6.752707,3.856722,6.32984,2.764748,3.082119,7.395843,-0.1227769,-0.4422845,1.595436,0.254177,-0.3345128,1.423206,0.09677792,0.4008365,1.674086,-0.1658802,-0.4435374,1.603543,0.2329547,-0.3547765,1.468167,0.09212992,-0.06890451,1.68063,0.0921208,-0.3940211,1.652199,-0.0846165,0.1118142,1.681219,0.01519711,-0.3850218,1.620798,-0.131603,-0.1492475,1.685761,0.3183864,-0.121987,1.642319,NA,NA,NotTracked,Lasso,
0.6040039,0.8710938,0.6108398,0.9316406,-0.3662109,0.08300781,-80,-18,-40,1,-3,-3,-4,-5,5,-1,-2,1,1,0,-2,-1,-15.75,-15.75,-15.75,-6.5625,-6.5625,-6.5625,6.691658,4.193261,6.407446,2.765903,3.082951,7.391059,-0.1223574,-0.4438159,1.597252,0.2408462,-0.2816534,1.377851,0.09656961,0.4006915,1.674443,-0.168158,-0.4332107,1.617273,0.2082662,-0.2835651,1.404143,0.0906973,-0.06926192,1.681467,0.08944988,-0.3947026,1.652598,-0.08475595,0.1116354,1.681534,0.01270706,-0.3850874,1.621318,-0.1322376,-0.1439154,1.68733,0.3243434,-0.1064659,1.637769,NA,NA,NotTracked,Lasso,
0.4780273,0.8432617,0.6220703,0.940918,-0.3466797,0.07275391,22,-15,-11,-11,-2,3,8,16,-5,-4,0,-1,-1,0,-3,-3,-6.125,-6.125,-6.125,-3.3125,-3.3125,-3.3125,6.672286,4.374645,6.441592,2.772398,3.084954,7.380105,-0.1224259,-0.4432664,1.596986,0.2261345,-0.2205511,1.337665,0.09634435,0.4005722,1.674894,-0.1665907,-0.4493764,1.613,0.1923673,-0.2088476,1.350889,0.08944276,-0.06945646,1.682413,0.08817547,-0.3949458,1.653017,-0.08505204,0.1113491,1.68187,0.01163878,-0.385185,1.6218,-0.1325335,-0.1413146,1.688062,0.3291639,-0.1049708,1.63311,NA,NA,NotTracked,Unknown,
0.1533203,0.8984375,0.5981445,0.9467773,-0.3388672,0.06787109,4,9,-22,-4,5,2,5,3,-2,5,0,-6,-1,-1,0,-2,32.9375,32.9375,32.9375,-0.5,-0.5,-0.5,6.681039,4.751878,6.504655,2.782064,3.088595,7.368374,-0.1224656,-0.443264,1.596004,0.2122695,-0.1508676,1.301942,0.09630273,0.4005719,1.67503,-0.162443,-0.4688827,1.605,0.2000234,-0.1217046,1.273984,0.08924041,-0.06960125,1.682806,0.08804563,-0.3950829,1.653189,-0.08504122,0.1112641,1.682059,0.01152399,-0.3853054,1.622005,-0.1323583,-0.1473875,1.687199,0.3655494,-0.07894185,1.572035,NA,NA,NotTracked,Unknown,
0.01660156,0.9179688,0.5703125,0.9370117,-0.3359375,0.0703125,24,9,52,0,1,-8,-1,0,0,3,1,-1,-1,-3,0,1,38.6875,38.6875,38.6875,-0.625,-0.625,-0.625,6.699248,4.946937,6.534176,2.791646,3.090259,7.357966,-0.1219482,-0.4429398,1.596269,0.2007763,0.0142619,1.294946,0.09645909,0.4001792,1.675568,-0.1623081,-0.4684932,1.603667,0.1670752,0.04312883,1.2535,0.08882157,-0.06973154,1.684035,0.08788324,-0.3950615,1.653908,-0.08488104,0.1110233,1.68291,0.01144681,-0.385482,1.623397,-0.13304,-0.1486007,1.688021,0.3373618,-0.07188582,1.518204,NA,NA,NotTracked,Unknown,
-0.2128906,0.956543,0.512207,0.9360352,-0.3310547,0.07275391,-11,-26,-27,-18,-11,0,-1,-1,-13,2,1,-1,-2,-1,4,-2,40.875,40.875,40.875,-1.375,-1.375,-1.375,6.786107,5.514082,6.633876,2.796728,3.089894,7.351762,-0.1214106,-0.4393137,1.596153,0.1901182,0.09344081,1.308854,0.09650811,0.4001011,1.675633,-0.1581212,-0.4689086,1.595445,0.1560772,0.1340082,1.321909,0.08876348,-0.06988277,1.684399,0.08784635,-0.395247,1.654117,-0.08488821,0.1112378,1.683615,0.01137,-0.3857189,1.623843,-0.1330196,-0.1488971,1.687984,0.3203582,-0.04954035,1.501647,NA,NA,NotTracked,Open,
-0.3398438,0.918457,0.5078125,0.9321289,-0.3515625,0.07421875,0,-2,13,7,5,-5,0,-6,2,-15,-7,-1,0,1,0,0,33.75,33.75,33.75,-4.8125,-4.8125,-4.8125,6.821776,5.692282,6.681749,2.79215,3.088061,7.352268,-0.1222215,-0.4403496,1.596857,0.1821055,0.165815,1.328512,0.09656181,0.4000604,1.675857,-0.1642341,-0.4382288,1.6048,0.1528572,0.2017003,1.336512,0.08895669,-0.06944983,1.68466,0.08773413,-0.3951172,1.654268,-0.08440801,0.1115017,1.684115,0.01112878,-0.3856044,1.624345,-0.1325978,-0.1499194,1.687918,0.3191387,-0.0358387,1.495598,NA,NA,NotTracked,Open,
-0.4355469,0.8457031,0.4541016,0.9277344,-0.3632813,0.07275391,-6,-4,-13,-11,-8,-6,-4,-12,2,10,2,2,1,0,0,-1,28.5,28.5,28.5,-2.3125,-2.3125,-2.3125,6.862025,5.863091,6.734815,2.788599,3.088258,7.354701,-0.1218874,-0.4409277,1.597499,0.1825717,0.2163482,1.353294,0.09652575,0.3998093,1.675835,-0.1644711,-0.431269,1.605312,0.1518822,0.2469286,1.375823,0.08908242,-0.06909049,1.684909,0.08752258,-0.3949972,1.654496,-0.08350072,0.1116056,1.684636,0.01070278,-0.3855485,1.624737,-0.1318879,-0.1380164,1.690624,0.3209399,-0.01756084,1.472098,NA,NA,NotTracked,Unknown,
-0.5522461,0.7026367,0.3237305,0.9375,-0.3486328,0.06738281,0,-3,-7,37,2,4,7,-13,3,3,-1,-3,-1,-1,-3,-1,54.0625,54.0625,54.0625,6.5625,6.5625,6.5625,7.06866,6.309239,6.951154,2.787529,3.088847,7.362072,-0.121559,-0.4396159,1.598236,0.1737019,0.2771583,1.373228,0.09661807,0.3990362,1.675745,-0.1660377,-0.4372644,1.612182,0.1507156,0.3176784,1.417143,0.08930179,-0.06912838,1.685417,0.08744352,-0.3949338,1.654652,-0.08230376,0.1121055,1.68533,0.01046832,-0.3855275,1.625063,-0.1316212,-0.1408655,1.689883,0.3236982,-0.01496069,1.470027,NA,NA,NotTracked,Unknown,
-0.5395508,0.6933594,0.3007813,0.9277344,-0.3354492,0.05908203,34,8,0,-31,-10,5,2,14,-8,-19,-5,-1,-3,-3,-2,-1,45.5625,45.5625,45.5625,4.1875,4.1875,4.1875,7.169729,6.427169,7.052227,2.783309,3.089471,7.372593,-0.1221528,-0.4405166,1.599338,0.1710788,0.3176287,1.394659,0.09663851,0.3979492,1.675021,-0.1666035,-0.4334112,1.612,0.1462287,0.3287238,1.434273,0.09001922,-0.06864823,1.685819,0.08801193,-0.3939022,1.65492,-0.08170035,0.1126301,1.686128,0.01064822,-0.3849557,1.625382,-0.1308892,-0.136159,1.6913,0.3224376,0.01131302,1.453881,NA,NA,NotTracked,Open,
-0.5151367,0.5385742,0.1777344,0.9257813,-0.347168,0.07324219,7,-1,-2,-5,-7,4,0,-12,-18,-3,-3,-2,-2,-1,2,-2,36.9375,36.9375,36.9375,4.4375,4.4375,4.4375,7.409778,6.618687,7.298502,2.781935,3.090762,7.376918,-0.1220438,-0.4410447,1.599941,0.1734074,0.3314071,1.417603,0.09669787,0.3971785,1.674656,-0.1650059,-0.4406516,1.608525,0.1473111,0.33286,1.4534,0.090678,-0.06794386,1.686631,0.08843296,-0.3925337,1.655775,-0.08064608,0.1136821,1.687171,0.01088654,-0.3839687,1.626453,-0.1308656,-0.1342017,1.691927,0.3214759,0.0235919,1.44688,NA,NA,NotTracked,Open,
-0.6025391,0.4794922,0.07177734,0.9243164,-0.3500977,0.07861328,-35,-3,3,-3,-5,-5,-5,-14,2,5,-3,0,1,0,-1,-2,31.25,31.25,31.25,8,8,8,7.72525,6.744299,7.616966,2.783469,3.092414,7.384219,-0.1221647,-0.4398846,1.599857,0.1699955,0.3527935,1.434639,0.09658355,0.3962072,1.674236,-0.1645974,-0.4401473,1.607851,0.1697016,0.3063265,1.493222,0.09080324,-0.06705351,1.687319,0.08821484,-0.3911058,1.656571,-0.07989807,0.1144806,1.688085,0.01048338,-0.3824252,1.627807,-0.1308719,-0.1319858,1.692671,0.3008699,0.1135509,1.425247,NA,NA,NotTracked,Open,
-0.621582,0.3510742,0.0078125,0.918457,-0.3530273,0.08398438,30,12,14,2,-2,-13,-22,14,1,-18,-5,-5,-1,-1,-3,-4,25.8125,25.8125,25.8125,6.1875,6.1875,6.1875,8.06681,6.812504,7.970737,2.789039,3.093862,7.392663,-0.1220817,-0.4403054,1.599855,0.1604123,0.3837028,1.451011,0.09658337,0.3952011,1.673952,-0.1647544,-0.4344919,1.606912,0.1416075,0.3790257,1.485128,0.09102224,-0.06656672,1.687686,0.08833765,-0.3900607,1.657066,-0.07906867,0.1148674,1.688765,0.01047881,-0.3815026,1.62857,-0.130833,-0.1305564,1.69314,0.2856506,0.1486948,1.42501,NA,NA,NotTracked,Open,
-0.2719727,0.3056641,-0.06982422,0.9233398,-0.3598633,0.08349609,-18,-3,-9,-16,-5,-11,-2,-11,1,27,4,-5,-2,-3,-2,-1,19.4375,19.4375,19.4375,3.0625,3.0625,3.0625,8.37008,6.832027,8.276115,2.791431,3.093873,7.395032,-0.1226343,-0.4409236,1.600644,0.1561556,0.3958324,1.4662,0.09663539,0.3945026,1.67362,-0.1681149,-0.4304537,1.6168,0.1380944,0.394385,1.503971,0.09109516,-0.06634748,1.687812,0.08834199,-0.3895304,1.657224,-0.07863167,0.1147697,1.689192,0.01037218,-0.381077,1.628942,-0.1309105,-0.1302184,1.69345,0.2839717,0.1549378,1.425741,NA,NA,NotTracked,Open,
-1.178223,0.2866211,-0.5478516,0.9243164,-0.3686523,0.08203125,18,-2,-3,1,1,-6,15,38,-1,0,-1,-1,-2,0,1,0,22.625,22.625,22.625,2.8125,2.8125,2.8125,8.68408,6.820378,8.580763,2.793161,3.094194,7.395127,-0.1229414,-0.4409617,1.60131,0.1541834,0.3991246,1.47412,0.09666732,0.3937874,1.672855,-0.1682358,-0.4340093,1.616378,0.137042,0.3840537,1.507409,0.09117031,-0.06606974,1.688023,0.08837903,-0.3889185,1.657356,-0.07810557,0.1147597,1.689457,0.01033288,-0.3806424,1.629195,-0.1307809,-0.129573,1.693948,0.2816888,0.1649329,1.427282,NA,NA,NotTracked,Open,
-0.590332,0.2851563,-0.5205078,0.9194336,-0.371582,0.08496094,-5,3,4,2,1,8,2,29,1,-4,-1,1,-3,0,-1,0,11.0625,11.0625,11.0625,3,3,3,8.877832,6.775971,8.776176,2.799939,3.096614,7.392159,-0.1236079,-0.4400874,1.602895,0.128242,0.4161406,1.520293,0.0967852,0.3934143,1.67271,-0.1707809,-0.4189368,1.619385,0.09198182,0.3836608,1.543864,0.09116027,-0.06583111,1.688353,0.08819532,-0.3881932,1.657713,-0.07759275,0.1144676,1.689974,0.01007249,-0.3799788,1.629666,-0.1306205,-0.1289331,1.694703,0.2817984,0.1698602,1.428654,NA,NA,NotTracked,Unknown,
-0.7631836,0.1743164,-0.4887695,0.9155273,-0.3842773,0.09326172,-37,-2,2,2,0,-6,-46,-94,-3,-2,-1,0,-2,0,-1,-3,8.6875,8.6875,8.6875,2.125,2.125,2.125,8.914757,6.761717,8.808464,2.807757,3.101609,7.38706,-0.1229279,-0.4417976,1.602631,0.1250919,0.417384,1.52289,0.09671327,0.3932042,1.672644,-0.1683097,-0.4292862,1.616273,0.0862626,0.3822683,1.544908,0.09115609,-0.06522296,1.688735,0.08807628,-0.3868893,1.657924,-0.077364,0.1142806,1.690202,0.009926065,-0.3788973,1.629975,-0.1305727,-0.1281434,1.695194,0.2813551,0.1731986,1.429525,NA,NA,NotTracked,Unknown,
-0.6958008,0.1762695,-0.3974609,0.9418945,-0.3491211,0.06884766,-11,16,14,0,-1,-2,-8,40,2,-1,-2,0,0,-1,0,-1,12.1875,12.1875,12.1875,6.125,6.125,6.125,8.918287,6.755985,8.802763,2.819617,3.108311,7.384674,-0.1242071,-0.4410948,1.603432,0.1224249,0.4201407,1.51786,0.09612757,0.3927553,1.673121,-0.1675098,-0.4420125,1.615889,0.09009099,0.3830355,1.546611,0.09101266,-0.06472556,1.689462,0.08806213,-0.3861456,1.658179,-0.07703398,0.1141296,1.691151,0.009895435,-0.3783562,1.630427,-0.1309339,-0.1281604,1.695815,0.2803252,0.1763581,1.430419,NA,NA,NotTracked,Unknown,
-0.9555664,0.3354492,-0.262207,0.9433594,-0.3491211,0.08154297,10,-4,-2,45,-6,-8,-4,9,1,-4,0,0,-1,-1,-4,-2,-32.8125,-32.8125,-32.8125,2.4375,2.4375,2.4375,8.748174,6.746028,8.620687,2.822956,3.110032,7.382618,-0.1239362,-0.4414433,1.602446,0.1235163,0.4180449,1.512068,0.09545508,0.3919552,1.674115,-0.1678433,-0.4482501,1.619222,0.1037458,0.3788017,1.548511,0.09077303,-0.06425123,1.689839,0.08774868,-0.3854714,1.658341,-0.07702974,0.113895,1.69159,0.009561823,-0.3777777,1.630579,-0.1308605,-0.12747,1.696417,0.2801054,0.1767807,1.430866,NA,NA,NotTracked,Unknown,
-0.9707031,0.2919922,-0.2709961,0.9233398,-0.3652344,0.08935547,7,3,2,15,4,1,-1,15,5,4,1,-2,1,0,1,0,-34.5625,-34.5625,-34.5625,-2.5,-2.5,-2.5,8.665613,6.73561,8.54906,2.826788,3.113765,7.375185,-0.1243181,-0.4409353,1.601547,0.1249523,0.4195255,1.506349,0.09444727,0.3916975,1.674805,-0.1676826,-0.4407683,1.61412,0.09316596,0.3868351,1.548337,0.09061699,-0.06364922,1.69023,0.08766864,-0.3845201,1.658455,-0.07703131,0.1138695,1.691772,0.009472235,-0.3772115,1.630733,-0.1310431,-0.1269378,1.696881,0.2798258,0.1770198,1.431091,NA,NA,NotTracked,Unknown,
-0.8769531,0.4887695,-0.2016602,0.9213867,-0.359375,0.09277344,23,12,0,-7,-1,-2,2,51,0,-12,-4,0,-1,-1,-2,-1,0.5625,0.5625,0.5625,-2.3125,-2.3125,-2.3125,8.572335,6.722513,8.454113,2.827387,3.113085,7.373317,-0.1241393,-0.4410405,1.601656,0.123881,0.4195541,1.505215,0.09364635,0.3910924,1.675454,-0.1656256,-0.448007,1.609308,0.09344625,0.3865488,1.548033,0.09032907,-0.06324343,1.690425,0.08756779,-0.3838308,1.658428,-0.07716405,0.1136858,1.692115,0.009322244,-0.3767298,1.630715,-0.1311871,-0.1266248,1.697352,0.2799332,0.1775157,1.431234,NA,NA,NotTracked,Unknown,
-0.8652344,0.4233398,-0.1616211,0.925293,-0.3535156,0.08203125,16,7,3,-6,1,-3,-19,31,-2,0,0,-3,-1,-1,-2,-4,-13.9375,-13.9375,-13.9375,-2.5,-2.5,-2.5,8.576614,6.719213,8.47054,2.825313,3.111092,7.372983,-0.1242634,-0.4407753,1.602284,0.1226121,0.4190778,1.507346,0.09326652,0.3908832,1.675838,-0.1700913,-0.4286966,1.620571,0.09596004,0.3868194,1.548312,0.09007331,-0.06299492,1.690821,0.0875041,-0.3835386,1.658597,-0.07725763,0.1135336,1.692723,0.009257369,-0.3765068,1.630961,-0.1314108,-0.1266382,1.69771,0.2799349,0.1777271,1.431329,NA,NA,NotTracked,Unknown,
-0.890625,0.3520508,-0.2617188,0.9257813,-0.362793,0.08740234,-3,1,-3,-2,-4,-6,10,0,-1,0,0,-1,-1,-3,0,1,7.1875,7.1875,7.1875,-4.5,-4.5,-4.5,8.65688,6.710516,8.56165,2.822324,3.10989,7.37161,-0.1242895,-0.4407603,1.601911,0.1214352,0.4187622,1.510889,0.09295024,0.3907433,1.675864,-0.1677271,-0.4339744,1.61126,0.09112121,0.3876458,1.54823,0.08985636,-0.06264041,1.691168,0.08740542,-0.3830343,1.658776,-0.07741952,0.1134573,1.693053,0.009167383,-0.3760431,1.631179,-0.1314919,-0.1266435,1.697973,0.2798292,0.1781012,1.431709,NA,NA,NotTracked,Unknown,
-0.8935547,0.3398438,-0.3457031,0.9277344,-0.3657227,0.09228516,-21,11,13,6,5,3,8,0,1,1,-4,-2,-1,-1,-3,-1,7,7,7,-3.5,-3.5,-3.5,8.770081,6.7014,8.68018,2.821266,3.109293,7.37098,-0.1248601,-0.440227,1.601996,0.1206137,0.4154681,1.517403,0.09275242,0.3906098,1.675818,-0.1679852,-0.4290084,1.608174,0.08862327,0.3855273,1.547616,0.0896072,-0.06244431,1.691374,0.08721924,-0.3827304,1.658886,-0.0775425,0.1134011,1.693216,0.008985996,-0.3757583,1.631269,-0.1315892,-0.1266807,1.697989,0.2795628,0.1789448,1.431979,NA,NA,NotTracked,Unknown,
-0.8920898,0.2954102,-0.4550781,0.9223633,-0.3598633,0.08740234,-46,-11,-9,-7,-4,5,-1,21,-18,-12,-2,0,-1,0,-1,-3,-0.0625,-0.0625,-0.0625,-2.75,-2.75,-2.75,8.806359,6.692395,8.71965,2.821095,3.108917,7.368621,-0.125131,-0.4380305,1.602738,0.1187284,0.417605,1.523159,0.09270363,0.3906038,1.675718,-0.1665185,-0.4461679,1.606,0.08002497,0.3828112,1.550038,0.08902533,-0.06247091,1.691801,0.08686811,-0.3826791,1.65906,-0.07766876,0.1133702,1.693362,0.008585772,-0.3757262,1.631435,-0.1317893,-0.1267096,1.698153,0.2793929,0.1797563,1.432433,NA,NA,NotTracked,Unknown,
-0.8920898,0.2954102,-0.4550781,0.925293,-0.3657227,0.08837891,-9,-5,-6,-3,-2,-2,-5,-23,0,1,0,-1,0,-1,-4,-2,-0.0625,-0.0625,-0.0625,-4.125,-4.125,-4.125,8.806359,6.692395,8.71965,2.820064,3.109012,7.365449,-0.1250398,-0.4381467,1.60322,0.1164992,0.4201325,1.525305,0.09265514,0.3905994,1.6757,-0.1708663,-0.4218093,1.615857,0.08424498,0.3824149,1.549965,0.08879529,-0.0623936,1.692163,0.0868114,-0.3826135,1.659186,-0.07784062,0.1132334,1.693623,0.008519758,-0.3757031,1.631541,-0.1320109,-0.1265076,1.698432,0.2787757,0.1814318,1.433221,NA,NA,NotTracked,Unknown,
-0.8515625,0.2299805,-0.4091797,0.9287109,-0.3632813,0.08300781,17,-1,3,-5,-3,-15,-13,19,-3,8,0,1,0,-1,0,-1,8.4375,8.4375,8.4375,0.125,0.125,0.125,8.816094,6.688451,8.723546,2.821119,3.111534,7.363582,-0.1256557,-0.4379158,1.602209,0.1175686,0.4192219,1.520963,0.09230232,0.3905027,1.675732,-0.1698664,-0.4321319,1.615185,0.08011644,0.3822494,1.549755,0.08851143,-0.06209652,1.692343,0.08654678,-0.382125,1.659288,-0.0781233,0.1132004,1.693887,0.008219129,-0.3752043,1.631521,-0.1325878,-0.1261045,1.698305,0.2787379,0.1826972,1.433744,NA,NA,NotTracked,Unknown,
-0.8515625,0.2299805,-0.4091797,0.9296875,-0.3608398,0.08203125,-14,2,3,0,1,-9,0,10,3,1,-1,-2,-1,-1,1,-1,8.4375,8.4375,8.4375,1.875,1.875,1.875,8.816094,6.688451,8.723546,2.822423,3.113165,7.363417,-0.1255918,-0.4382525,1.601914,0.1162488,0.4184658,1.524554,0.09208988,0.3905683,1.675826,-0.169645,-0.4325953,1.61104,0.09821966,0.3735702,1.552421,0.08839336,-0.06199399,1.692501,0.08656596,-0.3819854,1.65935,-0.07819562,0.1131482,1.694048,0.008187654,-0.3751165,1.63155,-0.1330008,-0.1257651,1.698307,0.2783591,0.1839181,1.434095,NA,NA,NotTracked,Unknown,
-0.8959961,0.3569336,-0.3286133,0.925293,-0.3535156,0.09130859,6,0,-1,1,-1,-3,0,61,3,-4,-1,0,-3,-2,-2,0,4.1875,4.1875,4.1875,-1.75,-1.75,-1.75,8.776179,6.686864,8.672239,2.821196,3.114982,7.364246,-0.1267737,-0.4382538,1.601795,0.1167944,0.4168835,1.52457,0.09196343,0.3905156,1.675928,-0.1699327,-0.4375036,1.610753,0.09508579,0.372665,1.553245,0.08807023,-0.06202396,1.692704,0.08646345,-0.3819674,1.659412,-0.07843395,0.1130752,1.694159,0.008085526,-0.3751091,1.631609,-0.1332976,-0.1258549,1.698385,0.2784547,0.1841788,1.434258,NA,NA,NotTracked,Unknown,
-0.8867188,0.3344727,-0.3647461,0.9174805,-0.355957,0.08447266,37,4,1,-1,-3,2,4,54,3,-3,-2,-3,-1,-1,0,0,0.25,0.25,0.25,-1,-1,-1,8.781807,6.684999,8.678145,2.816573,3.116232,7.366919,-0.1268488,-0.4388448,1.601289,0.1158994,0.4188049,1.527036,0.09180408,0.3902786,1.676061,-0.1727914,-0.4382934,1.620713,0.07984868,0.3783256,1.552491,0.08784267,-0.06196931,1.69289,0.0863753,-0.3819422,1.659502,-0.0785611,0.1129074,1.694253,0.008023418,-0.375089,1.631665,-0.1334009,-0.1258571,1.698428,0.2782526,0.1845785,1.434452,NA,NA,NotTracked,Unknown,
-0.8725586,0.3208008,-0.3398438,0.9213867,-0.3549805,0.08496094,28,1,-2,-2,-1,-2,1,-6,0,1,0,-2,0,-1,-1,0,1,1,1,-1.8125,-1.8125,-1.8125,8.783665,6.690631,8.679337,2.814999,3.116275,7.367932,-0.1264808,-0.4412234,1.599968,0.1158242,0.4180027,1.526563,0.09162828,0.3902555,1.676158,-0.1736879,-0.42669,1.618906,0.0813345,0.3778825,1.553529,0.08774204,-0.06188361,1.692979,0.08634613,-0.3818465,1.65957,-0.0787616,0.1128523,1.694419,0.008012821,-0.3750231,1.631683,-0.1338399,-0.1257243,1.698511,0.2780682,0.1848702,1.434722,NA,NA,NotTracked,Unknown,
-0.8725586,0.3208008,-0.3398438,0.9316406,-0.3608398,0.08496094,-3,2,1,0,1,-1,-3,34,-4,-9,-2,2,0,-1,-2,-1,1,1,1,-1.0625,-1.0625,-1.0625,8.783665,6.690631,8.679337,2.811446,3.116589,7.370227,-0.1276058,-0.4421638,1.599524,0.1143744,0.4188815,1.526615,0.09139849,0.3902167,1.676158,-0.1718169,-0.4357779,1.609552,0.08950158,0.3786951,1.551441,0.08767679,-0.0617751,1.69308,0.08623295,-0.3816847,1.659629,-0.0788499,0.1129227,1.694427,0.007910027,-0.3748352,1.631658,-0.1341238,-0.1253366,1.698293,0.2781325,0.1849933,1.434974,NA,NA,NotTracked,Unknown,
-0.8823242,0.3359375,-0.3139648,0.9287109,-0.3554688,0.09277344,-8,4,3,0,-2,-4,-3,2,3,-2,0,-2,-2,-2,-3,-2,2.8125,2.8125,2.8125,0.5,0.5,0.5,8.785286,6.697008,8.677893,2.812828,3.117039,7.369832,-0.1278471,-0.4416732,1.600407,0.117543,0.4176926,1.526875,0.09126279,0.3902625,1.676314,-0.1695702,-0.444166,1.603111,0.07313007,0.3788026,1.554,0.08751354,-0.0616222,1.693257,0.08609247,-0.3815299,1.659712,-0.07917943,0.1130181,1.694848,0.007791836,-0.3746791,1.631657,-0.1345125,-0.1252262,1.698295,0.2776292,0.1857494,1.435233,NA,NA,NotTracked,Unknown,
-0.8823242,0.3359375,-0.3139648,0.9189453,-0.3613281,0.08398438,-4,-5,-3,-2,-3,-23,-1,2,-3,-2,-2,-2,-2,0,-3,-1,2.8125,2.8125,2.8125,0.3125,0.3125,0.3125,8.785286,6.697008,8.677893,2.814039,3.117579,7.369468,-0.1278953,-0.4413329,1.598375,0.1149101,0.4180502,1.5266,0.09093644,0.3902652,1.676419,-0.1700965,-0.4436588,1.602188,0.08200502,0.3778196,1.552319,0.08739421,-0.0615405,1.693282,0.08594585,-0.3813887,1.65969,-0.07926502,0.11308,1.694882,0.007682499,-0.3745036,1.631616,-0.1345915,-0.1252853,1.698193,0.2775737,0.1859725,1.435331,NA,NA,NotTracked,Unknown,
-0.8789063,0.3208008,-0.3613281,0.9189453,-0.3574219,0.08789063,-4,-1,1,2,-1,-8,-10,1,8,-2,-3,-1,-1,-2,2,-1,0.9375,0.9375,0.9375,1.0625,1.0625,1.0625,8.79516,6.69779,8.6892,2.814857,3.117565,7.369352,-0.1283375,-0.4415407,1.599454,0.1151762,0.4174163,1.527746,0.09083065,0.3901252,1.676721,-0.1707679,-0.4386047,1.608859,0.08117187,0.3777416,1.553473,0.08724362,-0.06158411,1.693367,0.08574149,-0.3814372,1.659734,-0.0793722,0.1131209,1.69497,0.007480243,-0.3745413,1.63167,-0.1347121,-0.1252851,1.698091,0.2773882,0.1861497,1.435573,NA,NA,NotTracked,Unknown,
-0.8891602,0.340332,-0.3408203,0.9228516,-0.3603516,0.08642578,0,1,0,-3,-1,-6,17,2,-5,-2,2,0,-2,0,0,-3,2.0625,2.0625,2.0625,0.6875,0.6875,0.6875,8.796402,6.698986,8.68788,2.815755,3.117129,7.369991,-0.1283775,-0.4408031,1.599788,0.1162144,0.4175043,1.528352,0.09052132,0.3903635,1.677233,-0.1709904,-0.4370219,1.607312,0.07653167,0.3781817,1.555184,0.08676787,-0.06155812,1.693797,0.08542119,-0.3814427,1.659922,-0.07955359,0.1132389,1.695124,0.007195173,-0.3745076,1.631791,-0.1349682,-0.1253785,1.698166,0.2774352,0.1861214,1.435857,NA,NA,NotTracked,Unknown,
-0.8681641,0.3398438,-0.3251953,0.9243164,-0.3579102,0.09179688,31,-1,-2,0,-2,-10,-14,12,-4,-8,-3,0,0,0,-1,-2,-0.0625,-0.0625,-0.0625,0.1875,0.1875,0.1875,8.79564,6.69996,8.687556,2.816828,3.115411,7.3696,-0.1285067,-0.4417893,1.600356,0.1166841,0.4167046,1.527625,0.09026939,0.3905225,1.677475,-0.1677478,-0.4501741,1.599714,0.07907592,0.377212,1.55484,0.08667539,-0.06146176,1.693931,0.08531898,-0.3813405,1.659981,-0.07981184,0.1131919,1.695423,0.007113821,-0.3744146,1.631789,-0.1350436,-0.1254301,1.698279,0.2774543,0.1864816,1.43612,NA,NA,NotTracked,Unknown,
-0.8852539,0.3227539,-0.3374023,0.925293,-0.3574219,0.08935547,25,2,0,-2,-1,0,5,18,0,1,0,-1,0,0,-2,0,1.375,1.375,1.375,-0.8125,-0.8125,-0.8125,8.799981,6.701145,8.69303,2.818869,3.113517,7.367676,-0.1286556,-0.4418594,1.600792,0.1159207,0.4185525,1.528518,0.0900194,0.3906236,1.677637,-0.170597,-0.446093,1.606597,0.07206934,0.3773718,1.556257,0.08633095,-0.06142835,1.694082,0.08503372,-0.3812629,1.660088,-0.07992255,0.1132408,1.695545,0.006823303,-0.3743078,1.631889,-0.1353311,-0.1254047,1.698282,0.2772807,0.1865412,1.436281,NA,NA,NotTracked,Unknown,
-0.8720703,0.3266602,-0.3500977,0.9243164,-0.3696289,0.09228516,-5,0,0,-2,-1,-7,-11,3,-2,-4,-1,-2,-2,-1,0,2,-0.6875,-0.6875,-0.6875,-0.125,-0.125,-0.125,8.797075,6.700827,8.691125,2.821285,3.111854,7.364541,-0.1287966,-0.4417409,1.600837,0.1144068,0.4190125,1.528875,0.08990499,0.3907537,1.677662,-0.1713577,-0.442732,1.608986,0.07936214,0.3764572,1.554625,0.08624436,-0.06132172,1.694205,0.08481048,-0.3810975,1.660177,-0.08000308,0.1132395,1.695644,0.00662335,-0.3741822,1.63197,-0.1355372,-0.1253157,1.698351,0.276998,0.186833,1.436412,NA,NA,NotTracked,Unknown,
-0.8720703,0.3266602,-0.3500977,0.9272461,-0.3676758,0.08691406,-23,-2,-4,-4,-2,-1,10,-64,-1,-4,-2,1,-2,0,-2,-1,-0.6875,-0.6875,-0.6875,2.1875,2.1875,2.1875,8.797075,6.700827,8.691125,2.82347,3.111497,7.363613,-0.1283311,-0.4410381,1.600873,0.1146199,0.4186127,1.527712,0.08978894,0.3908193,1.677738,-0.1706717,-0.4595738,1.6105,0.0783273,0.3769278,1.554734,0.0860713,-0.06125738,1.694273,0.08463386,-0.3810087,1.660202,-0.08008705,0.1132735,1.695739,0.006398739,-0.3740756,1.631992,-0.135582,-0.1253784,1.69839,0.2766092,0.187229,1.436504,NA,NA,NotTracked,Unknown,
-0.8759766,0.3432617,-0.3374023,0.925293,-0.3613281,0.08154297,-14,-9,-5,-3,-3,3,2,-1,-2,-2,0,-2,-2,-1,-2,-1,0.0625,0.0625,0.0625,0.6875,0.6875,0.6875,8.796915,6.702487,8.690557,2.825958,3.110603,7.362238,-0.1284857,-0.4423127,1.60084,0.1145015,0.4172553,1.529715,0.08957897,0.3908993,1.677866,-0.1700827,-0.4481076,1.606994,0.1030853,0.3693539,1.56275,0.08578563,-0.06120955,1.694363,0.08416227,-0.3809186,1.660362,-0.0802229,0.1134021,1.695856,0.005923993,-0.3739568,1.632191,-0.1357266,-0.1254402,1.698441,0.2764459,0.1873419,1.436622,NA,NA,NotTracked,Unknown,
-0.8759766,0.3369141,-0.3374023,0.9194336,-0.3720703,0.08837891,17,-1,-3,-2,-1,1,-2,27,-16,-3,0,0,1,0,-2,-4,-0.5625,-0.5625,-0.5625,-0.4375,-0.4375,-0.4375,8.796111,6.703791,8.690207,2.826589,3.111021,7.361751,-0.1279073,-0.4411329,1.602663,0.1123563,0.4187786,1.53188,0.08947145,0.3908948,1.6779,-0.172806,-0.4294036,1.614133,0.1137354,0.3701015,1.567222,0.085516,-0.06115969,1.694533,0.08399351,-0.3808931,1.660464,-0.08039089,0.1135475,1.696059,0.005718932,-0.3739049,1.632285,-0.1358832,-0.1254727,1.698555,0.2763407,0.1873616,1.436888,NA,NA,NotTracked,Unknown,
-0.8725586,0.3325195,-0.3349609,0.9267578,-0.3666992,0.08203125,-16,-6,-3,-1,-1,5,2,-18,4,0,-2,-1,-1,-1,-2,0,1.625,1.625,1.625,-0.5,-0.5,-0.5,8.795531,6.705382,8.688346,2.824909,3.110381,7.363564,-0.1281295,-0.4409221,1.601956,0.1141476,0.4177777,1.530325,0.08938774,0.3909236,1.677888,-0.1713072,-0.4409598,1.610837,0.09714431,0.3698047,1.561105,0.08539523,-0.06110145,1.694615,0.08394248,-0.3807571,1.660553,-0.08050714,0.1136012,1.696138,0.005693578,-0.3737782,1.63236,-0.1359689,-0.1256019,1.698742,0.2758665,0.1874915,1.437001,NA,NA,NotTracked,Unknown,
-0.8867188,0.3300781,-0.3398438,0.9223633,-0.3720703,0.08691406,27,-2,0,0,1,0,8,83,-1,-1,-5,1,-2,-2,-2,-4,-2.1875,-2.1875,-2.1875,-1.125,-1.125,-1.125,8.793021,6.705204,8.686972,2.822534,3.110449,7.365097,-0.128127,-0.4414983,1.601291,0.1128531,0.4171886,1.529585,0.08918282,0.3909332,1.677871,-0.1713994,-0.4393083,1.609934,0.0788297,0.3723199,1.553683,0.08531639,-0.06109731,1.69461,0.08359084,-0.3807105,1.660581,-0.08051842,0.113619,1.696125,0.005248876,-0.3737185,1.632384,-0.1360709,-0.1254394,1.698777,0.2756337,0.1877159,1.43705,NA,NA,NotTracked,Unknown,
-0.8774414,0.3222656,-0.3354492,0.9267578,-0.3666992,0.09423828,9,-3,-5,-4,-2,11,15,0,2,0,0,-1,-2,0,-3,-1,-2.6875,-2.6875,-2.6875,-1,-1,-1,8.790359,6.705008,8.685727,2.82283,3.111047,7.364667,-0.1284277,-0.4414989,1.601666,0.1119294,0.4170278,1.529682,0.08901941,0.391038,1.677824,-0.1728877,-0.4312647,1.613173,0.09358544,0.3704886,1.557045,0.08514673,-0.06111826,1.694635,0.08335661,-0.3807387,1.660611,-0.08068305,0.1136595,1.69621,0.005088979,-0.3737293,1.632397,-0.136153,-0.1253752,1.698756,0.2755718,0.1876598,1.437126,NA,NA,NotTracked,Unknown,
-0.8774414,0.3222656,-0.3354492,0.9287109,-0.3632813,0.09814453,1,-3,-1,-2,-6,-12,-6,-23,-1,-6,-5,-1,-1,-2,1,-2,-2.6875,-2.6875,-2.6875,-0.9375,-0.9375,-0.9375,8.790359,6.705008,8.685727,2.823115,3.111296,7.364246,-0.1292147,-0.4420596,1.602133,0.1124666,0.4173539,1.530007,0.08883557,0.3911384,1.677809,-0.1722084,-0.4359951,1.610776,0.1074175,0.3699087,1.562647,0.08504646,-0.06114486,1.694646,0.08304244,-0.3807168,1.660693,-0.08092323,0.1137877,1.696233,0.00481411,-0.3736992,1.632539,-0.1362338,-0.1253002,1.698781,0.2755618,0.1875191,1.4371,NA,NA,NotTracked,Unknown,
-0.8837891,0.331543,-0.3305664,0.9291992,-0.362793,0.09228516,19,-2,-3,-2,0,-4,-4,1,1,-2,0,0,-1,0,0,-1,-1,-1,-1,0.25,0.25,0.25,8.787339,6.704497,8.683123,2.82352,3.112642,7.364418,-0.1293612,-0.4421435,1.601887,0.1110272,0.4208175,1.529361,0.08852138,0.3912606,1.677727,-0.1726834,-0.4344519,1.61143,0.09678242,0.3722686,1.556777,0.08496413,-0.06113745,1.694673,0.08296391,-0.3806971,1.66073,-0.08126781,0.1136936,1.696385,0.004755237,-0.3736793,1.632543,-0.1365904,-0.1251158,1.698773,0.2756039,0.1873091,1.437092,NA,NA,NotTracked,Unknown,
-0.8837891,0.331543,-0.3305664,0.921875,-0.3598633,0.08447266,21,5,3,2,1,5,0,51,-3,-6,-1,3,-1,-1,-1,-2,-1,-1,-1,-0.25,-0.25,-0.25,8.787339,6.704497,8.683123,2.82239,3.113253,7.365976,-0.1293081,-0.4410457,1.599851,0.1107724,0.4199463,1.528812,0.08840327,0.3911974,1.677604,-0.1723795,-0.440185,1.609459,0.07208621,0.3760107,1.553765,0.08491488,-0.06112003,1.694588,0.08290864,-0.3806784,1.660677,-0.0813494,0.1137273,1.69635,0.004684017,-0.3736739,1.632448,-0.1368684,-0.1249326,1.69856,0.2755366,0.1872589,1.436942,NA,NA,NotTracked,Unknown,
-0.871582,0.3383789,-0.3291016,0.9248047,-0.3549805,0.08935547,8,-4,-1,-3,-1,1,-4,-53,0,0,-2,-1,0,-1,-2,-2,-0.3125,-0.3125,-0.3125,0.875,0.875,0.875,8.781942,6.704216,8.679569,2.823467,3.114234,7.366032,-0.1299403,-0.4399567,1.599996,0.1106502,0.4192307,1.528531,0.08826095,0.3911912,1.677605,-0.1708585,-0.4587768,1.602,0.07325586,0.3750452,1.552954,0.08489496,-0.06113356,1.694567,0.08285995,-0.3806819,1.660632,-0.08139949,0.1137356,1.696323,0.004599851,-0.3736348,1.63231,-0.1369822,-0.1249187,1.698499,0.2752095,0.1874822,1.436962,NA,NA,NotTracked,Unknown,
-0.871582,0.3383789,-0.3291016,0.9243164,-0.3549805,0.08642578,12,1,-4,-3,-4,-3,-4,-48,1,3,0,-1,-2,0,1,-1,-0.3125,-0.3125,-0.3125,-0.5625,-0.5625,-0.5625,8.781942,6.704216,8.679569,2.822973,3.114128,7.367085,-0.1300534,-0.4414516,1.600274,0.1102717,0.4196083,1.529604,0.08814521,0.3911523,1.677529,-0.1735754,-0.4311808,1.605476,0.09757207,0.3727653,1.555667,0.08487375,-0.06111401,1.694563,0.08282705,-0.3806379,1.660634,-0.08152095,0.1137886,1.696387,0.0045856,-0.3735919,1.632325,-0.137312,-0.1250501,1.6984,0.2752071,0.1873779,1.436913,NA,NA,NotTracked,Unknown,
-0.890625,0.3295898,-0.3413086,0.9223633,-0.3608398,0.08642578,-11,-5,-1,-1,-2,2,-5,-18,2,-2,-2,1,0,-1,-1,-3,-0.125,-0.125,-0.125,-0.5,-0.5,-0.5,8.784123,6.705428,8.683898,2.822115,3.114199,7.367804,-0.1303786,-0.4408398,1.601232,0.1120513,0.4176471,1.528499,0.08805928,0.3912204,1.677554,-0.1784226,-0.4164765,1.6164,0.09869956,0.3724395,1.557238,0.08479898,-0.06108553,1.694514,0.08274537,-0.3805791,1.660593,-0.08155953,0.1138333,1.696392,0.004496384,-0.3735116,1.632301,-0.1374879,-0.1249704,1.698456,0.2748373,0.1875913,1.436896,NA,NA,NotTracked,Unknown,
-0.890625,0.3295898,-0.3413086,0.9291992,-0.3540039,0.09033203,-17,-6,-2,-2,-2,-2,-1,-15,9,-7,-3,-1,-2,-1,-2,-1,-0.125,-0.125,-0.125,0.4375,0.4375,0.4375,8.784123,6.705428,8.683898,2.823043,3.11408,7.366874,-0.1301727,-0.4413527,1.600153,0.1118648,0.4195743,1.527972,0.08798205,0.3912339,1.677462,-0.1748375,-0.4390284,1.6102,0.1039008,0.3713084,1.558417,0.08475637,-0.0610931,1.694475,0.08271731,-0.3805902,1.660564,-0.08163188,0.1138085,1.696358,0.004483978,-0.3735222,1.632289,-0.1376984,-0.1250668,1.698447,0.2747642,0.1877405,1.436854,NA,NA,NotTracked,Unknown,
-0.8803711,0.3354492,-0.3325195,0.9228516,-0.3554688,0.08789063,4,2,3,2,2,-3,0,8,-4,0,0,0,-1,-1,-3,-1,-0.875,-0.875,-0.875,-0.5625,-0.5625,-0.5625,8.785631,6.707117,8.687109,2.823901,3.11401,7.366155,-0.1302095,-0.4406077,1.600307,0.1112098,0.4201934,1.528585,0.08789309,0.3912738,1.677425,-0.1761329,-0.4455134,1.614667,0.09717584,0.3723691,1.557343,0.08466139,-0.06102423,1.694348,0.08263298,-0.380461,1.660431,-0.08164231,0.1138109,1.696361,0.004390554,-0.3734061,1.632122,-0.1378711,-0.1248002,1.698514,0.2745471,0.1878626,1.436726,NA,NA,NotTracked,Unknown,
-0.8803711,0.3354492,-0.3325195,0.9174805,-0.3642578,0.09130859,-30,-6,-2,1,-1,-1,-1,-12,-3,-3,-1,1,0,-1,0,0,-0.875,-0.875,-0.875,-0.5625,-0.5625,-0.5625,8.785631,6.707117,8.687109,2.824759,3.113939,7.365437,-0.1304476,-0.4413353,1.599654,0.1114622,0.4192899,1.529201,0.08781484,0.3913262,1.677411,-0.1738116,-0.4454626,1.607385,0.1009675,0.3721929,1.555991,0.08465322,-0.06102759,1.694313,0.08260057,-0.3804235,1.660377,-0.08167035,0.1138547,1.696334,0.004351161,-0.3733397,1.632022,-0.1380586,-0.1245595,1.698335,0.2743562,0.1881017,1.43669,NA,NA,NotTracked,Unknown,
-0.8803711,0.3354492,-0.3325195,0.9316406,-0.359375,0.09082031,15,5,1,0,0,3,8,-1,5,5,0,-1,-1,-2,-1,1,-0.875,-0.875,-0.875,-0.125,-0.125,-0.125,8.785631,6.707117,8.687109,2.825439,3.113612,7.364755,-0.1306473,-0.4408697,1.599491,0.1111974,0.4199359,1.529421,0.0877561,0.3912996,1.677401,-0.1755257,-0.4368495,1.611995,0.09492308,0.3725457,1.556099,0.08453219,-0.06105892,1.694276,0.08242109,-0.380381,1.660355,-0.081938,0.1140009,1.696273,0.004191127,-0.3732894,1.631974,-0.1381113,-0.1246043,1.698334,0.274473,0.1880874,1.436661,NA,NA,NotTracked,Unknown,
-0.8769531,0.3291016,-0.3457031,0.9272461,-0.3701172,0.08837891,-12,1,1,0,-2,-9,-10,5,0,-1,-2,-2,-1,1,2,-1,-0.375,-0.375,-0.375,-1.6875,-1.6875,-1.6875,8.785841,6.705457,8.689025,2.826736,3.113636,7.362194,-0.129959,-0.4414211,1.600222,0.1114134,0.4177985,1.528743,0.08763523,0.3913019,1.677388,-0.1751475,-0.4378351,1.61154,0.0700032,0.3771484,1.554932,0.08445953,-0.06106909,1.694209,0.08228511,-0.3803962,1.660302,-0.08205115,0.1140056,1.696239,0.004043388,-0.3733038,1.631892,-0.1381277,-0.1245659,1.698302,0.2740764,0.1884921,1.436598,NA,NA,NotTracked,Unknown,
-0.8769531,0.3291016,-0.3457031,0.9282227,-0.3676758,0.08789063,-13,1,3,1,1,3,6,8,8,0,-2,-1,-2,-1,0,-2,-0.375,-0.375,-0.375,-1.25,-1.25,-1.25,8.785841,6.705457,8.689025,2.82706,3.113832,7.361171,-0.1299961,-0.4413252,1.599952,0.1099434,0.4195915,1.528539,0.08751073,0.391314,1.677256,-0.1722517,-0.429545,1.603423,0.09200753,0.3722164,1.554963,0.08443742,-0.06107684,1.694161,0.08224642,-0.3804217,1.660218,-0.08232299,0.1139231,1.696188,0.004017435,-0.3733315,1.631863,-0.1381979,-0.1245872,1.698263,0.2743195,0.1882369,1.436537,NA,NA,NotTracked,Unknown,
-0.8837891,0.3330078,-0.3364258,0.9228516,-0.3666992,0.08984375,15,2,1,-1,1,-1,0,-10,0,3,0,-2,0,-1,2,0,-0.875,-0.875,-0.875,-0.125,-0.125,-0.125,8.784104,6.704822,8.68599,2.82775,3.113853,7.360482,-0.1302301,-0.4414617,1.599909,0.1116127,0.4197955,1.528401,0.08735842,0.3913535,1.677193,-0.1688688,-0.464887,1.603833,0.09898207,0.3722672,1.560273,0.08428414,-0.06110992,1.69406,0.08199293,-0.3804517,1.660115,-0.08238468,0.113897,1.696165,0.003744354,-0.3733692,1.631792,-0.1382865,-0.1244944,1.698067,0.2742587,0.1882289,1.436554,NA,NA,NotTracked,Unknown,
-0.8837891,0.3330078,-0.3364258,0.9228516,-0.3666992,0.08984375,15,2,1,-1,1,-1,0,-10,0,3,0,-2,0,-1,2,0,-0.875,-0.875,-0.875,-0.125,-0.125,-0.125,8.784104,6.704822,8.68599,2.82775,3.113853,7.360482,-0.1300618,-0.4408813,1.599039,0.1100782,0.4205934,1.528424,0.08732095,0.3913788,1.677134,-0.1752707,-0.4395044,1.6155,0.08932474,0.3736371,1.554898,0.08418107,-0.06110414,1.693966,0.08193421,-0.3804476,1.660039,-0.08248104,0.1138421,1.696083,0.003693753,-0.3733602,1.631716,-0.1383924,-0.1246207,1.697961,0.2741182,0.1884596,1.436402,NA,NA,NotTracked,Unknown,
-0.8837891,0.3330078,-0.3364258,0.9262695,-0.3608398,0.08105469,-5,3,2,3,2,2,7,22,1,-2,0,-1,0,-1,-4,-4,-0.875,-0.875,-0.875,-1.3125,-1.3125,-1.3125,8.784104,6.704822,8.68599,2.826564,3.112972,7.361239,-0.1299,-0.4415614,1.599498,0.1108656,0.4207053,1.528385,0.08726313,0.3913923,1.677098,-0.1725681,-0.4318248,1.604455,0.109534,0.3738642,1.561333,0.08408497,-0.06111544,1.69392,0.08189642,-0.3804465,1.659997,-0.0825208,0.1138477,1.696068,0.003647398,-0.3733652,1.63167,-0.1385228,-0.1247025,1.697926,0.2740964,0.1883451,1.436352,NA,NA,NotTracked,Unknown,
-0.8837891,0.3330078,-0.3364258,0.9243164,-0.3652344,0.08496094,12,0,-1,-2,3,5,-2,-15,0,4,1,-3,0,1,-2,-1,-0.875,-0.875,-0.875,-1.5,-1.5,-1.5,8.784104,6.704822,8.68599,2.824231,3.112635,7.362165,-0.1304314,-0.4411099,1.598593,0.110203,0.4219263,1.528704,0.08716172,0.3913984,1.676996,-0.1741274,-0.4332867,1.607394,0.1115808,0.3733193,1.562714,0.08409666,-0.06112503,1.69379,0.08189982,-0.3804426,1.659956,-0.08263826,0.1138596,1.695916,0.003658852,-0.3733766,1.631646,-0.1386437,-0.1245769,1.697748,0.2738455,0.1884962,1.436284,NA,NA,NotTracked,Unknown,
