ALX,ALY,ALZ,ARX,ARY,ARZ,EMG0L,EMG1L,EMG2L,EMG3L,EMG4L,EMG5L,EMG6L,EMG7L,EMG0R,EMG1R,EMG2R,EMG3R,EMG4R,EMG5R,EMG6R,EMG7R,GLX,GLY,GLZ,GRX,GRY,GRZ,ORL,OPL,OYL,ORR,OPR,OYR,LHNX,LHNY,LHNZ,RHNX,RHNY,RHNZ,HX,HY,HZ,LTX,LTY,LTZ,RTX,RTY,RTZ,SpineMidX,SpineMidY,SpineMidZ,SpineBaseX,SpineBaseY,SpineBaseZ,ShoulderLeftX,ShoulderLeftY,ShoulderLeftZ,ShoulderRightX,ShoulderRightY,ShoulderRightZ,ElbowLeftX,ElbowLeftY,ElbowLeftZ,ElbowRightX,ElbowRightY,ElbowRightZ,Myo_Pose_left,Myo_Pose_Right,Kinect_pose_left,Kinect_pose_right
0.9331055,0.284668,0.05175781,0.9418945,-0.3261719,0.08740234,-1,-2,-1,-1,0,0,-1,0,-2,0,-2,-2,-1,-1,-2,-1,1.4375,1.4375,1.4375,0.1875,0.1875,0.1875,7.216582,2.984007,6.083036,2.887692,3.044886,7.851995,-0.1206796,-0.4455353,1.582274,0.2803882,-0.4431315,1.556307,0.09131937,0.4081851,1.660886,-0.07596785,-0.4294909,1.54664,0.2370288,-0.4367679,1.525338,0.09293842,-0.06269552,1.669647,0.09289434,-0.3874685,1.639337,-0.07980587,0.115903,1.650435,0.01512586,-0.3796085,1.606964,-0.133931,-0.136739,1.67124,0.3118335,-0.1462056,1.643461,NA,NA,NotTracked,NotTracked,
0.9306641,0.2827148,0.05664063,0.9404297,-0.328125,0.07910156,-2,-1,-1,0,-1,-3,1,0,-1,-1,1,0,-1,-1,1,0,0.75,0.75,0.75,0.25,0.25,0.25,7.215593,2.984398,6.084188,2.887692,3.044886,7.851995,-0.1202626,-0.44511,1.581923,0.2801811,-0.4432223,1.555803,0.0912756,0.4081594,1.66096,-0.07582481,-0.4284685,1.546893,0.2370752,-0.4386278,1.524748,0.09297583,-0.062704,1.669717,0.0929426,-0.3874767,1.639476,-0.07980413,0.1159098,1.650446,0.0151903,-0.3796334,1.607165,-0.1340609,-0.1365841,1.671438,0.3118877,-0.1462512,1.643484,NA,NA,NotTracked,NotTracked,
0.9277344,0.2807617,0.05664063,0.9399414,-0.3237305,0.08105469,-2,1,0,-1,-2,0,-1,-1,-2,-1,-2,-1,0,-2,0,-1,0.3125,0.3125,0.3125,-0.4375,-0.4375,-0.4375,7.215593,2.984398,6.084188,2.887692,3.044886,7.851995,-0.1201984,-0.4457501,1.582316,0.2803851,-0.4433718,1.555773,0.09127827,0.4081278,1.661023,-0.07571604,-0.429089,1.546795,0.2361454,-0.4413668,1.524172,0.09298185,-0.06271306,1.669792,0.0929305,-0.3874929,1.639592,-0.07979228,0.1159117,1.650458,0.01517658,-0.3796528,1.607282,-0.1340664,-0.1365569,1.671561,0.3119234,-0.1462056,1.643549,NA,NA,NotTracked,NotTracked,
0.9326172,0.2851563,0.05566406,0.9365234,-0.3286133,0.08496094,-1,-1,-2,-2,-1,-2,-1,-1,0,-2,-1,-1,-1,-2,-2,0,1.375,1.375,1.375,-0.75,-0.75,-0.75,7.21508,2.984056,6.086422,2.887226,3.044356,7.851719,-0.120377,-0.4460953,1.582348,0.2807594,-0.4451056,1.554678,0.09125727,0.4080854,1.661088,-0.07586052,-0.4260433,1.547997,0.2376941,-0.4292657,1.527418,0.09300165,-0.06271874,1.669832,0.09293175,-0.3874963,1.639625,-0.07979267,0.1159046,1.65046,0.01517452,-0.3796584,1.607318,-0.1339013,-0.1456817,1.670041,0.3119068,-0.146229,1.643562,NA,NA,NotTracked,NotTracked,
0.9321289,0.2939453,0.05664063,0.9365234,-0.331543,0.08203125,-2,-1,-1,0,-1,-2,0,-2,1,-1,0,-1,-2,-3,-1,0,0.3125,0.3125,0.3125,1.375,1.375,1.375,7.216074,2.984411,6.08554,2.889063,3.045049,7.8512,-0.1203745,-0.4459927,1.58286,0.2882846,-0.4330204,1.559698,0.09125029,0.4080653,1.661116,-0.07628212,-0.4181454,1.550535,0.2502086,-0.4350229,1.53,0.09300328,-0.06272584,1.669897,0.09292956,-0.3875113,1.639727,-0.07978092,0.1159072,1.650489,0.01517313,-0.379666,1.607418,-0.1342294,-0.1444582,1.670507,0.311902,-0.146219,1.643607,NA,NA,NotTracked,NotTracked,
0.9311523,0.2856445,0.05419922,0.9360352,-0.331543,0.08007813,0,-3,-1,-1,1,1,-3,0,-1,1,-2,0,-1,1,-1,-1,0.6875,0.6875,0.6875,0.1875,0.1875,0.1875,7.216044,2.983997,6.086231,2.889007,3.045603,7.85115,-0.1208706,-0.4466891,1.582332,0.2801147,-0.4452871,1.555026,0.09125012,0.4080654,1.661116,-0.07596797,-0.4291326,1.546973,0.2390223,-0.4342051,1.526643,0.09301607,-0.06273385,1.669942,0.09291756,-0.3875226,1.639816,-0.07977234,0.1159053,1.650491,0.015154,-0.3796795,1.607555,-0.1341329,-0.1428978,1.670416,0.3119061,-0.1462196,1.643612,NA,NA,NotTracked,NotTracked,
0.9360352,0.2856445,0.05126953,0.9399414,-0.3291016,0.07910156,-1,-2,0,-2,-1,-1,1,-2,-1,-2,-1,-1,-2,0,-1,-1,1.75,1.75,1.75,-0.1875,-0.1875,-0.1875,7.215852,2.984185,6.086972,2.889007,3.045603,7.85115,-0.1208387,-0.4458615,1.583299,0.2798304,-0.4446651,1.555574,0.09123339,0.4079922,1.661139,-0.07603593,-0.4255581,1.547945,0.2379764,-0.4325335,1.526949,0.09302354,-0.06272448,1.670001,0.09290557,-0.3874995,1.639904,-0.07977279,0.1159099,1.650516,0.01515026,-0.3796508,1.607681,-0.1340819,-0.1417771,1.670796,0.3119116,-0.1462106,1.643619,NA,NA,NotTracked,NotTracked,
0.9335938,0.2939453,0.05419922,0.9335938,-0.3291016,0.08056641,-1,-1,2,-2,-2,-1,0,0,0,-2,-1,-1,-2,0,1,0,0.75,0.75,0.75,-0.8125,-0.8125,-0.8125,7.215475,2.984503,6.088109,2.888113,3.045187,7.852149,-0.1198527,-0.4454411,1.58247,0.2873702,-0.4328469,1.559715,0.09124544,0.4079608,1.661169,-0.07568396,-0.4232583,1.548376,0.2472828,-0.4307607,1.531537,0.09304661,-0.06271457,1.670059,0.09291188,-0.3874867,1.63995,-0.07976292,0.1159093,1.650542,0.01515253,-0.3796336,1.607751,-0.1341704,-0.1407973,1.671411,0.3118999,-0.1462184,1.643627,NA,NA,NotTracked,NotTracked,
0.9262695,0.2817383,0.05224609,0.9384766,-0.3300781,0.08300781,-1,0,-2,-1,-1,-2,-1,-1,-1,-2,0,-1,0,-3,-2,-1,0.75,0.75,0.75,-1.5,-1.5,-1.5,7.215734,2.984207,6.087997,2.887536,3.045678,7.850897,-0.1198959,-0.4458109,1.583243,0.2874489,-0.4326609,1.559563,0.09125889,0.4079198,1.661297,-0.07579823,-0.423672,1.549266,0.2454529,-0.4353929,1.529362,0.09306124,-0.0627211,1.670143,0.09292679,-0.3875006,1.640114,-0.07971998,0.1159251,1.65056,0.01515978,-0.3796428,1.608021,-0.1339795,-0.1393935,1.671834,0.3119028,-0.1462164,1.643667,NA,NA,NotTracked,NotTracked,
0.9223633,0.2768555,0.05126953,0.9370117,-0.3266602,0.07861328,-1,-2,0,-1,0,-1,-1,-1,0,0,-1,-1,-2,0,-1,-1,2.25,2.25,2.25,-0.3125,-0.3125,-0.3125,7.216236,2.983943,6.088735,2.887536,3.045678,7.850897,-0.1203445,-0.4459719,1.58373,0.2806477,-0.4450458,1.556441,0.09124317,0.4078985,1.661458,-0.07547693,-0.4273617,1.547955,0.2367778,-0.426007,1.527681,0.09311571,-0.06270238,1.670249,0.09297725,-0.387475,1.640261,-0.07970749,0.1159301,1.650584,0.01519569,-0.3796307,1.608107,-0.1339495,-0.1381375,1.672329,0.3119046,-0.1462308,1.643674,NA,NA,NotTracked,NotTracked,
0.9331055,0.2856445,0.05126953,0.9389648,-0.3227539,0.08251953,0,-1,-3,0,-2,-2,-1,-1,1,-1,-2,-1,-1,-2,2,1,2.1875,2.1875,2.1875,-0.6875,-0.6875,-0.6875,7.219286,2.983478,6.089081,2.887536,3.045678,7.850897,-0.1204988,-0.4467441,1.583085,0.2804809,-0.444788,1.555856,0.09124451,0.4078904,1.661488,-0.07470305,-0.4413393,1.546,0.2372012,-0.4245061,1.52803,0.09311061,-0.06272326,1.670321,0.09298307,-0.3875341,1.640401,-0.0796912,0.1159452,1.650596,0.01519897,-0.3796713,1.608226,-0.1340032,-0.1375001,1.672507,0.3119022,-0.1462195,1.643681,NA,NA,NotTracked,NotTracked,
0.940918,0.2822266,0.05615234,0.9384766,-0.328125,0.07470703,-1,-1,-1,0,0,-1,-2,-2,-2,-2,-1,0,-1,-2,0,1,-0.875,-0.875,-0.875,-0.25,-0.25,-0.25,7.219286,2.983478,6.089081,2.887536,3.045678,7.850897,-0.1205948,-0.4459177,1.582887,0.2878207,-0.4334685,1.559635,0.09124964,0.407892,1.661515,-0.07550465,-0.4314471,1.547471,0.2461803,-0.4319846,1.530415,0.09313218,-0.06273097,1.670372,0.09298301,-0.3875357,1.640473,-0.07968606,0.1159433,1.650617,0.01519681,-0.3796638,1.608288,-0.1340775,-0.137271,1.672606,0.311923,-0.1461865,1.643728,NA,NA,NotTracked,NotTracked,
0.9321289,0.2832031,0.04980469,0.9375,-0.3286133,0.08007813,-1,-1,-1,-1,-2,-1,0,1,-1,-2,-4,-3,0,0,-3,-1,-1.5625,-1.5625,-1.5625,0,0,0,7.218692,2.983227,6.088129,2.887536,3.045678,7.850897,-0.1206191,-0.4460382,1.583002,0.2881721,-0.4323619,1.560049,0.0912613,0.4078531,1.661612,-0.07574321,-0.4276094,1.548253,0.2485406,-0.4350019,1.531141,0.09313642,-0.06273896,1.670404,0.0929646,-0.3875388,1.640544,-0.07967834,0.1159318,1.65064,0.01516899,-0.3796519,1.608428,-0.1341029,-0.1369977,1.672629,0.3119184,-0.1461821,1.643764,NA,NA,NotTracked,NotTracked,
0.9345703,0.2832031,0.05810547,0.9321289,-0.3271484,0.08642578,-1,-1,-1,0,-3,-1,0,-2,-2,-1,0,-1,1,-1,0,1,-1.125,-1.125,-1.125,-0.75,-0.75,-0.75,7.216752,2.983407,6.088855,2.887536,3.045678,7.850897,-0.1205843,-0.4461043,1.582739,0.2809053,-0.4448842,1.555867,0.09125762,0.4078306,1.661663,-0.07513,-0.4334387,1.547192,0.236838,-0.4198962,1.528657,0.09315009,-0.06274505,1.670464,0.09297686,-0.3875422,1.64065,-0.0796838,0.1159321,1.65066,0.0151848,-0.3796519,1.60856,-0.1343956,-0.1372522,1.672375,0.3119082,-0.1461778,1.643768,NA,NA,NotTracked,NotTracked,
0.9316406,0.2851563,0.04345703,0.9335938,-0.331543,0.07763672,-1,-2,0,-1,-1,0,-1,0,0,-3,-2,-1,-1,0,0,-3,-0.4375,-0.4375,-0.4375,-1.25,-1.25,-1.25,7.216938,2.983276,6.088458,2.886487,3.046096,7.851237,-0.1205684,-0.445965,1.582633,0.2811227,-0.4451962,1.556025,0.09128655,0.4078009,1.66183,-0.07511197,-0.4310647,1.548051,0.2363414,-0.4433243,1.525512,0.09318063,-0.06275663,1.670641,0.0930377,-0.3875433,1.640926,-0.07967271,0.115926,1.650674,0.01525946,-0.3796601,1.608844,-0.134291,-0.1367132,1.672504,0.3119802,-0.1462022,1.643855,NA,NA,NotTracked,NotTracked,
0.9262695,0.2905273,0.04785156,0.9418945,-0.3232422,0.08349609,0,-1,-1,-1,0,-2,-2,0,-1,-2,3,-1,-1,-1,0,-2,-0.6875,-0.6875,-0.6875,0.4375,0.4375,0.4375,7.216678,2.983572,6.088571,2.886487,3.046096,7.851237,-0.1209057,-0.4456263,1.582875,0.281016,-0.4453712,1.556965,0.09128637,0.407768,1.661873,-0.07520938,-0.4288655,1.548422,0.2371961,-0.4232931,1.5295,0.09318766,-0.06278251,1.670708,0.09307542,-0.3876096,1.641024,-0.07965886,0.1159329,1.650696,0.01530179,-0.3797303,1.608931,-0.134253,-0.1366779,1.672557,0.312003,-0.1462822,1.643907,NA,NA,NotTracked,NotTracked,
0.9355469,0.2861328,0.05371094,0.9448242,-0.3203125,0.08642578,-1,-1,0,0,-1,-1,-2,-1,0,1,1,0,-2,-2,0,-1,-0.9375,-0.9375,-0.9375,-0.5,-0.5,-0.5,7.216938,2.983276,6.088458,2.886631,3.045957,7.851092,-0.1211778,-0.4457079,1.582423,0.2873262,-0.4325453,1.560037,0.09128073,0.4077487,1.661891,-0.07670721,-0.4223695,1.550934,0.246896,-0.4311877,1.531634,0.09319539,-0.06278712,1.670763,0.09309099,-0.3876224,1.641131,-0.07964696,0.1159382,1.650695,0.01531581,-0.3797504,1.609024,-0.1342652,-0.1366754,1.672546,0.3120049,-0.146284,1.643908,NA,NA,NotTracked,NotTracked,
0.9282227,0.284668,0.05419922,0.9418945,-0.3237305,0.07666016,-1,-2,0,2,2,1,-2,-2,-2,-1,1,-1,-2,-2,-1,-2,-0.5625,-0.5625,-0.5625,-0.1875,-0.1875,-0.1875,7.216909,2.982861,6.089151,2.886631,3.045957,7.851092,-0.1208516,-0.4460075,1.582169,0.2802402,-0.4453297,1.55679,0.09130407,0.4077077,1.661999,-0.07541559,-0.4283241,1.548685,0.2394895,-0.4308557,1.528839,0.09321498,-0.06277344,1.670817,0.09312177,-0.3876119,1.641192,-0.07966043,0.115926,1.650703,0.01532904,-0.3797492,1.609048,-0.1346949,-0.1435687,1.671219,0.3120353,-0.1462753,1.644101,NA,NA,NotTracked,NotTracked,
0.9306641,0.2773438,0.04931641,0.9370117,-0.3251953,0.08300781,0,-2,0,-2,1,0,0,-2,1,-2,-1,0,-1,-1,-1,-1,-0.375,-0.375,-0.375,0.125,0.125,0.125,7.216909,2.982861,6.089151,2.886631,3.045957,7.851092,-0.120924,-0.4457576,1.58281,0.280387,-0.4477887,1.55698,0.09127664,0.4077635,1.6622,-0.07567787,-0.4276721,1.548954,0.2374422,-0.4257175,1.528895,0.09328819,-0.06276313,1.6709,0.0932061,-0.3876044,1.641305,-0.07965681,0.1159189,1.650721,0.01540497,-0.379747,1.609146,-0.134907,-0.147566,1.669718,0.312077,-0.146436,1.644156,NA,NA,NotTracked,NotTracked,
0.9321289,0.2875977,0.05224609,0.9350586,-0.3232422,0.08349609,1,0,-2,1,-3,0,-1,0,-1,-1,2,-1,-1,0,-1,-3,-0.25,-0.25,-0.25,0.4375,0.4375,0.4375,7.216909,2.982861,6.089151,2.886631,3.045957,7.851092,-0.1207846,-0.4455971,1.582055,0.2802462,-0.4472862,1.555549,0.09128115,0.4077646,1.662218,-0.07512215,-0.4342141,1.547405,0.2382614,-0.4299172,1.527594,0.09331422,-0.06273522,1.67093,0.09324259,-0.3875473,1.641346,-0.07966126,0.1159254,1.650726,0.01542957,-0.3797138,1.60916,-0.1344234,-0.1430064,1.670388,0.3121045,-0.1464721,1.644153,NA,NA,NotTracked,NotTracked,
0.9287109,0.2880859,0.05078125,0.934082,-0.3286133,0.08398438,0,0,1,-1,-1,-1,-2,-2,0,-1,-3,-1,-2,-1,-1,-1,-0.6875,-0.6875,-0.6875,0.6875,0.6875,0.6875,7.216909,2.982861,6.089151,2.886631,3.045957,7.851092,-0.1205032,-0.4453945,1.58168,0.2802361,-0.4470119,1.555313,0.09129351,0.4077542,1.662193,-0.07535818,-0.4268788,1.548791,0.2387275,-0.4298809,1.528156,0.09332575,-0.06272654,1.67095,0.09324104,-0.3875354,1.641367,-0.07965435,0.1159244,1.650732,0.0154294,-0.3796995,1.609178,-0.1343971,-0.1406553,1.670512,0.3120977,-0.1464707,1.64417,NA,NA,NotTracked,NotTracked,
0.9272461,0.284668,0.05517578,0.9384766,-0.3291016,0.07958984,-1,-2,0,-2,0,1,1,0,0,-1,0,1,0,-2,0,-1,-0.4375,-0.4375,-0.4375,0.1875,0.1875,0.1875,7.216909,2.982861,6.089151,2.886631,3.045957,7.851092,-0.1210682,-0.4456367,1.581733,0.2798599,-0.4474557,1.555384,0.09131481,0.4077195,1.662179,-0.07574163,-0.4265496,1.549496,0.2386073,-0.4294798,1.52832,0.09333658,-0.06273728,1.670971,0.09324845,-0.3875538,1.641391,-0.07965581,0.1159238,1.650735,0.01543442,-0.3797108,1.609195,-0.1348115,-0.1449663,1.669479,0.3120918,-0.1466454,1.644222,NA,NA,NotTracked,NotTracked,
0.9306641,0.2866211,0.04931641,0.9399414,-0.3271484,0.08007813,1,-1,-3,0,-2,0,0,0,0,-1,-1,1,-3,-2,0,-2,0.5,0.5,0.5,0.25,0.25,0.25,7.216909,2.982861,6.089151,2.886631,3.045957,7.851092,-0.1208695,-0.4456556,1.581337,0.2802641,-0.4447188,1.556072,0.09132135,0.4077228,1.662186,-0.07580406,-0.430666,1.548389,0.2384225,-0.42985,1.528116,0.09335327,-0.06273252,1.670984,0.09325528,-0.3875498,1.641397,-0.07964062,0.1159429,1.650721,0.01543973,-0.3797039,1.609199,-0.1349892,-0.1406837,1.669627,0.3121083,-0.1466431,1.644219,NA,NA,NotTracked,NotTracked,
0.9267578,0.2895508,0.05371094,0.9375,-0.3286133,0.08300781,-1,0,-1,0,-2,2,-1,1,0,-1,-2,-1,0,-3,-1,1,0.25,0.25,0.25,1.75,1.75,1.75,7.216909,2.982861,6.089151,2.888001,3.046164,7.850736,-0.1209174,-0.4456303,1.58177,0.2807008,-0.4454163,1.556029,0.09135041,0.4076824,1.662221,-0.07549651,-0.4302057,1.548367,0.2368648,-0.4525212,1.523702,0.09339319,-0.06273244,1.671029,0.09329934,-0.3875482,1.641475,-0.07962694,0.1159462,1.650711,0.01550147,-0.3797026,1.609296,-0.1347892,-0.1393101,1.670281,0.3121263,-0.1465264,1.644387,NA,NA,NotTracked,NotTracked,
0.9326172,0.28125,0.05566406,0.9360352,-0.3310547,0.07714844,-1,0,0,0,-1,1,-1,-2,-1,-2,-1,-4,0,-2,-1,0,-0.5,-0.5,-0.5,0.8125,0.8125,0.8125,7.216909,2.982861,6.089151,2.887813,3.046161,7.851635,-0.120735,-0.4460543,1.581505,0.2802982,-0.4450012,1.555534,0.09136055,0.4076791,1.66222,-0.07515161,-0.4328856,1.54739,0.2371247,-0.4206381,1.528979,0.09342819,-0.06273413,1.671032,0.09334522,-0.3875439,1.641473,-0.07962848,0.1159701,1.650709,0.01555143,-0.3796991,1.609274,-0.1346699,-0.1390078,1.670335,0.3121818,-0.1466374,1.644371,NA,NA,NotTracked,NotTracked,
0.9331055,0.2866211,0.05419922,0.9350586,-0.328125,0.07910156,-1,-1,-2,-3,-1,-2,0,-1,-1,-1,0,0,0,-1,0,0,1.4375,1.4375,1.4375,0.375,0.375,0.375,7.219284,2.982578,6.08888,2.887808,3.046552,7.851671,-0.1206936,-0.4460697,1.582124,0.280915,-0.4458088,1.556518,0.09136824,0.4076647,1.66221,-0.07526155,-0.4267991,1.548558,0.2377372,-0.4303479,1.52783,0.09344948,-0.06273179,1.671053,0.09336352,-0.3875354,1.641496,-0.07963303,0.1159676,1.650714,0.0155726,-0.3796948,1.609282,-0.1344385,-0.1439208,1.669605,0.3122561,-0.1465971,1.644358,NA,NA,NotTracked,NotTracked,
0.9350586,0.2880859,0.05273438,0.9379883,-0.3261719,0.08105469,1,0,-1,0,-1,-1,-2,-2,0,-2,-2,-1,-2,0,0,-2,0.3125,0.3125,0.3125,0.5625,0.5625,0.5625,7.219284,2.982578,6.08888,2.887719,3.046139,7.851866,-0.1206763,-0.4453348,1.581464,0.2807689,-0.4450532,1.555676,0.09138019,0.4076307,1.662196,-0.07526402,-0.4323798,1.547936,0.2369996,-0.4438729,1.5259,0.09346398,-0.06274437,1.671063,0.09337881,-0.3875602,1.641513,-0.07963577,0.115962,1.650706,0.01558716,-0.3797025,1.609284,-0.1343115,-0.1425694,1.669993,0.3123301,-0.1464522,1.644283,NA,NA,NotTracked,NotTracked,
0.9267578,0.2739258,0.0546875,0.9360352,-0.3320313,0.08398438,-1,0,2,-1,-2,-1,0,-2,-1,-2,-1,-2,-1,0,-1,-3,-0.9375,-0.9375,-0.9375,1,1,1,7.216743,2.982561,6.089002,2.888372,3.046713,7.851682,-0.1209626,-0.4452573,1.581542,0.2800574,-0.4448488,1.555645,0.09138783,0.4076139,1.662115,-0.07525019,-0.4302712,1.547942,0.2362951,-0.4507166,1.525255,0.09347542,-0.06273913,1.671069,0.0933855,-0.3875493,1.641519,-0.07961421,0.1160048,1.65067,0.01559485,-0.3796798,1.609279,-0.1344966,-0.1402322,1.670202,0.3124231,-0.1463241,1.64427,NA,NA,NotTracked,NotTracked,
0.9257813,0.2768555,0.04882813,0.9418945,-0.3266602,0.08544922,-1,-1,1,-2,0,-1,-2,-1,0,0,0,-1,-2,-2,-2,1,0.25,0.25,0.25,1.5625,1.5625,1.5625,7.217005,2.982265,6.088889,2.889087,3.046386,7.85195,-0.1206985,-0.4451185,1.58151,0.2877055,-0.4343064,1.559438,0.09140846,0.4075818,1.662088,-0.0752883,-0.4265893,1.548439,0.2463448,-0.4247367,1.532326,0.09348206,-0.06274556,1.671076,0.09338754,-0.3875508,1.641521,-0.0795965,0.1159901,1.650643,0.0155953,-0.3796825,1.60928,-0.134427,-0.1399697,1.670257,0.3126508,-0.1456216,1.644003,NA,NA,NotTracked,NotTracked,
0.9291992,0.2856445,0.04882813,0.9379883,-0.3237305,0.08300781,-1,-1,-2,-3,0,1,-1,-1,0,0,-4,0,-1,-2,-2,0,-1.0625,-1.0625,-1.0625,0.125,0.125,0.125,7.217892,2.981626,6.088141,2.88994,3.046268,7.851671,-0.1209492,-0.4450627,1.582343,0.2811249,-0.4453206,1.556082,0.09141386,0.407547,1.662041,-0.07615696,-0.4182039,1.550452,0.2380855,-0.4362683,1.526883,0.09349112,-0.06275617,1.671101,0.09341069,-0.3875687,1.641563,-0.07959253,0.1159859,1.650649,0.01561095,-0.3796877,1.609313,-0.1343083,-0.1381343,1.670393,0.3126849,-0.1454604,1.644006,NA,NA,NotTracked,NotTracked,
0.934082,0.2792969,0.05078125,0.9326172,-0.3261719,0.08349609,-2,0,0,-1,-1,-1,-1,0,-1,0,-2,-1,0,-1,-1,-1,-1.9375,-1.9375,-1.9375,0.875,0.875,0.875,7.215621,2.981252,6.087811,2.88994,3.046268,7.851671,-0.1206506,-0.4452086,1.582323,0.2814029,-0.4456066,1.555412,0.09142584,0.4075485,1.662003,-0.07517356,-0.4286882,1.548586,0.2384441,-0.4244387,1.528143,0.09349715,-0.06275588,1.671108,0.09341628,-0.3875668,1.641566,-0.07957859,0.1159924,1.650649,0.01561595,-0.3796849,1.60931,-0.1341715,-0.137884,1.670513,0.3127701,-0.1454046,1.644055,NA,NA,NotTracked,NotTracked,
0.9291992,0.2807617,0.05078125,0.9370117,-0.328125,0.08203125,-2,-2,-2,-1,-2,-1,0,0,-1,-1,-1,0,-1,-2,-1,-2,0.375,0.375,0.375,1.5,1.5,1.5,7.214645,2.98137,6.08835,2.89102,3.046443,7.852452,-0.1208718,-0.4447428,1.580825,0.2874988,-0.433786,1.558784,0.09144742,0.4075127,1.661881,-0.07544813,-0.4301819,1.548257,0.24727,-0.4269353,1.531352,0.09352096,-0.06273701,1.671106,0.09342842,-0.3875173,1.641544,-0.07957228,0.11601,1.650643,0.01562311,-0.3796502,1.6093,-0.1347094,-0.1442393,1.668903,0.3130858,-0.1448934,1.64396,NA,NA,NotTracked,NotTracked,
0.9311523,0.2827148,0.05419922,0.9428711,-0.3217773,0.08398438,-1,-1,0,-1,-2,0,1,0,-2,-1,-1,-1,-1,1,0,-2,-1.375,-1.375,-1.375,1.3125,1.3125,1.3125,7.214841,2.981181,6.087607,2.892433,3.046523,7.852627,-0.1212582,-0.4457284,1.580967,0.2873364,-0.4341998,1.558987,0.09146963,0.4075207,1.661821,-0.07546856,-0.4315876,1.547604,0.246049,-0.4275841,1.53168,0.09353302,-0.06273176,1.671098,0.0934344,-0.3874994,1.641532,-0.07957172,0.1160097,1.650643,0.01563759,-0.379618,1.609266,-0.1343722,-0.1426197,1.669661,0.3131504,-0.144968,1.643919,NA,NA,NotTracked,NotTracked,
0.9282227,0.2739258,0.06347656,0.9438477,-0.3222656,0.07714844,0,-2,-1,0,0,-3,0,-1,1,-1,-1,-3,-3,-1,0,-2,-1.6875,-1.6875,-1.6875,0.8125,0.8125,0.8125,7.21285,2.981191,6.087094,2.891731,3.046154,7.853162,-0.1209339,-0.4457389,1.581933,0.2803949,-0.4456707,1.556024,0.09150203,0.4074695,1.661754,-0.07531825,-0.4303082,1.548304,0.2362372,-0.4365479,1.526337,0.09354018,-0.06273549,1.671102,0.09343541,-0.3875025,1.641535,-0.07956579,0.1159906,1.650633,0.01563779,-0.3796224,1.609269,-0.13448,-0.1417185,1.669835,0.3131718,-0.145015,1.64396,NA,NA,NotTracked,NotTracked,
0.9243164,0.2802734,0.06640625,0.9394531,-0.3212891,0.08398438,-1,0,-1,-1,-1,-1,-2,-1,-2,-1,-3,-1,0,-3,-1,-2,-0.75,-0.75,-0.75,0.8125,0.8125,0.8125,7.211947,2.981143,6.087919,2.892487,3.04601,7.853117,-0.1208831,-0.4455645,1.581532,0.2806358,-0.4456353,1.555195,0.09147752,0.4074477,1.661667,-0.07516602,-0.4351526,1.546622,0.2374994,-0.4235893,1.527268,0.09354424,-0.06274393,1.671095,0.09343439,-0.3875202,1.641521,-0.0795645,0.1159869,1.650633,0.01563355,-0.3796393,1.609237,-0.1344935,-0.1416934,1.669838,0.3131617,-0.1450095,1.643961,NA,NA,NotTracked,NotTracked,
0.9243164,0.2802734,0.06640625,0.9326172,-0.3208008,0.08154297,-1,-1,-2,-2,-1,-2,0,1,-1,-2,0,-2,0,-1,-1,-1,-0.75,-0.75,-0.75,0.875,0.875,0.875,7.211947,2.981143,6.087919,2.892582,3.046034,7.852885,-0.1202206,-0.4454747,1.580907,0.2875457,-0.43512,1.558607,0.09150477,0.4074098,1.661613,-0.0751434,-0.4312419,1.547605,0.2458534,-0.4255068,1.531453,0.09354659,-0.06274968,1.671084,0.09343186,-0.3875218,1.641511,-0.07955714,0.1159772,1.650625,0.01563145,-0.3796585,1.609186,-0.1342157,-0.1398078,1.669868,0.3131219,-0.1451554,1.643848,NA,NA,NotTracked,NotTracked,
0.9306641,0.2822266,0.046875,0.934082,-0.3217773,0.08398438,0,-3,1,-1,1,-1,-1,0,-1,0,-2,-2,-4,-3,-2,0,-2.375,-2.375,-2.375,1.125,1.125,1.125,7.216474,2.979096,6.078965,2.894142,3.045891,7.852036,-0.1203027,-0.4459792,1.580491,0.2874585,-0.4352624,1.55811,0.09150124,0.4073188,1.661479,-0.0751367,-0.4318826,1.547489,0.2439445,-0.4286101,1.529341,0.09354436,-0.0627673,1.671053,0.09344069,-0.3875458,1.641456,-0.07953448,0.1159402,1.650571,0.01563996,-0.3796744,1.609135,-0.1342774,-0.1380871,1.66989,0.313108,-0.1450888,1.643819,NA,NA,NotTracked,NotTracked,
0.9326172,0.284668,0.04199219,0.9384766,-0.3261719,0.08789063,1,0,-1,-2,-1,0,0,-1,-1,0,0,0,-2,-1,-1,0,-0.3125,-0.3125,-0.3125,0.625,0.625,0.625,7.216723,2.978409,6.077323,2.895797,3.045772,7.850954,-0.120648,-0.444973,1.580817,0.2875568,-0.4352577,1.559007,0.09153496,0.4072828,1.66137,-0.07583455,-0.4406812,1.545961,0.2439899,-0.4294313,1.529541,0.09355845,-0.0627881,1.671023,0.09348043,-0.3875822,1.641397,-0.07952304,0.1159281,1.65055,0.0156738,-0.379696,1.609046,-0.1342302,-0.1371748,1.670035,0.3130794,-0.145071,1.643826,NA,NA,NotTracked,NotTracked,
0.9360352,0.2875977,0.03466797,0.9418945,-0.3271484,0.08447266,0,0,-2,-2,-1,1,-1,0,0,0,-1,-2,0,-2,-1,-2,1.1875,1.1875,1.1875,0.8125,0.8125,0.8125,7.21928,2.978165,6.076563,2.895797,3.045772,7.850954,-0.1200354,-0.4455255,1.580374,0.287076,-0.4342552,1.55829,0.09157712,0.4072081,1.661171,-0.0754578,-0.4332053,1.54725,0.2447664,-0.428216,1.529476,0.09356887,-0.06280536,1.670969,0.09347927,-0.3876051,1.641277,-0.07951107,0.1159253,1.650532,0.01567503,-0.3797459,1.608903,-0.1340444,-0.1369397,1.67014,0.312865,-0.1452542,1.643788,NA,NA,NotTracked,NotTracked,
0.9365234,0.2851563,0.04248047,0.9458008,-0.3256836,0.08105469,-3,-2,-1,0,1,0,-1,-1,0,-2,-1,-1,-1,-1,0,1,-0.3125,-0.3125,-0.3125,1.9375,1.9375,1.9375,7.219236,2.978753,6.075579,2.897208,3.045808,7.850692,-0.1198121,-0.4454594,1.580003,0.2875077,-0.4346376,1.558032,0.09162395,0.4072105,1.660996,-0.07608166,-0.4273204,1.547518,0.2446139,-0.4288723,1.52936,0.09360558,-0.06282176,1.670923,0.09361828,-0.3876294,1.641165,-0.07950198,0.1159132,1.650525,0.01582988,-0.3798132,1.608756,-0.1337656,-0.1368824,1.670129,0.312827,-0.1454203,1.643682,NA,NA,NotTracked,NotTracked,
0.9306641,0.2807617,0.04882813,0.9375,-0.3256836,0.06640625,-1,0,-1,1,-2,2,-1,-2,-2,-1,-2,0,-2,-2,-1,-2,0.0625,0.0625,0.0625,1.25,1.25,1.25,7.219504,2.978454,6.075464,2.896719,3.046117,7.852334,-0.1195579,-0.4461405,1.580191,0.2874536,-0.4339975,1.557931,0.09163852,0.4072066,1.660933,-0.0758457,-0.4278091,1.547889,0.2445381,-0.4322367,1.528155,0.0936172,-0.06281728,1.670888,0.09364799,-0.3876062,1.64105,-0.0794835,0.115914,1.650518,0.01583976,-0.3797775,1.608649,-0.1337084,-0.1366627,1.670052,0.3128161,-0.1453983,1.643628,NA,NA,NotTracked,NotTracked,
0.9311523,0.2797852,0.05175781,0.9365234,-0.3256836,0.0703125,0,0,-1,-1,-3,-1,1,-1,-3,-1,-2,-1,-1,-1,0,0,1.4375,1.4375,1.4375,1.25,1.25,1.25,7.220248,2.978112,6.076361,2.89727,3.046664,7.852387,-0.1193821,-0.4454845,1.579987,0.2875404,-0.433933,1.557402,0.09166511,0.4072221,1.660869,-0.07547373,-0.4329254,1.546477,0.2450423,-0.4273279,1.529105,0.09364589,-0.06281575,1.670849,0.0936996,-0.3875785,1.640939,-0.07947163,0.1158998,1.650511,0.01588119,-0.3797539,1.608506,-0.1336325,-0.1364657,1.669983,0.3128669,-0.1454626,1.643375,NA,NA,NotTracked,NotTracked,
0.9311523,0.2797852,0.04980469,0.9438477,-0.3261719,0.07714844,-1,0,-2,-2,-1,2,-1,0,0,-2,-1,0,0,-2,0,0,0.9375,0.9375,0.9375,1.375,1.375,1.375,7.220248,2.978112,6.076361,2.896533,3.047476,7.854444,-0.1196129,-0.4459537,1.580021,0.2874138,-0.4345016,1.557705,0.09167127,0.4072221,1.660842,-0.0754623,-0.4323236,1.546513,0.2437392,-0.4285156,1.529081,0.09366049,-0.06282958,1.670809,0.09373805,-0.3876009,1.640822,-0.07947339,0.1158885,1.650521,0.01592241,-0.379776,1.6084,-0.133545,-0.1364902,1.669983,0.3128532,-0.1454077,1.643327,NA,NA,NotTracked,NotTracked,
0.9365234,0.2885742,0.04785156,0.934082,-0.3203125,0.07763672,0,-1,-2,-2,-25,-4,0,-2,-1,0,0,-2,-2,-3,0,0,1.3125,1.3125,1.3125,2.375,2.375,2.375,7.223367,2.979079,6.074532,2.897801,3.048658,7.855948,-0.1197622,-0.4453412,1.579834,0.2872786,-0.4348669,1.557258,0.09166674,0.4072,1.660787,-0.07553001,-0.4328822,1.545767,0.2441195,-0.4279929,1.5286,0.09366018,-0.06283336,1.670761,0.0937622,-0.3875953,1.640672,-0.07944219,0.1158813,1.650512,0.01595517,-0.379755,1.608207,-0.1334672,-0.1365028,1.670024,0.3128313,-0.1454336,1.643321,NA,NA,NotTracked,NotTracked,
0.9301758,0.2924805,0.05029297,0.9384766,-0.3261719,0.09228516,-2,-1,-1,-1,1,0,-2,1,-1,-2,-2,-2,-1,-1,0,-2,1.75,1.75,1.75,2.3125,2.3125,2.3125,7.225247,2.980397,6.073031,2.900805,3.049661,7.855277,-0.1195024,-0.445952,1.579625,0.2872619,-0.4341404,1.556772,0.09166821,0.4071829,1.660795,-0.07619096,-0.4268644,1.547713,0.2452289,-0.4209073,1.528952,0.09367045,-0.06285576,1.670728,0.09381589,-0.3876417,1.640544,-0.07944291,0.1158604,1.650514,0.0159884,-0.3798204,1.608052,-0.1332999,-0.136086,1.670021,0.3128926,-0.1454401,1.643112,NA,NA,NotTracked,NotTracked,
0.9399414,0.3056641,0.03759766,0.9428711,-0.3271484,0.08837891,-2,0,-2,1,28,-8,-4,-2,-1,-3,-1,-1,0,-1,-1,0,2.875,2.875,2.875,3.5625,3.5625,3.5625,7.232378,2.983943,6.069021,2.904934,3.051218,7.855237,-0.1190032,-0.4466643,1.579679,0.287043,-0.4344996,1.555669,0.09162982,0.4071646,1.660844,-0.07539558,-0.43149,1.546594,0.244222,-0.4287241,1.52826,0.09367643,-0.06288349,1.670678,0.09381418,-0.3877091,1.640355,-0.07942747,0.1158218,1.65055,0.01597763,-0.3798696,1.607891,-0.1330412,-0.1360445,1.670169,0.3128559,-0.1455973,1.643054,NA,NA,NotTracked,NotTracked,
0.9389648,0.3081055,0.05078125,0.9394531,-0.3359375,0.0859375,0,-1,1,0,6,1,-1,-1,0,-1,-2,-2,-1,0,-3,2,3.9375,3.9375,3.9375,2.3125,2.3125,2.3125,7.233031,2.990725,6.072722,2.906463,3.053343,7.85638,-0.1187538,-0.4455848,1.580233,0.2872562,-0.434699,1.555437,0.09158021,0.4071355,1.660896,-0.07517473,-0.4311142,1.546803,0.2443876,-0.4284003,1.528206,0.0937077,-0.06290102,1.670635,0.09396689,-0.3877827,1.640134,-0.07940402,0.1157714,1.650589,0.01615555,-0.3799739,1.607721,-0.1327958,-0.1442857,1.669293,0.312883,-0.1455791,1.642974,NA,NA,NotTracked,NotTracked,
0.9423828,0.3457031,0.01855469,0.9335938,-0.3383789,0.09521484,-2,0,-1,0,-2,-5,-4,0,0,0,1,-2,1,0,-1,-1,15.25,15.25,15.25,4.4375,4.4375,4.4375,7.242888,3.001923,6.078631,2.911167,3.056641,7.855698,-0.1190031,-0.4458603,1.579488,0.2865182,-0.4337662,1.553369,0.09149686,0.4070793,1.661024,-0.07569201,-0.431252,1.547217,0.2442991,-0.4267499,1.527773,0.09369438,-0.06292881,1.670587,0.09396169,-0.3878674,1.639977,-0.07939853,0.1157028,1.650609,0.01614748,-0.3800639,1.607648,-0.1326914,-0.1484668,1.668919,0.3129772,-0.1456894,1.642658,NA,NA,NotTracked,NotTracked,
0.9306641,0.4150391,0.001953125,0.9345703,-0.3300781,0.08496094,-1,-2,-9,-1,0,0,0,-2,-1,-2,-2,0,-2,0,-1,-1,9.4375,9.4375,9.4375,4.9375,4.9375,4.9375,7.248905,3.014577,6.078357,2.918171,3.0593,7.85485,-0.1192157,-0.4454953,1.578394,0.2857766,-0.4309811,1.54796,0.09140975,0.4070118,1.661211,-0.07629237,-0.4246289,1.545773,0.2449542,-0.4320222,1.523928,0.09368179,-0.06293272,1.670436,0.09376805,-0.3878477,1.639319,-0.07938953,0.1156677,1.6507,0.01597472,-0.3800805,1.607086,-0.1323698,-0.1429987,1.669144,0.3130862,-0.1456664,1.64205,NA,NA,NotTracked,NotTracked,
0.9428711,0.4775391,-0.0078125,0.9394531,-0.3339844,0.09082031,-2,-4,-3,-4,-6,-3,-1,-1,-1,-2,-1,-3,-2,0,-2,0,-8.375,-8.375,-8.375,2.9375,2.9375,2.9375,7.2458,3.033916,6.077891,2.920489,3.060278,7.854156,-0.1185472,-0.4456248,1.578508,0.2848351,-0.4272303,1.542548,0.09129518,0.4069795,1.661533,-0.07422634,-0.438793,1.542286,0.2448394,-0.4214872,1.522304,0.09368055,-0.06295698,1.670378,0.0938379,-0.387944,1.639035,-0.07934844,0.1155904,1.650764,0.01601934,-0.3801419,1.606912,-0.1323205,-0.1418345,1.669581,0.3134296,-0.1455865,1.641307,NA,NA,NotTracked,NotTracked,
0.9931641,0.5327148,-0.02880859,0.9350586,-0.3344727,0.08496094,0,-2,37,0,0,-3,1,0,0,0,-1,-1,-2,-1,-4,1,-41.125,-41.125,-41.125,2.1875,2.1875,2.1875,7.198085,3.092147,6.090044,2.92468,3.061731,7.85247,-0.1183054,-0.4453629,1.578468,0.2854734,-0.4219234,1.533378,0.09109773,0.4070587,1.661987,-0.07446467,-0.4178485,1.546297,0.2527214,-0.4230642,1.504372,0.0936801,-0.06294882,1.670354,0.09384714,-0.3879128,1.638814,-0.07933363,0.1155578,1.65081,0.01602839,-0.3801252,1.606822,-0.1319473,-0.1415014,1.670094,0.314274,-0.1452094,1.640081,NA,NA,NotTracked,NotTracked,
1.045898,0.5942383,0.1123047,0.9296875,-0.331543,0.0859375,2,-1,-2,3,2,1,1,0,-1,-1,0,-1,0,-1,-1,-1,-61.375,-61.375,-61.375,-1.375,-1.375,-1.375,7.055844,3.242356,6.146349,2.926338,3.063194,7.850304,-0.1179234,-0.4453511,1.579249,0.2686487,-0.4404545,1.516281,0.09072155,0.4072565,1.662804,-0.07553021,-0.4228933,1.547346,0.2306956,-0.4084896,1.515667,0.09366549,-0.06295758,1.670347,0.09370536,-0.387956,1.638676,-0.07934958,0.1154806,1.650931,0.01586686,-0.3801078,1.606723,-0.131831,-0.1408071,1.670588,0.3162229,-0.1433742,1.638663,NA,NA,NotTracked,Unknown,
1.053223,0.6186523,0.1699219,0.9301758,-0.3334961,0.09326172,-10,1,-15,-2,2,1,0,-1,-3,-2,0,-3,-2,-2,-2,0,-62.5,-62.5,-62.5,-5.0625,-5.0625,-5.0625,6.995177,3.313675,6.175673,2.925974,3.063975,7.845523,-0.1178232,-0.4458131,1.578093,0.2806347,-0.3910098,1.489536,0.09038302,0.4073116,1.663334,-0.0743524,-0.4290115,1.54472,0.2524038,-0.382635,1.504954,0.09354258,-0.06295443,1.670329,0.09321281,-0.3879741,1.638468,-0.07934809,0.1154443,1.651029,0.01535324,-0.3800292,1.606524,-0.131747,-0.1404545,1.671049,0.3207968,-0.1390957,1.634303,NA,NA,NotTracked,Unknown,
0.9428711,0.6611328,0.237793,0.9345703,-0.3359375,0.1079102,13,6,15,-12,-3,-3,-2,-1,1,0,-1,-2,-2,-2,-1,-2,-19.5,-19.5,-19.5,-6.8125,-6.8125,-6.8125,6.919032,3.498906,6.222417,2.92731,3.064308,7.840326,-0.1177051,-0.4454471,1.577371,0.2616951,-0.3947711,1.452917,0.09017939,0.4072303,1.663736,-0.07390199,-0.4160074,1.545385,0.2286397,-0.3681639,1.437868,0.0932022,-0.06300461,1.67036,0.09231491,-0.38808,1.638349,-0.07935218,0.1153794,1.651096,0.01439973,-0.3798603,1.606278,-0.1317402,-0.1399258,1.671141,0.3284066,-0.1302152,1.628312,NA,NA,NotTracked,Unknown,
0.8686523,0.8520508,0.4033203,0.9399414,-0.3383789,0.1079102,-34,-15,-61,-30,-1,-2,1,0,0,-2,-1,0,0,-3,-1,1,5.25,5.25,5.25,-7.9375,-7.9375,-7.9375,6.898563,3.740872,6.253306,2.927401,3.063712,7.831438,-0.1182236,-0.4457935,1.578029,0.2636698,-0.3392146,1.421353,0.08984076,0.4072267,1.664466,-0.0743208,-0.4177694,1.546574,0.2579235,-0.3314716,1.373588,0.09284783,-0.06312311,1.670373,0.09124062,-0.3883562,1.638103,-0.07934271,0.1153066,1.651193,0.01329132,-0.379882,1.605994,-0.1316117,-0.1488124,1.669818,0.3380955,-0.1127172,1.622084,NA,NA,NotTracked,Unknown,
0.7880859,0.9760742,0.4345703,0.9506836,-0.3291016,0.09765625,-1,-11,5,-108,-13,-1,-2,-3,0,1,-1,-3,-1,-2,-2,0,-20.6875,-20.6875,-20.6875,-6.4375,-6.4375,-6.4375,6.880044,3.87828,6.262986,2.927908,3.063777,7.823041,-0.1175672,-0.4456199,1.579573,0.2625899,-0.2901083,1.372925,0.0893468,0.4071786,1.66554,-0.07441096,-0.4228842,1.547005,0.2294859,-0.2512768,1.347,0.09238186,-0.06328411,1.670608,0.09015953,-0.3887019,1.63831,-0.07930998,0.1151766,1.651303,0.01242858,-0.3800143,1.606209,-0.1313546,-0.1439189,1.671427,0.3428324,-0.0979456,1.617936,NA,NA,NotTracked,Unknown,
0.5478516,0.934082,0.5092773,0.9467773,-0.3271484,0.09130859,0,-5,14,17,0,1,-3,-25,-2,-3,-3,-2,-3,0,-1,0,-90.8125,-90.8125,-90.8125,-6.0625,-6.0625,-6.0625,6.794113,4.178127,6.274943,2.926753,3.064716,7.817055,-0.1169376,-0.4451069,1.578731,0.2613293,-0.2252777,1.335059,0.08912522,0.4070588,1.665917,-0.0739359,-0.4298568,1.545471,0.2250906,-0.1738312,1.306875,0.0921057,-0.06337255,1.670752,0.08983582,-0.3887788,1.638368,-0.07927256,0.1149214,1.651437,0.01216519,-0.3800356,1.606312,-0.1312826,-0.1409229,1.671553,0.3466173,-0.08015186,1.6178,NA,NA,NotTracked,Unknown,
0.4550781,0.8330078,0.6220703,0.9433594,-0.3286133,0.08984375,14,11,20,24,15,6,4,3,1,0,-1,0,-2,-2,-1,-1,-93.4375,-93.4375,-93.4375,-4.9375,-4.9375,-4.9375,6.69151,4.509247,6.270331,2.92666,3.065804,7.814332,-0.1167657,-0.4455453,1.578618,0.2612869,-0.1557515,1.31195,0.08885532,0.4068348,1.666713,-0.07438939,-0.4253635,1.546141,0.2305951,-0.08363876,1.280889,0.09196462,-0.06356452,1.670965,0.08973186,-0.3890537,1.638548,-0.07925972,0.1147355,1.651627,0.01209019,-0.3802487,1.606572,-0.131048,-0.1397108,1.671926,0.3829854,-0.07707814,1.557005,NA,NA,NotTracked,Unknown,
0.144043,0.8681641,0.6977539,0.9453125,-0.3256836,0.08251953,-10,-9,-3,-6,-13,-11,-10,-24,-2,-3,-1,-1,-2,-1,-1,-2,-80.375,-80.375,-80.375,-2.5625,-2.5625,-2.5625,6.593938,4.875813,6.262533,2.923101,3.067442,7.81423,-0.1170974,-0.4455973,1.57871,0.2591483,-0.08356226,1.299691,0.08850541,0.4066829,1.667813,-0.07378125,-0.416871,1.548343,0.255333,-0.008252339,1.301556,0.09176562,-0.06366217,1.671223,0.08953466,-0.3891502,1.638776,-0.07924497,0.1145934,1.651784,0.01190863,-0.3803946,1.606943,-0.1308955,-0.1381414,1.672103,0.3870732,-0.06026689,1.53807,NA,NA,NotTracked,Unknown,
-0.07226563,0.7802734,0.7016602,0.9394531,-0.3295898,0.09667969,10,-9,-21,-9,-2,2,1,2,-3,-1,-1,-1,-1,-2,0,-1,-94.5,-94.5,-94.5,-4.625,-4.625,-4.625,6.492337,5.264282,6.245155,2.919296,3.068072,7.814043,-0.1168571,-0.4453886,1.579745,0.2708212,-0.000868738,1.308459,0.08841626,0.406468,1.668988,-0.07413097,-0.4232811,1.546781,0.272588,0.07267927,1.318067,0.09153646,-0.06392665,1.671743,0.08928006,-0.3895328,1.639437,-0.07919735,0.1144029,1.652045,0.01172597,-0.3809291,1.608047,-0.131069,-0.1376756,1.672529,0.3528201,-0.0968881,1.501235,NA,NA,NotTracked,Unknown,
-0.1831055,0.690918,0.7172852,0.940918,-0.3452148,0.08642578,16,6,9,27,-1,9,5,12,-1,-1,0,-1,-1,0,1,1,-94.5,-94.5,-94.5,-3.4375,-3.4375,-3.4375,6.435755,5.46167,6.233285,2.909714,3.068726,7.819078,-0.11657,-0.4448305,1.579219,0.2682926,0.08060028,1.30828,0.08842235,0.4065168,1.669816,-0.0739979,-0.4252132,1.546598,0.2929817,0.1487415,1.34425,0.09142943,-0.06406726,1.672063,0.08916509,-0.3897209,1.639711,-0.07916501,0.1143481,1.652294,0.01167754,-0.3812201,1.608415,-0.1309465,-0.137348,1.67285,0.3695626,-0.1217066,1.56644,NA,NA,NotTracked,Unknown,
-0.3945313,0.5966797,0.6791992,0.9399414,-0.3427734,0.08105469,32,2,5,31,11,-7,-1,1,-3,0,-1,-1,-1,-2,-2,-2,-73.625,-73.625,-73.625,-1.5625,-1.5625,-1.5625,6.333311,5.84827,6.202752,2.904188,3.068599,7.823868,-0.1163038,-0.4455968,1.580461,0.2673325,0.1515466,1.322814,0.08826327,0.4063839,1.670976,-0.07113917,-0.4371688,1.545739,0.3066534,0.2004236,1.375385,0.09135885,-0.06431939,1.672533,0.08907835,-0.3902741,1.640228,-0.07898594,0.1143041,1.652409,0.01167512,-0.3818255,1.608866,-0.1307891,-0.1372223,1.672991,0.3422882,-0.04545554,1.505067,NA,NA,NotTracked,Open,
-0.5039063,0.5478516,0.6694336,0.9277344,-0.3461914,0.08691406,-51,-13,-7,10,-3,1,4,-13,-3,-2,-2,-1,-1,-2,-10,-5,-83,-83,-83,-0.5,-0.5,-0.5,6.221531,6.21052,6.160536,2.896591,3.06966,7.831361,-0.1155586,-0.4449305,1.579355,0.2615549,0.2152618,1.342778,0.08834906,0.4061925,1.671335,-0.07318435,-0.4268301,1.546422,0.3159316,0.2362721,1.392643,0.09129471,-0.06435923,1.672677,0.08895434,-0.3902549,1.640288,-0.07883449,0.1142517,1.65259,0.01154987,-0.3817963,1.608935,-0.1306502,-0.1366824,1.673313,0.3416078,-0.03419327,1.484876,NA,NA,NotTracked,Open,
-0.6738281,0.3466797,0.4892578,0.9213867,-0.340332,0.08105469,-20,0,1,21,15,2,-5,-8,6,8,3,1,0,0,2,-1,-89.125,-89.125,-89.125,0.625,0.625,0.625,6.078584,6.542436,6.102752,2.887456,3.072237,7.841469,-0.1165306,-0.4422841,1.580778,0.2602529,0.3012216,1.411275,0.08842772,0.4056283,1.672491,-0.07291012,-0.4278485,1.546489,0.3404221,0.2819417,1.455111,0.09122012,-0.06432357,1.67297,0.08822595,-0.3900094,1.640427,-0.07839706,0.1140728,1.652995,0.01070285,-0.3815765,1.609338,-0.1303016,-0.1352482,1.674465,0.3344572,0.01903337,1.442869,NA,NA,NotTracked,Unknown,
-0.7246094,0.284668,0.4643555,0.9243164,-0.3442383,0.08740234,44,8,3,11,5,13,8,24,-3,-37,-12,0,-1,-1,-1,-4,-70,-70,-70,1.875,1.875,1.875,5.923464,6.834698,6.019539,2.885102,3.073568,7.845173,-0.116266,-0.4423096,1.581799,0.2486108,0.3750702,1.455151,0.08890256,0.4045624,1.673312,-0.07300845,-0.4249264,1.547433,0.28721,0.3658197,1.4524,0.09096699,-0.06437299,1.67328,0.08767375,-0.3900084,1.640615,-0.0781807,0.1139973,1.653144,0.009935041,-0.3815225,1.609913,-0.1301103,-0.1343318,1.674796,0.3286257,0.03726013,1.431549,NA,NA,NotTracked,Unknown,
-0.7231445,0.1933594,0.293457,0.9287109,-0.3481445,0.08056641,0,9,5,-28,-13,1,-5,-4,-4,1,-1,0,-3,-3,0,-3,-80.1875,-80.1875,-80.1875,4.5,4.5,4.5,5.710956,7.096595,5.886682,2.880516,3.078073,7.855979,-0.1155679,-0.4452985,1.581091,0.2475569,0.3852105,1.491778,0.08930186,0.4042962,1.674147,-0.07300749,-0.4262769,1.547177,0.2842905,0.388729,1.483653,0.09089529,-0.06439573,1.673476,0.08743995,-0.3899272,1.640749,-0.07775807,0.1139739,1.653432,0.009548997,-0.3814329,1.610267,-0.1298715,-0.1339858,1.675234,0.3240957,0.05585039,1.423213,NA,NA,NotTracked,Unknown,
-0.9111328,0.07373047,0.1625977,0.9287109,-0.3442383,0.08935547,-11,-4,-3,-63,-36,6,6,-2,-3,-3,-3,-2,-2,-1,1,-1,-71,-71,-71,5.1875,5.1875,5.1875,5.114545,7.335958,5.36634,2.882673,3.079317,7.856901,-0.1158982,-0.4414444,1.582497,0.2349414,0.3951948,1.535559,0.08948948,0.4040196,1.674519,-0.07220633,-0.4211113,1.548721,0.2874758,0.4013122,1.523572,0.09095025,-0.06441437,1.673578,0.08748289,-0.389924,1.640756,-0.0773874,0.1139351,1.653729,0.009606863,-0.3815117,1.610419,-0.1297382,-0.1334343,1.675522,0.3194473,0.06823202,1.417981,NA,NA,NotTracked,Unknown,
-0.9111328,0.07373047,0.1625977,0.9257813,-0.3398438,0.07617188,-54,-13,-10,-12,1,-4,-2,-8,-1,21,4,-1,-1,-1,3,1,-71,-71,-71,1.875,1.875,1.875,5.114545,7.335958,5.36634,2.882571,3.079848,7.86046,-0.1150324,-0.4416889,1.581962,0.2213804,0.3932194,1.567216,0.08966218,0.4038318,1.674665,-0.07216212,-0.4283066,1.546473,0.162586,0.3804463,1.594167,0.0911135,-0.06433908,1.673686,0.08780848,-0.389652,1.640766,-0.07707692,0.1139254,1.653973,0.009836712,-0.3814347,1.610593,-0.129484,-0.132809,1.676081,0.3148479,0.08512393,1.4131,NA,NA,NotTracked,Unknown,
-0.9111328,0.07373047,0.1625977,0.925293,-0.3642578,0.07958984,8,14,15,41,26,-1,1,3,-3,-10,-4,-2,0,-3,-5,-3,-71,-71,-71,-1.875,-1.875,-1.875,5.114545,7.335958,5.36634,2.875695,3.082026,7.865569,-0.1153532,-0.4411328,1.582097,0.2491246,0.3740874,1.575069,0.08980217,0.4037178,1.674819,-0.07267215,-0.4530577,1.541867,0.2955576,0.3926004,1.582945,0.09115306,-0.06426208,1.673777,0.08781923,-0.3895402,1.640771,-0.07676291,0.1139331,1.654192,0.009832393,-0.3813702,1.610733,-0.1295394,-0.1327638,1.676241,0.3127166,0.09424636,1.411004,NA,NA,NotTracked,NotTracked,
-0.8886719,0.02490234,0.06835938,0.925293,-0.3603516,0.07568359,8,-1,-5,-63,-13,-18,-2,13,-4,-9,-4,-1,-2,-2,-1,-3,-62.0625,-62.0625,-62.0625,3.1875,3.1875,3.1875,2.285531,7.39064,2.600529,2.876381,3.083165,7.866508,-0.1154937,-0.4412661,1.583108,0.2474212,0.3648099,1.592168,0.08999601,0.4037443,1.675007,-0.07153665,-0.436972,1.544808,0.2949032,0.381226,1.603706,0.09114043,-0.06425384,1.673876,0.0877844,-0.3895407,1.640802,-0.07642452,0.1139042,1.654396,0.009704307,-0.381494,1.611129,-0.1294499,-0.1327204,1.676394,0.306227,0.1424182,1.408262,NA,NA,NotTracked,NotTracked,
-0.9589844,-0.01025391,0.02539063,0.921875,-0.3369141,0.08154297,-11,-15,-7,40,0,-2,-15,-2,-1,2,0,-2,-1,-2,-12,-7,-69.1875,-69.1875,-69.1875,3.9375,3.9375,3.9375,1.645324,7.315569,1.996057,2.879501,3.084538,7.868469,-0.1150768,-0.4411178,1.581772,0.2426238,0.3607891,1.613822,0.09005035,0.4036517,1.675053,-0.07232889,-0.4178018,1.548564,0.297391,0.3724777,1.624375,0.0911551,-0.06420241,1.67394,0.08774088,-0.3894964,1.640816,-0.07625738,0.1139073,1.654533,0.009596905,-0.3814519,1.611307,-0.1295022,-0.1325274,1.676567,0.3055306,0.1452683,1.408296,NA,NA,NotTracked,NotTracked,
-0.8071289,-0.04931641,-0.1660156,0.9326172,-0.3598633,0.09228516,7,4,-7,-44,-2,-10,2,4,0,11,2,-1,-2,2,2,2,-42.8125,-42.8125,-42.8125,0.625,0.625,0.625,1.069692,7.02094,1.521033,2.876168,3.086451,7.872747,-0.1148925,-0.4412079,1.58295,0.2381656,0.3531259,1.630754,0.09002975,0.4037007,1.675174,-0.07241628,-0.429801,1.546493,0.2656309,0.35963,1.6326,0.09117774,-0.06407614,1.67406,0.08766718,-0.3892095,1.640895,-0.07608276,0.1138617,1.654706,0.009472747,-0.3812719,1.611585,-0.1292419,-0.132467,1.67698,0.3050396,0.1478955,1.408409,NA,NA,NotTracked,NotTracked,
-0.8364258,-0.09667969,-0.1967773,0.9204102,-0.3486328,0.07861328,14,6,7,-7,2,2,5,9,0,29,3,0,-1,0,2,-1,-47,-47,-47,4.375,4.375,4.375,1.010876,6.953735,1.486715,2.878773,3.087849,7.874816,-0.1146674,-0.4419061,1.583797,0.2233099,0.3454519,1.647445,0.08997485,0.4036445,1.675229,-0.07210311,-0.4350378,1.54476,0.1744912,0.3690178,1.637923,0.09131003,-0.0637337,1.674329,0.08769231,-0.3884075,1.641073,-0.07597809,0.113854,1.655138,0.00938063,-0.380702,1.612244,-0.1287402,-0.1321626,1.677932,0.3028578,0.1523794,1.408263,NA,NA,NotTracked,NotTracked,
-0.8505859,-0.2001953,-0.3144531,0.921875,-0.3544922,0.09423828,4,1,-6,-12,0,-2,-7,17,5,34,4,2,-1,1,2,-1,-28.8125,-28.8125,-28.8125,-2.3125,-2.3125,-2.3125,0.9139132,6.788323,1.435897,2.876254,3.087022,7.876287,-0.1146733,-0.4423866,1.584882,0.2241757,0.3396245,1.646832,0.08985752,0.4035682,1.675364,-0.07083199,-0.4217647,1.549293,0.1731412,0.3637375,1.638647,0.09134065,-0.06341212,1.674669,0.08759186,-0.3877546,1.641448,-0.07591072,0.1138365,1.655435,0.009209719,-0.3802175,1.61312,-0.1286964,-0.1321144,1.678225,0.3001814,0.1563063,1.408203,NA,NA,NotTracked,NotTracked,
-0.7675781,-0.1977539,-0.3378906,0.9248047,-0.3618164,0.09179688,4,1,-2,17,-2,-7,2,1,7,6,0,0,0,-3,-8,-1,-21.375,-21.375,-21.375,-1.9375,-1.9375,-1.9375,0.8862221,6.752122,1.418473,2.874115,3.087184,7.877578,-0.1142186,-0.4417919,1.583171,0.2170496,0.3427505,1.645044,0.08985108,0.4034279,1.67549,-0.07175175,-0.4321527,1.545473,0.1745864,0.3657329,1.640896,0.09135788,-0.06328312,1.674749,0.08757155,-0.387496,1.641464,-0.07592525,0.1138044,1.655568,0.009165282,-0.3800731,1.61326,-0.1287269,-0.1319348,1.678324,0.2980742,0.1575596,1.407772,NA,NA,NotTracked,NotTracked,
-0.7475586,-0.2016602,-0.3984375,0.9267578,-0.3603516,0.08398438,-11,-1,-4,-16,5,-7,-7,-12,-4,-5,0,-2,-1,-1,2,-2,-4.625,-4.625,-4.625,0,0,0,0.8394573,6.711835,1.391654,2.874115,3.087184,7.877578,-0.1129137,-0.449169,1.581625,0.2153417,0.3422337,1.641263,0.08979538,0.40337,1.675531,-0.07077841,-0.4514777,1.53994,0.1745192,0.3373537,1.634572,0.09143409,-0.06306184,1.674889,0.08759818,-0.3871,1.641534,-0.07587546,0.1138004,1.655691,0.00917281,-0.379842,1.613524,-0.1287127,-0.1319591,1.678371,0.2977169,0.1582579,1.407784,NA,NA,NotTracked,NotTracked,
-0.8447266,-0.2060547,-0.3774414,0.9335938,-0.362793,0.08154297,9,4,2,-13,0,2,-6,12,-1,-3,-1,-1,-1,-1,0,-1,13.25,13.25,13.25,2.75,2.75,2.75,0.8836335,6.735873,1.431349,2.875556,3.088334,7.878202,-0.1136679,-0.4460174,1.583,0.2107946,0.3490284,1.639282,0.08965166,0.4033825,1.675731,-0.07160087,-0.4397934,1.543414,0.1705563,0.3369664,1.636875,0.09138658,-0.06293434,1.674942,0.08740479,-0.386843,1.641508,-0.07584058,0.1138381,1.655852,0.008960177,-0.379672,1.613627,-0.1286637,-0.1322151,1.678475,0.2965848,0.1608342,1.407897,NA,NA,NotTracked,NotTracked,
-0.8632813,-0.2275391,-0.3164063,0.9331055,-0.3515625,0.08740234,3,0,-1,2,2,-1,32,6,-3,-6,-6,-3,-2,-3,-1,0,8,8,8,2.125,2.125,2.125,0.9634859,6.784616,1.508962,2.876968,3.089334,7.879569,-0.1131252,-0.44644,1.584116,0.2103174,0.3512006,1.632335,0.08958559,0.4033322,1.675944,-0.07437363,-0.4554028,1.538087,0.1649136,0.3878331,1.58925,0.09136046,-0.06285445,1.675078,0.08732298,-0.3867326,1.641635,-0.07577271,0.1138086,1.656117,0.00882249,-0.379587,1.613867,-0.1285954,-0.1322632,1.678699,0.2954368,0.1622145,1.407913,NA,NA,NotTracked,NotTracked,
-0.8632813,-0.2275391,-0.3164063,0.9321289,-0.362793,0.08544922,6,2,-4,-21,-3,-2,-48,29,-4,-4,-2,-1,0,0,6,0,8,8,8,-0.1875,-0.1875,-0.1875,0.9634859,6.784616,1.508962,2.876083,3.091386,7.879976,-0.1130421,-0.4456385,1.58309,0.2173962,0.3527762,1.616039,0.08947752,0.4034231,1.676542,-0.07034412,-0.4339047,1.543727,0.2429687,0.3583184,1.55075,0.09133182,-0.06281167,1.675103,0.08728928,-0.3866265,1.641605,-0.07576402,0.1137984,1.656278,0.008698729,-0.3795081,1.613939,-0.1284212,-0.1321796,1.678839,0.2920944,0.1633953,1.407342,NA,NA,NotTracked,NotTracked,
-0.9345703,-0.2382813,-0.3232422,0.9267578,-0.3613281,0.08349609,-10,-5,-10,-21,-9,-5,-14,-41,8,-1,-1,0,-2,0,2,0,-2.1875,-2.1875,-2.1875,0,0,0,1.125711,6.88446,1.68303,2.876975,3.092463,7.878982,-0.1134378,-0.4456205,1.582767,0.2061704,0.3589076,1.615215,0.08923844,0.4034114,1.67677,-0.07182138,-0.4403775,1.542404,0.2014947,0.3720234,1.563125,0.09135289,-0.06261304,1.675162,0.08733844,-0.3862159,1.641553,-0.07571555,0.1138727,1.656492,0.008683444,-0.3792938,1.613957,-0.1282589,-0.132293,1.67906,0.2907828,0.1639988,1.407239,NA,NA,NotTracked,NotTracked,
-0.9345703,-0.2382813,-0.3232422,0.9243164,-0.3579102,0.08203125,-10,-6,-5,0,-2,-1,18,-6,-8,-58,-10,-1,-1,0,-4,-3,-2.1875,-2.1875,-2.1875,1.75,1.75,1.75,1.125711,6.88446,1.68303,2.88047,3.095289,7.877043,-0.112638,-0.4490823,1.581352,0.2050359,0.3604008,1.609817,0.08894116,0.4032677,1.677266,-0.07308913,-0.4534689,1.537305,0.2131273,0.366113,1.557588,0.0913443,-0.06256565,1.675203,0.08733643,-0.3860844,1.641529,-0.07563763,0.1139325,1.656637,0.008663161,-0.3792314,1.613967,-0.1282435,-0.1322664,1.679079,0.286266,0.1651167,1.406496,NA,NA,NotTracked,NotTracked,
-0.9345703,-0.2382813,-0.3232422,0.9316406,-0.3598633,0.08105469,2,6,3,1,-3,-4,-7,15,3,20,3,0,-3,-1,-1,0,-2.1875,-2.1875,-2.1875,0.5,0.5,0.5,1.125711,6.88446,1.68303,2.882329,3.099108,7.876093,-0.1139425,-0.4503094,1.581693,0.1667944,0.3728944,1.612078,0.08867083,0.4032315,1.677927,-0.07632051,-0.4516784,1.53654,0.2513193,0.3527907,1.619572,0.0913264,-0.06253661,1.675225,0.08731367,-0.3860153,1.641505,-0.0756061,0.1139915,1.656861,0.00859479,-0.379175,1.614011,-0.1282325,-0.1321332,1.679173,0.2804649,0.1747053,1.407524,NA,NA,NotTracked,NotTracked,
