ALX,ALY,ALZ,ARX,ARY,ARZ,EMG0L,EMG1L,EMG2L,EMG3L,EMG4L,EMG5L,EMG6L,EMG7L,EMG0R,EMG1R,EMG2R,EMG3R,EMG4R,EMG5R,EMG6R,EMG7R,GLX,GLY,GLZ,GRX,GRY,GRZ,ORL,OPL,OYL,ORR,OPR,OYR,LHNX,LHNY,LHNZ,RHNX,RHNY,RHNZ,HX,HY,HZ,LTX,LTY,LTZ,RTX,RTY,RTZ,SpineMidX,SpineMidY,SpineMidZ,SpineBaseX,SpineBaseY,SpineBaseZ,ShoulderLeftX,ShoulderLeftY,ShoulderLeftZ,ShoulderRightX,ShoulderRightY,ShoulderRightZ,ElbowLeftX,ElbowLeftY,ElbowLeftZ,ElbowRightX,ElbowRightY,ElbowRightZ,Myo_Pose_left,Myo_Pose_Right,Kinect_pose_left,Kinect_pose_right
0.9179688,0.3208008,0.05908203,0.9375,-0.3139648,0.06005859,-1,-2,-1,0,-1,-1,-2,-4,0,-1,-2,0,-1,-1,-1,0,2.25,2.25,2.25,1.75,1.75,1.75,7.221967,2.999823,6.031866,2.815361,3.039943,7.978088,-0.1326838,-0.4512061,1.55421,0.2942524,-0.4156533,1.53491,0.07990448,0.4037044,1.62546,-0.08804331,-0.4530234,1.517389,0.3187853,-0.4261904,1.535823,0.07882828,-0.06267893,1.648979,0.07931831,-0.3843642,1.621252,-0.1052409,0.1161892,1.643382,0.00259561,-0.3759095,1.588597,-0.1465816,-0.1564303,1.636723,0.3072329,-0.1442888,1.626047,NA,NA,NotTracked,NotTracked,
0.9272461,0.2827148,0.05908203,0.9482422,-0.3330078,0.06542969,-1,1,-2,0,-2,-1,0,1,-1,-1,-2,-1,-1,-3,-1,-1,-0.6875,-0.6875,-0.6875,1.1875,1.1875,1.1875,7.219355,2.998844,6.029763,2.809836,3.039377,7.983888,-0.1328567,-0.4482823,1.554665,0.2946045,-0.415664,1.533484,0.07957098,0.4037779,1.625588,-0.0863008,-0.4471946,1.517652,0.31857,-0.4251733,1.534654,0.07874299,-0.06268726,1.648914,0.07919712,-0.3843636,1.621262,-0.1052631,0.1161675,1.643355,0.002494504,-0.3758995,1.588627,-0.1467647,-0.1573686,1.636888,0.3069546,-0.1443525,1.626149,NA,NA,NotTracked,NotTracked,
0.9204102,0.2998047,0.05957031,0.9438477,-0.3256836,0.06738281,0,0,-2,-1,-1,-2,0,0,-3,-1,1,0,-2,0,-2,0,0.875,0.875,0.875,-0.8125,-0.8125,-0.8125,7.213261,3.000091,6.038776,2.812659,3.039531,7.983099,-0.1325284,-0.4514432,1.553906,0.2768829,-0.4301192,1.534997,0.07938075,0.4038422,1.62558,-0.08886506,-0.4244806,1.52434,0.3189653,-0.4212061,1.534959,0.07862438,-0.06269143,1.648834,0.07911018,-0.3843593,1.621221,-0.1052854,0.1161423,1.64333,0.002409997,-0.3758726,1.588568,-0.1467495,-0.1570792,1.637042,0.3068249,-0.1443818,1.626174,NA,NA,NotTracked,NotTracked,
0.9272461,0.2861328,0.04443359,0.9379883,-0.3271484,0.06982422,-1,-1,-1,-1,5,1,0,0,-1,0,-2,-1,1,2,0,-2,-1.5,-1.5,-1.5,0.375,0.375,0.375,7.214728,2.99942,6.035302,2.811041,3.03986,7.984004,-0.1342388,-0.4448982,1.555652,0.2764275,-0.4301693,1.535228,0.07917112,0.4038901,1.625526,-0.08889507,-0.4375803,1.520926,0.3192423,-0.419067,1.536156,0.07850609,-0.06268628,1.648749,0.07901095,-0.3843612,1.62115,-0.1053347,0.1160932,1.64333,0.00232023,-0.3758848,1.58851,-0.1467618,-0.1574477,1.637074,0.3065951,-0.1444319,1.626259,NA,NA,NotTracked,NotTracked,
0.9267578,0.2983398,0.05419922,0.9379883,-0.3276367,0.06103516,-1,-2,-2,-1,-2,-1,-1,-2,-2,-1,-1,-2,-1,0,0,-1,-2,-2,-2,-1.3125,-1.3125,-1.3125,7.21337,2.999287,6.033654,2.810342,3.039644,7.983949,-0.134041,-0.4445008,1.555321,0.2761277,-0.4301218,1.535266,0.07900706,0.4039096,1.625485,-0.08986476,-0.4203355,1.524808,0.3187181,-0.4223098,1.534909,0.07844564,-0.0626651,1.64867,0.07891629,-0.3843367,1.621109,-0.1053671,0.1160381,1.643286,0.002230209,-0.3758609,1.588475,-0.1468436,-0.1576791,1.637107,0.3061819,-0.144577,1.626411,NA,NA,NotTracked,NotTracked,
0.9282227,0.2915039,0.05517578,0.9399414,-0.3266602,0.05957031,-6,0,-2,-1,-4,-1,0,-4,-3,2,-1,-1,1,0,-2,-1,-2.5625,-2.5625,-2.5625,-1.1875,-1.1875,-1.1875,7.21205,2.999044,6.031704,2.809721,3.040338,7.982884,-0.1335291,-0.4447757,1.555554,0.2944037,-0.4150539,1.534378,0.07891165,0.4039079,1.625547,-0.08849045,-0.4244702,1.5247,0.3179848,-0.4324201,1.535814,0.07842364,-0.06266519,1.648669,0.07888946,-0.3843336,1.621122,-0.1054181,0.1159846,1.643259,0.002209737,-0.3758591,1.588482,-0.1468565,-0.157698,1.637259,0.3061127,-0.1445946,1.626453,NA,NA,NotTracked,NotTracked,
0.9262695,0.3178711,0.05712891,0.9379883,-0.3334961,0.06787109,0,-1,0,-1,0,-2,0,-2,-1,-3,-2,-2,-1,1,-2,1,-2.125,-2.125,-2.125,-0.625,-0.625,-0.625,7.216022,3.000197,6.029089,2.810464,3.041659,7.980623,-0.1345085,-0.4449699,1.555581,0.2757712,-0.4306044,1.536525,0.0788157,0.4039614,1.625632,-0.08898386,-0.4213762,1.524605,0.314528,-0.4211611,1.530273,0.07836937,-0.06266472,1.648675,0.07877535,-0.3843036,1.621186,-0.1054322,0.1159834,1.643252,0.002094292,-0.3758112,1.588569,-0.1468847,-0.1577245,1.637275,0.3059598,-0.1445587,1.626731,NA,NA,NotTracked,NotTracked,
0.9995117,0.4238281,-0.03417969,0.9414063,-0.3393555,0.06445313,5,-3,9,6,0,-1,0,2,-1,-2,-1,-1,-2,-3,-3,-2,10.75,10.75,10.75,1.9375,1.9375,1.9375,7.211861,3.012309,6.041215,2.811719,3.046358,7.981297,-0.1342446,-0.4434883,1.554803,0.274053,-0.4282874,1.531966,0.07868949,0.4039432,1.625771,-0.08879274,-0.4226276,1.523405,0.3140572,-0.4202843,1.527555,0.07831547,-0.06266883,1.648663,0.07869782,-0.3842907,1.621167,-0.1054583,0.1159976,1.64323,0.002012286,-0.3757812,1.588531,-0.1469105,-0.1577031,1.637251,0.30595,-0.1445549,1.626925,NA,NA,NotTracked,NotTracked,
1.120605,0.6010742,0.1157227,0.9384766,-0.3344727,0.05419922,-1,-1,-24,0,8,24,15,-1,0,0,-1,-2,-1,-1,1,0,-86.25,-86.25,-86.25,6.6875,6.6875,6.6875,7.042358,3.112547,6.13221,2.820662,3.054988,7.980959,-0.1343917,-0.4413536,1.554717,0.2564308,-0.4204423,1.502707,0.07842063,0.4041812,1.626144,-0.08874123,-0.4375992,1.521469,0.2947107,-0.4027927,1.479612,0.07829425,-0.06263231,1.648678,0.0786379,-0.3842021,1.621202,-0.1054923,0.1159711,1.643254,0.001953236,-0.375712,1.588556,-0.1471041,-0.1572275,1.637303,0.3100451,-0.1397954,1.627414,NA,NA,NotTracked,NotTracked,
1,0.9335938,0.4970703,0.9296875,-0.3393555,0.08740234,20,26,79,25,8,7,1,12,1,0,-1,0,-1,-2,-2,-2,-62.9375,-62.9375,-62.9375,-6.4375,-6.4375,-6.4375,6.804346,3.478932,6.282034,2.821537,3.061724,7.979511,-0.1335605,-0.4503272,1.55028,0.2629172,-0.3288797,1.424567,0.07805727,0.404302,1.626369,-0.09004577,-0.4642487,1.51288,0.2667482,-0.3496954,1.391643,0.07784703,-0.06254178,1.648743,0.07759093,-0.3839856,1.621242,-0.1055707,0.1159849,1.643285,0.0006286625,-0.3751804,1.588284,-0.1471309,-0.1573306,1.637355,0.323342,-0.1223017,1.622534,NA,NA,NotTracked,Unknown,
0.5351563,0.8071289,0.6796875,0.9248047,-0.3378906,0.08642578,24,2,-36,-30,16,27,-4,-17,-1,-16,-9,-2,-2,-1,3,2,-124.5625,-124.5625,-124.5625,-13.3125,-13.3125,-13.3125,6.549341,3.970234,6.343588,2.812495,3.061564,7.970547,-0.1343428,-0.4501734,1.550572,0.2480168,-0.2101718,1.343366,0.07760988,0.4042268,1.626987,-0.08880504,-0.437751,1.521047,0.2378801,-0.1450057,1.311111,0.07687767,-0.06243391,1.649088,0.0755333,-0.3837489,1.621681,-0.1056205,0.1159799,1.64332,-0.001300057,-0.3746723,1.588379,-0.1472301,-0.1571247,1.637294,0.32603,-0.09250055,1.61834,NA,NA,NotTracked,Unknown,
0.1572266,0.878418,0.831543,0.9438477,-0.3657227,0.08447266,-15,-16,-47,-21,-3,-6,-5,-25,-23,-55,-7,-1,-2,0,-8,-3,-71.3125,-71.3125,-71.3125,-20.9375,-20.9375,-20.9375,6.410636,4.604678,6.344859,2.777092,3.059863,7.96294,-0.1349426,-0.4463479,1.55162,0.2455735,-0.05377102,1.295428,0.07710464,0.4040741,1.628108,-0.08933776,-0.4311063,1.52368,0.2097432,-0.08494187,1.251429,0.07613543,-0.06226472,1.64945,0.07394383,-0.383218,1.621957,-0.1056677,0.115932,1.643343,-0.002779955,-0.3743817,1.588781,-0.1474527,-0.1566197,1.637062,0.2691142,-0.09968094,1.656416,NA,NA,NotTracked,Unknown,
-0.2363281,0.6904297,0.8286133,0.9711914,-0.3510742,0.06689453,53,7,27,27,3,2,-7,-4,4,13,2,0,1,-1,-2,2,-34.1875,-34.1875,-34.1875,-6.125,-6.125,-6.125,6.295334,5.528034,6.319803,2.768456,3.068863,7.950461,-0.1346027,-0.444925,1.55203,0.2508318,0.1089977,1.304272,0.07705124,0.4040493,1.629555,-0.09095609,-0.4526194,1.516,0.212463,0.09572189,1.259794,0.07585805,-0.06231838,1.649876,0.07369045,-0.3833769,1.622266,-0.1056504,0.1159407,1.643375,-0.002980476,-0.3745787,1.58911,-0.1475889,-0.1571989,1.636582,0.3160814,-0.07783559,1.504674,NA,NA,NotTracked,Lasso,
-0.3232422,0.5976563,0.7265625,0.9370117,-0.3730469,0.05664063,1,3,4,23,7,16,0,-2,-12,-20,4,-3,-2,0,9,-3,-57.875,-57.875,-57.875,-7.0625,-7.0625,-7.0625,6.203969,6.171589,6.285285,2.757394,3.087264,7.942367,-0.1337901,-0.4444349,1.549478,0.2401831,0.2566239,1.33932,0.07709533,0.4041962,1.63139,-0.09303451,-0.4429811,1.51478,0.3021572,0.2664402,1.390889,0.07574397,-0.06216176,1.650265,0.07321168,-0.3828802,1.62252,-0.1054374,0.1160396,1.643418,-0.003631093,-0.3742001,1.589405,-0.1476621,-0.1565363,1.635737,0.3054008,-0.02742279,1.452175,NA,NA,NotTracked,Unknown,
-0.3671875,0.3720703,0.8227539,0.8984375,-0.3183594,0.04882813,-1,0,-8,19,-1,-16,-9,-9,0,-12,-3,-3,-3,-5,-20,-4,-55.5625,-55.5625,-55.5625,8.125,8.125,8.125,6.048626,6.718205,6.206195,2.771435,3.108582,7.938273,-0.1348414,-0.43628,1.547107,0.2356784,0.3859609,1.409855,0.07796668,0.4038949,1.633806,-0.09703691,-0.4469121,1.499448,0.268519,0.3878742,1.400892,0.07571132,-0.06201375,1.650489,0.07293968,-0.3824888,1.622475,-0.104318,0.1167707,1.643756,-0.003928216,-0.373978,1.589488,-0.1475419,-0.1534896,1.634706,0.2940899,0.1098573,1.395474,NA,NA,NotTracked,Unknown,
-0.4287109,0.2226563,0.2563477,0.9057617,-0.3603516,0.06787109,-17,0,6,8,5,13,2,1,15,-26,-2,-4,4,3,6,8,-48.4375,-48.4375,-48.4375,9.8125,9.8125,9.8125,5.814143,7.171372,6.057339,2.783439,3.128428,7.938657,-0.1355018,-0.4358415,1.545822,0.2370704,0.3950981,1.482478,0.07851388,0.403025,1.635725,-0.09852718,-0.4421142,1.496448,0.2692485,0.3759388,1.457346,0.07575809,-0.06181828,1.650666,0.07280842,-0.3819677,1.622435,-0.1036903,0.1170535,1.644173,-0.004086599,-0.3738584,1.58971,-0.1474312,-0.1528286,1.634309,0.2947049,0.09246908,1.397021,NA,NA,NotTracked,Unknown,
-0.737793,0.04492188,0.08300781,0.9208984,-0.3681641,0.05371094,-5,-2,-6,0,1,2,2,5,-18,-64,-9,-3,-4,-4,-15,-7,-52.75,-52.75,-52.75,6.5,6.5,6.5,2.058489,7.440007,2.379711,2.781255,3.13175,7.963424,-0.135582,-0.4363428,1.547133,0.1920321,0.4172889,1.550277,0.07876305,0.402513,1.637474,-0.09774864,-0.4363784,1.4998,0.2427025,0.432576,1.539529,0.07574631,-0.06167854,1.650776,0.07245124,-0.3815821,1.622312,-0.1029089,0.1173516,1.644584,-0.004566089,-0.3737633,1.58991,-0.1472247,-0.1527012,1.6342,0.2904266,0.1238509,1.393436,NA,NA,NotTracked,Unknown,
-0.8339844,-0.078125,-0.05224609,0.921875,-0.3676758,0.05273438,5,-8,-11,-19,0,16,5,-3,26,33,6,1,1,2,11,11,-25.625,-25.625,-25.625,-4.75,-4.75,-4.75,0.9948887,7.139329,1.374464,2.756992,3.119833,7.988301,-0.1344645,-0.4395865,1.550843,0.2347438,0.3661254,1.556829,0.07869431,0.402905,1.63914,-0.09754302,-0.4404653,1.501032,0.3182411,0.3063391,1.528333,0.07587261,-0.06132339,1.650849,0.07209478,-0.381338,1.622187,-0.102343,0.1174835,1.644953,-0.005198702,-0.3736532,1.590167,-0.1470589,-0.1527352,1.634289,0.2920329,0.1366245,1.39381,NA,NA,NotTracked,NotTracked,
-0.8037109,-0.1274414,-0.1791992,0.9150391,-0.3813477,0.04785156,0,4,13,55,18,19,3,5,14,-58,-8,1,-1,5,-5,0,-29.6875,-29.6875,-29.6875,-1.3125,-1.3125,-1.3125,0.8651811,7.046409,1.279536,2.721577,3.105537,8.019872,-0.1349075,-0.4402637,1.555216,0.2569896,0.3265047,1.531081,0.07829033,0.4035057,1.639976,-0.09708307,-0.4419902,1.501336,0.3310942,0.2961268,1.54726,0.07598899,-0.06089413,1.650919,0.071776,-0.3810973,1.622045,-0.1020314,0.1175087,1.645159,-0.005796635,-0.3735469,1.590537,-0.1467327,-0.1522068,1.634691,0.2914371,0.1449874,1.393475,NA,NA,NotTracked,NotTracked,
-0.7744141,-0.1245117,-0.2631836,0.9194336,-0.3886719,0.04150391,-2,-1,4,18,-5,-2,4,14,4,-3,-4,-7,-2,0,7,0,-23.3125,-23.3125,-23.3125,2.75,2.75,2.75,0.7264953,6.925952,1.186885,2.688822,3.096059,8.055111,-0.1365661,-0.4224168,1.561702,0.1816455,0.3533807,1.591033,0.078195,0.4038534,1.640185,-0.097871,-0.4322932,1.513544,0.2371244,0.3029155,1.548,0.07600413,-0.06052746,1.650987,0.07132438,-0.3807873,1.621945,-0.1019958,0.1174928,1.645244,-0.006430279,-0.3734123,1.591035,-0.1466147,-0.1521813,1.634884,0.291413,0.1496688,1.391653,NA,NA,NotTracked,NotTracked,
-0.8574219,-0.1420898,-0.3505859,0.9223633,-0.3911133,0.04394531,-7,-6,-4,29,-5,-4,-6,-17,-2,28,5,0,-1,6,12,4,-2.875,-2.875,-2.875,-2.0625,-2.0625,-2.0625,0.699914,6.904501,1.18626,2.650184,3.086572,8.095901,-0.1368673,-0.4246019,1.563571,0.1855445,0.342397,1.577989,0.0782123,0.4039174,1.640266,-0.0987971,-0.4321326,1.516812,0.2157397,0.3691856,1.630667,0.07598928,-0.0602471,1.651059,0.07098041,-0.3805009,1.621879,-0.1020562,0.1174109,1.645354,-0.006824101,-0.3732373,1.59131,-0.1465115,-0.1530645,1.635302,0.2903741,0.1511507,1.391386,NA,NA,NotTracked,NotTracked,
-0.9394531,-0.184082,-0.2783203,0.9282227,-0.3632813,0.04394531,-18,-8,-2,5,-3,-4,5,-13,-7,26,3,1,-2,-3,-1,-1,14.25,14.25,14.25,1.9375,1.9375,1.9375,0.8814934,7.006523,1.35723,2.636972,3.085056,8.112646,-0.1385591,-0.4254282,1.564889,0.1991029,0.3425155,1.549747,0.0781382,0.4040408,1.640372,-0.09693983,-0.4315679,1.51947,0.1501403,0.3270404,1.576364,0.07592374,-0.06010968,1.651125,0.07051924,-0.3803074,1.621843,-0.1020562,0.1173389,1.64542,-0.007399405,-0.3731673,1.591681,-0.1464014,-0.1530336,1.635718,0.289097,0.1510029,1.389967,NA,NA,NotTracked,NotTracked,
-1.009277,-0.1674805,-0.2011719,0.9370117,-0.3847656,0.04541016,0,-3,-5,-59,-16,5,-7,41,-3,-37,-6,-1,-1,1,9,4,7.1875,7.1875,7.1875,2,2,2,1.140773,7.147974,1.611471,2.637151,3.089541,8.113811,-0.1408674,-0.4500687,1.565085,0.1754718,0.3631343,1.547731,0.07800945,0.4041183,1.640415,-0.1055986,-0.4414377,1.512433,0.1358245,0.3192278,1.557037,0.0758151,-0.06009474,1.651181,0.07023428,-0.3803244,1.62186,-0.101979,0.117371,1.645537,-0.00780187,-0.3732936,1.592,-0.1465527,-0.1529778,1.635946,0.2819281,0.1600237,1.390197,NA,NA,NotTracked,NotTracked,
-1.04248,-0.1674805,-0.08789063,0.925293,-0.3637695,0.04541016,-5,-2,-6,-12,-11,-2,-6,3,-3,-5,-5,-1,-1,1,7,3,-5.1875,-5.1875,-5.1875,-1.875,-1.875,-1.875,1.91401,7.315705,2.401848,2.661904,3.097996,8.092399,-0.1404306,-0.4231616,1.562698,0.1724565,0.3762058,1.53115,0.07786234,0.4042269,1.640542,-0.1028097,-0.4390277,1.508625,0.1400643,0.3239262,1.5624,0.07576657,-0.06011644,1.651166,0.07009554,-0.3804462,1.621757,-0.1017764,0.1174586,1.645649,-0.007992469,-0.3734607,1.592056,-0.1463909,-0.1526115,1.636111,0.2771085,0.1619715,1.385103,NA,NA,NotTracked,NotTracked,
-1.113281,-0.1235352,0.08447266,0.9179688,-0.3544922,0.05175781,-3,0,-2,-1,-4,-4,-5,-29,-2,11,2,4,0,-1,5,-2,12.125,12.125,12.125,1.9375,1.9375,1.9375,4.407924,7.26056,4.923747,2.705456,3.106834,8.048465,-0.1378564,-0.4243015,1.560873,0.2295503,0.3738426,1.42561,0.07786695,0.4041173,1.640573,-0.09917369,-0.4247886,1.516686,0.2145041,0.3394072,1.4214,0.07573035,-0.06013092,1.651167,0.07003125,-0.3804305,1.621731,-0.1016782,0.1175586,1.645732,-0.008045751,-0.3735034,1.59208,-0.1464096,-0.1525234,1.636042,0.2717441,0.1606759,1.376617,NA,NA,NotTracked,Unknown,
-1.011719,-0.03173828,0.2045898,0.9277344,-0.3618164,0.04882813,-8,-4,0,40,2,-5,2,-93,4,-8,-4,2,-1,-5,-10,1,-1.0625,-1.0625,-1.0625,-1.5625,-1.5625,-1.5625,5.00081,7.040616,5.511184,2.733759,3.111524,8.016029,-0.1356895,-0.4204574,1.556717,0.2432835,0.3337169,1.328068,0.07787766,0.4034251,1.64092,-0.09953338,-0.4247151,1.511749,0.2212468,0.3048793,1.3928,0.07570167,-0.06013192,1.651165,0.06994573,-0.3803452,1.62165,-0.1017936,0.117526,1.645781,-0.008050767,-0.3735223,1.592076,-0.1461109,-0.1527725,1.635692,0.2628956,0.1529995,1.35803,NA,NA,NotTracked,Closed,
-0.8291016,0.1430664,0.3994141,0.9326172,-0.3535156,0.04492188,10,-2,-4,-48,-28,-8,-8,-11,0,-5,-3,0,-2,-2,-2,-2,9,9,9,3.625,3.625,3.625,5.25463,6.797321,5.761149,2.779814,3.116437,7.968021,-0.1339432,-0.4193196,1.555095,0.2347951,0.3852644,1.2873,0.07789995,0.4032546,1.641166,-0.09774679,-0.4287215,1.502833,0.200099,0.377246,1.284533,0.07559688,-0.06010005,1.651185,0.0698972,-0.3802451,1.621592,-0.1018724,0.1175287,1.645837,-0.008028884,-0.3735502,1.592079,-0.1458472,-0.1530368,1.635434,0.2575217,0.1460181,1.34375,NA,NA,NotTracked,Unknown,
-0.5244141,0.2182617,0.6831055,0.9238281,-0.359375,0.05175781,-12,15,-3,13,1,-4,-6,-99,1,-1,0,-1,-1,1,-1,0,9.375,9.375,9.375,3.9375,3.9375,3.9375,5.41654,6.511224,5.919784,2.799,3.116141,7.951419,-0.1322885,-0.4167195,1.552946,0.2340781,0.3272852,1.244381,0.07795803,0.4030019,1.641753,-0.09803575,-0.4265692,1.503016,0.210135,0.3274359,1.284818,0.07553723,-0.0599493,1.651282,0.07006261,-0.3798919,1.621628,-0.1019956,0.1175631,1.645943,-0.007828991,-0.3735294,1.592236,-0.1456084,-0.1530712,1.635125,0.2548656,0.1387226,1.333688,NA,NA,NotTracked,Unknown,
-0.6992188,0.2753906,0.7236328,0.9331055,-0.3828125,0.06591797,6,-15,-3,0,-8,1,-27,5,-2,0,-2,0,0,0,-2,-3,18.25,18.25,18.25,7.75,7.75,7.75,5.473025,6.368689,5.957489,2.816059,3.120461,7.940331,-0.1310354,-0.41662,1.551136,0.2308343,0.3192424,1.226813,0.07794937,0.4028919,1.642318,-0.09475716,-0.4279487,1.501679,0.1974201,0.328521,1.283,0.07552243,-0.05986241,1.651349,0.07030506,-0.3796005,1.621648,-0.1020843,0.1175932,1.646052,-0.007401362,-0.3734998,1.592448,-0.1454813,-0.153187,1.634929,0.2534281,0.1341431,1.32694,NA,NA,NotTracked,Unknown,
-0.7822266,0.2094727,0.7329102,0.9130859,-0.3388672,0.05517578,-5,-3,-5,-20,-11,-4,-6,-26,1,-6,1,-1,-1,0,-3,-6,-5,-5,-5,3.375,3.375,3.375,5.470829,6.314151,5.961317,2.825366,3.115315,7.94288,-0.1304364,-0.4158619,1.55048,0.2307753,0.3124471,1.226591,0.07794067,0.4028208,1.6425,-0.09590039,-0.4240573,1.503003,0.1998449,0.3241518,1.240741,0.07551776,-0.05976383,1.651389,0.07055492,-0.379184,1.621618,-0.1021395,0.1175991,1.646118,-0.007139842,-0.3734353,1.592552,-0.1452662,-0.1534559,1.634812,0.252279,0.1310583,1.323126,NA,NA,NotTracked,Closed,
-0.8266602,0.2124023,0.671875,0.9208984,-0.3935547,0.07177734,-5,-1,1,16,8,7,1,-15,1,0,0,-2,-2,-2,-1,1,-6.1875,-6.1875,-6.1875,5.25,5.25,5.25,5.461759,6.320116,5.958445,2.79127,3.105547,7.973226,-0.1313813,-0.4170794,1.550574,0.2291174,0.3104461,1.226571,0.0779024,0.4025946,1.642574,-0.0963023,-0.4269662,1.504791,0.1967507,0.319074,1.246308,0.07550721,-0.0596966,1.651456,0.07066824,-0.3789546,1.621634,-0.1021652,0.1176014,1.64617,-0.00691993,-0.3733703,1.592758,-0.1452957,-0.1541206,1.634836,0.2512801,0.1292319,1.321297,NA,NA,NotTracked,Closed,
-0.7807617,0.2270508,0.6694336,0.9272461,-0.3457031,0.06347656,-5,5,3,-14,-4,2,-1,-39,0,7,3,-2,-1,-1,1,1,2.625,2.625,2.625,0.4375,0.4375,0.4375,5.47761,6.326081,5.969898,2.770285,3.094701,8.006223,-0.1329077,-0.421702,1.552377,0.2282367,0.308075,1.229353,0.0779132,0.4024197,1.642751,-0.09323759,-0.4263065,1.510377,0.2006339,0.3139466,1.251758,0.07549015,-0.05966103,1.651461,0.07069901,-0.3788064,1.621572,-0.1021995,0.1175996,1.646243,-0.006855297,-0.3733781,1.592761,-0.1452827,-0.1547317,1.634753,0.250662,0.1285019,1.320608,NA,NA,NotTracked,Unknown,
-0.7768555,0.2094727,0.659668,0.9262695,-0.3925781,0.07714844,-1,2,0,18,-8,-3,-1,-10,-2,-4,-2,-3,-2,-2,0,0,6.0625,6.0625,6.0625,2.125,2.125,2.125,5.491132,6.331063,5.978502,2.747194,3.093327,8.026937,-0.1349465,-0.4240149,1.553901,0.2276237,0.3077609,1.229651,0.07779866,0.4023691,1.642818,-0.09613939,-0.4258347,1.513298,0.196881,0.3130482,1.248818,0.07545484,-0.05962572,1.651472,0.07065731,-0.3787056,1.621537,-0.1022639,0.1175912,1.646298,-0.006855738,-0.3733734,1.592763,-0.1453683,-0.1549371,1.634979,0.2503051,0.127523,1.320273,NA,NA,NotTracked,Unknown,
-0.7807617,0.203125,0.6503906,0.9331055,-0.3515625,0.05224609,10,6,9,41,7,5,3,25,-4,-11,-6,-2,-1,0,0,0,2.3125,2.3125,2.3125,-4.3125,-4.3125,-4.3125,5.498863,6.33453,5.983032,2.735528,3.08792,8.045105,-0.1365147,-0.424619,1.553576,0.2268088,0.3074064,1.229723,0.07772724,0.4021679,1.642835,-0.09466635,-0.4161468,1.519094,0.1979703,0.3126718,1.255574,0.0754222,-0.05959558,1.651463,0.07060404,-0.3785908,1.621473,-0.1023093,0.1176037,1.646343,-0.006855388,-0.3733624,1.592755,-0.1454231,-0.1547372,1.635154,0.249994,0.127029,1.31998,NA,NA,NotTracked,Closed,
-0.7705078,0.2143555,0.6523438,0.9375,-0.359375,0.06640625,0,-3,-5,-28,-5,-5,-6,-4,0,6,-4,-2,-2,0,-3,2,0.0625,0.0625,0.0625,2.5625,2.5625,2.5625,5.508661,6.335452,5.990726,2.738996,3.09024,8.040325,-0.1373212,-0.4222687,1.555431,0.2263322,0.3075825,1.229224,0.07760977,0.4020855,1.642956,-0.1003947,-0.4333225,1.510571,0.1946186,0.3137717,1.249204,0.07538205,-0.05955367,1.651489,0.07056011,-0.3785064,1.621486,-0.1023539,0.1175872,1.646376,-0.006866009,-0.3733602,1.592794,-0.1455976,-0.1539442,1.635673,0.2498016,0.126488,1.319726,NA,NA,NotTracked,Closed,
-0.7900391,0.2202148,0.6489258,0.9287109,-0.3510742,0.06445313,-7,-5,-6,2,-1,-3,-1,-1,0,-7,-1,-2,-3,-2,-8,-3,2.1875,2.1875,2.1875,-2.3125,-2.3125,-2.3125,5.514537,6.335943,5.993731,2.750588,3.091793,8.029117,-0.1373712,-0.42227,1.554605,0.2254632,0.3064725,1.232465,0.0775798,0.4020272,1.643097,-0.1018455,-0.4324912,1.510684,0.2032216,0.2926161,1.278333,0.07530084,-0.05951999,1.65154,0.07047609,-0.3784268,1.621508,-0.1024043,0.1175779,1.646418,-0.006900575,-0.3733374,1.592837,-0.1456407,-0.1540072,1.635802,0.249541,0.1259701,1.319649,NA,NA,NotTracked,Unknown,
-0.7773438,0.2226563,0.6674805,0.9267578,-0.3544922,0.05908203,10,11,-3,4,3,15,6,22,0,-47,-13,-3,-2,-3,-1,1,-8.375,-8.375,-8.375,0.375,0.375,0.375,5.51535,6.335621,6.000674,2.770278,3.096273,8.008021,-0.13678,-0.4210081,1.553722,0.2254265,0.304672,1.229702,0.07757107,0.4020143,1.643154,-0.09809846,-0.4268245,1.51357,0.1962302,0.3054739,1.259841,0.07527867,-0.05951157,1.651546,0.07041179,-0.378385,1.621471,-0.1024258,0.1175716,1.646434,-0.006946641,-0.3733546,1.59281,-0.1456589,-0.1540202,1.635795,0.2492588,0.1255903,1.319316,NA,NA,NotTracked,Closed,
-0.7822266,0.215332,0.6606445,0.9306641,-0.3666992,0.06640625,-3,1,0,7,19,15,3,4,-1,-1,-2,-1,0,0,0,-2,0.0625,0.0625,0.0625,0.8125,0.8125,0.8125,5.509328,6.339538,6.000687,2.784287,3.099523,7.992591,-0.1356512,-0.4215996,1.552075,0.2252396,0.304352,1.22936,0.07759809,0.4020644,1.643151,-0.09599053,-0.4168741,1.514885,0.1940906,0.309457,1.242588,0.0752539,-0.05949244,1.651547,0.07037763,-0.3783491,1.621444,-0.1024401,0.1175661,1.646448,-0.00699707,-0.3733455,1.592815,-0.1455987,-0.1540041,1.635847,0.2491448,0.1252895,1.319155,NA,NA,NotTracked,Unknown,
-0.7944336,0.2167969,0.6484375,0.9243164,-0.3598633,0.05712891,-4,2,-6,-36,-8,-5,2,-10,-1,0,2,0,-1,1,-2,-3,0.375,0.375,0.375,0,0,0,5.51232,6.346835,6.003239,2.793236,3.100795,7.984552,-0.1347863,-0.4203242,1.551205,0.2245782,0.304002,1.231511,0.07765837,0.4020776,1.643123,-0.09683325,-0.431081,1.508692,0.204116,0.2845827,1.2855,0.07524035,-0.05945887,1.651541,0.07048231,-0.3782248,1.621342,-0.1024371,0.1175675,1.646462,-0.006964802,-0.3733239,1.592758,-0.1455796,-0.1540374,1.635843,0.248848,0.1249767,1.318908,NA,NA,NotTracked,Closed,
-0.7817383,0.2280273,0.6455078,0.9238281,-0.3696289,0.06347656,-5,-3,-9,-16,-12,-10,-28,-35,4,-6,-3,2,-2,1,2,3,1.25,1.25,1.25,-0.25,-0.25,-0.25,5.516761,6.348772,6.003131,2.794533,3.101752,7.98289,-0.13507,-0.4199086,1.552751,0.2248301,0.3044133,1.232331,0.0777051,0.4021299,1.643137,-0.09790445,-0.4264966,1.510272,0.2016845,0.2934087,1.284778,0.07522349,-0.05943673,1.65152,0.07045602,-0.378173,1.621233,-0.1024341,0.1175584,1.646494,-0.00698695,-0.3733142,1.59269,-0.1454768,-0.1539003,1.63588,0.2483781,0.1246739,1.318429,NA,NA,NotTracked,Unknown,
-0.7695313,0.2114258,0.65625,0.9301758,-0.3662109,0.06591797,-1,-6,1,-2,-6,4,5,16,-2,2,0,-1,-3,-1,-1,0,4.375,4.375,4.375,-0.3125,-0.3125,-0.3125,5.516363,6.347846,6.000647,2.789674,3.100515,7.987806,-0.1350282,-0.420946,1.551801,0.2248326,0.3044,1.23091,0.07774226,0.4021342,1.643178,-0.0948169,-0.4160153,1.516912,0.2076937,0.2824901,1.272,0.07524099,-0.05943647,1.651489,0.07046463,-0.3781703,1.621106,-0.1024314,0.1175524,1.64652,-0.006988489,-0.3733348,1.592634,-0.1454583,-0.1538958,1.635875,0.2481617,0.124372,1.318211,NA,NA,NotTracked,Closed,
-0.7817383,0.2016602,0.6494141,0.9277344,-0.3623047,0.05957031,-4,-7,-7,-12,-2,-3,-12,-26,-1,-5,5,0,-1,-1,0,2,-3.1875,-3.1875,-3.1875,-1.375,-1.375,-1.375,5.518823,6.349491,6.004356,2.777806,3.099304,7.998633,-0.1352794,-0.4204626,1.553164,0.2250221,0.3053852,1.231835,0.07779986,0.4022017,1.643292,-0.09676948,-0.4255405,1.512406,0.2027429,0.2979966,1.284286,0.07522382,-0.05941869,1.651496,0.07040159,-0.3780969,1.621091,-0.1024185,0.1175646,1.646557,-0.007049034,-0.3733009,1.592666,-0.1454406,-0.1538762,1.635966,0.2479615,0.1241951,1.318075,NA,NA,NotTracked,Unknown,
-0.7749023,0.2319336,0.6523438,0.9291992,-0.3637695,0.06640625,5,-1,1,11,2,-4,-3,23,2,-1,-5,-3,-2,-1,-2,-1,-3.5625,-3.5625,-3.5625,-0.125,-0.125,-0.125,5.522875,6.351937,6.007996,2.762002,3.098282,8.01352,-0.1358437,-0.4210038,1.552577,0.2238825,0.3043048,1.231316,0.07788203,0.4022547,1.643285,-0.09871899,-0.4245889,1.509781,0.1928541,0.3094561,1.257,0.07522652,-0.05940595,1.651459,0.07038945,-0.3780901,1.620971,-0.102409,0.117574,1.646554,-0.007055985,-0.3733082,1.592551,-0.1453914,-0.1537507,1.635978,0.2479016,0.1239734,1.317802,NA,NA,NotTracked,Unknown,
-0.7744141,0.2167969,0.6484375,0.9248047,-0.3647461,0.06054688,-1,-5,-3,5,9,1,2,2,1,-8,-3,-1,0,0,-1,1,0.3125,0.3125,0.3125,-1.375,-1.375,-1.375,5.52075,6.353619,6.006789,2.751079,3.098299,8.02329,-0.1368449,-0.4210386,1.553293,0.2243789,0.3053252,1.232036,0.07809743,0.402311,1.643376,-0.09682784,-0.4207296,1.514702,0.2027932,0.3017477,1.2945,0.07522241,-0.05939439,1.651451,0.07035428,-0.3780717,1.620932,-0.1023794,0.1176065,1.64658,-0.007095978,-0.3732874,1.592492,-0.1454269,-0.1536933,1.635999,0.2479149,0.1239608,1.317935,NA,NA,NotTracked,Closed,
-0.7871094,0.2246094,0.6489258,0.9257813,-0.3613281,0.06494141,-5,-3,-4,-8,-14,-5,-2,-18,1,-34,-3,-1,2,-1,0,1,-2.8125,-2.8125,-2.8125,-1.25,-1.25,-1.25,5.518427,6.357528,6.004391,2.74687,3.098549,8.025949,-0.1371164,-0.420772,1.552743,0.2243012,0.3032173,1.232165,0.07835449,0.40238,1.643396,-0.09809788,-0.4229996,1.513144,0.1941203,0.3109321,1.272,0.0752271,-0.05939588,1.651448,0.07033644,-0.3780776,1.620906,-0.1023582,0.1176174,1.646576,-0.007100656,-0.3733021,1.592488,-0.14551,-0.1534224,1.635903,0.2478892,0.1237473,1.317997,NA,NA,NotTracked,Unknown,
