ALX,ALY,ALZ,ARX,ARY,ARZ,EMG0L,EMG1L,EMG2L,EMG3L,EMG4L,EMG5L,EMG6L,EMG7L,EMG0R,EMG1R,EMG2R,EMG3R,EMG4R,EMG5R,EMG6R,EMG7R,GLX,GLY,GLZ,GRX,GRY,GRZ,ORL,OPL,OYL,ORR,OPR,OYR,LHNX,LHNY,LHNZ,RHNX,RHNY,RHNZ,HX,HY,HZ,LTX,LTY,LTZ,RTX,RTY,RTZ,SpineMidX,SpineMidY,SpineMidZ,SpineBaseX,SpineBaseY,SpineBaseZ,ShoulderLeftX,ShoulderLeftY,ShoulderLeftZ,ShoulderRightX,ShoulderRightY,ShoulderRightZ,ElbowLeftX,ElbowLeftY,ElbowLeftZ,ElbowRightX,ElbowRightY,ElbowRightZ,Myo_Pose_left,Myo_Pose_Right,Kinect_pose_left,Kinect_pose_right
0.9169922,-0.3916016,0.09814453,0.8798828,0.3671875,0.1088867,-1,-2,-1,-2,-2,-1,-1,0,0,-1,-2,-3,0,-1,0,-2,-0.375,-0.375,-0.375,4.5,4.5,4.5,2.835314,3.161077,6.380547,7.106255,3.106651,0.3486536,-0.1296904,-0.4045628,1.217781,0.2290764,-0.4174311,1.203311,0.06501882,0.4995757,1.33358,-0.1857907,-0.4207403,1.225273,0.1910504,-0.4406335,1.18745,0.05731392,0.01686735,1.34179,0.05685382,-0.3172988,1.328181,-0.1249377,0.2017875,1.333121,-0.02766683,-0.3062961,1.293692,-0.1541042,-0.07136241,1.326344,0.2651455,-0.0894639,1.304021,NA,NA,Unknown,Unknown,
0.9067383,-0.3886719,0.09619141,0.8798828,0.3671875,0.1088867,-1,-2,-1,0,-1,-1,-3,-2,0,-1,-2,-3,0,-1,0,-2,-0.8125,-0.8125,-0.8125,4.5,4.5,4.5,2.83564,3.160803,6.380346,7.106255,3.106651,0.3486536,-0.1294455,-0.4028083,1.217895,0.2297175,-0.4179205,1.203269,0.06494983,0.4995059,1.333402,-0.1808587,-0.3978389,1.211129,0.175192,-0.3818537,1.205334,0.05733898,0.01684465,1.341783,0.05683706,-0.3172906,1.328198,-0.124845,0.2019225,1.333256,-0.02768007,-0.3062859,1.293719,-0.1540893,-0.07137034,1.3264,0.265191,-0.08956058,1.304051,NA,NA,Unknown,Unknown,
0.9194336,-0.3911133,0.09863281,0.8798828,0.3671875,0.1088867,-1,-1,0,-1,-2,-2,-1,-2,0,-1,-2,-3,0,-1,0,-2,-1,-1,-1,4.5,4.5,4.5,2.836909,3.159063,6.377911,7.106255,3.106651,0.3486536,-0.1290303,-0.401968,1.21734,0.2301544,-0.4175188,1.202777,0.06488852,0.4993303,1.333004,-0.1806508,-0.397476,1.213722,0.175427,-0.3835644,1.20561,0.05738905,0.0167343,1.341624,0.0568423,-0.3173159,1.328147,-0.1247587,0.2019172,1.333174,-0.02767818,-0.3063007,1.293706,-0.1539356,-0.07135668,1.326329,0.2652396,-0.08939279,1.303949,NA,NA,Unknown,Unknown,
0.9121094,-0.3891602,0.09179688,0.8798828,0.3671875,0.1088867,-1,0,-1,-1,-1,0,1,1,0,-1,-2,-3,0,-1,0,-2,-1.5625,-1.5625,-1.5625,4.5,4.5,4.5,2.835775,3.157398,6.378508,7.106255,3.106651,0.3486536,-0.1289752,-0.403066,1.217991,0.2304139,-0.4182064,1.20385,0.06477755,0.4991698,1.332641,-0.1805311,-0.4157164,1.212182,0.177843,-0.3951866,1.206904,0.05741761,0.01670785,1.341606,0.05685491,-0.3173192,1.328152,-0.1247455,0.2018465,1.333084,-0.02766532,-0.3063113,1.293716,-0.1539322,-0.07135953,1.326353,0.2656024,-0.08908165,1.303925,NA,NA,Unknown,Unknown,
0.9121094,-0.3862305,0.09570313,0.8798828,0.3671875,0.1088867,-1,0,-1,0,-2,0,-1,-1,0,-1,-2,-3,0,-1,0,-2,0.625,0.625,0.625,4.5,4.5,4.5,2.836672,3.157479,6.377764,7.106255,3.106651,0.3486536,-0.1291541,-0.4023668,1.218989,0.2306714,-0.418868,1.204853,0.06466365,0.4991552,1.332336,-0.1812014,-0.399133,1.214355,0.1796956,-0.4103106,1.208714,0.0574326,0.01669822,1.341606,0.05688356,-0.3172819,1.328207,-0.1247343,0.2018448,1.333084,-0.02763689,-0.306291,1.293765,-0.1539324,-0.07136649,1.326374,0.26555,-0.08908693,1.303984,NA,NA,Unknown,Unknown,
0.9160156,-0.3881836,0.1015625,0.8798828,0.3671875,0.1088867,-1,0,1,0,-2,0,0,-1,0,-1,-2,-3,0,-1,0,-2,0.8125,0.8125,0.8125,4.5,4.5,4.5,2.83853,3.157496,6.376075,7.106255,3.106651,0.3486536,-0.1293674,-0.4026817,1.219642,0.2299769,-0.4189052,1.206238,0.06450455,0.4990615,1.332065,-0.1821154,-0.4028931,1.216312,0.1777253,-0.3948505,1.206952,0.05742797,0.01668267,1.341633,0.05690177,-0.3172685,1.328284,-0.124706,0.2018815,1.333137,-0.02762646,-0.3062833,1.293859,-0.153944,-0.07154606,1.326503,0.265514,-0.0893122,1.304213,NA,NA,Unknown,Unknown,
0.9165039,-0.3925781,0.09277344,0.8798828,0.3671875,0.1088867,-1,-2,0,-1,-2,-2,0,-2,0,-1,-2,-3,0,-1,0,-2,1.1875,1.1875,1.1875,4.5,4.5,4.5,2.840757,3.158513,6.377145,7.106255,3.106651,0.3486536,-0.129425,-0.4033286,1.220337,0.2303709,-0.4189172,1.207421,0.06437658,0.4988725,1.331831,-0.1873291,-0.4064617,1.23275,0.1779034,-0.3944368,1.207181,0.05742018,0.01662481,1.34168,0.05689227,-0.317297,1.328345,-0.1246368,0.2018341,1.333298,-0.02762892,-0.3063134,1.293896,-0.153943,-0.07193232,1.326751,0.2654768,-0.08929172,1.304404,NA,NA,Unknown,Unknown,
0.9101563,-0.3911133,0.09277344,0.8798828,0.3671875,0.1088867,-3,-1,-1,0,-1,1,0,-3,0,-1,-2,-3,0,-1,0,-2,-0.0625,-0.0625,-0.0625,4.5,4.5,4.5,2.840726,3.15822,6.377133,7.106255,3.106651,0.3486536,-0.129256,-0.4033263,1.220381,0.2302001,-0.4185141,1.207663,0.06417209,0.4986955,1.331528,-0.1889818,-0.4016638,1.238167,0.1935994,-0.448432,1.181399,0.05741558,0.0165972,1.341704,0.05687361,-0.3173049,1.328375,-0.1245964,0.2018587,1.333385,-0.027655,-0.3063343,1.293958,-0.1539189,-0.07160939,1.327114,0.2657748,-0.08827908,1.304725,NA,NA,Unknown,Unknown,
0.9179688,-0.3955078,0.1030273,0.8798828,0.3671875,0.1088867,0,0,-1,-1,0,-3,-6,-3,0,-1,-2,-3,0,-1,0,-2,-0.5,-0.5,-0.5,4.5,4.5,4.5,2.841264,3.158282,6.376581,7.106255,3.106651,0.3486536,-0.1290732,-0.4035128,1.219747,0.2301133,-0.418907,1.207937,0.06412076,0.4986254,1.331476,-0.1800932,-0.4065356,1.215414,0.178177,-0.3959091,1.207941,0.05741398,0.01656168,1.341723,0.05692111,-0.3173275,1.328431,-0.1246106,0.2018351,1.333387,-0.02759745,-0.3063815,1.294053,-0.1539334,-0.07196391,1.32726,0.2657791,-0.08818579,1.304951,NA,NA,Unknown,Unknown,
0.9179688,-0.3955078,0.1030273,0.8798828,0.3671875,0.1088867,-1,-2,-2,-9,-33,-7,-7,0,0,-1,-2,-3,0,-1,0,-2,-0.5,-0.5,-0.5,4.5,4.5,4.5,2.841264,3.158282,6.376581,7.106255,3.106651,0.3486536,-0.1277602,-0.4014027,1.216033,0.2289447,-0.4140769,1.201154,0.06409219,0.4986266,1.331526,-0.1803361,-0.4090264,1.214172,0.1792019,-0.4149199,1.208583,0.05744245,0.01654368,1.341771,0.05697036,-0.3173402,1.328553,-0.1247403,0.2017608,1.333642,-0.02754359,-0.3064086,1.294164,-0.1541352,-0.07214601,1.327496,0.2660788,-0.08806864,1.306245,NA,NA,Unknown,Unknown,
0.9873047,-0.7719727,0.2978516,0.8798828,0.3671875,0.1088867,2,0,-1,2,3,0,-41,0,0,-1,-2,-3,0,-1,0,-2,-97.3125,-97.3125,-97.3125,4.5,4.5,4.5,2.967252,3.322419,6.018608,7.106255,3.106651,0.3486536,-0.1155197,-0.3856709,1.189731,0.2232076,-0.3791018,1.141695,0.06408589,0.498623,1.331517,-0.1626289,-0.3772542,1.169062,0.1798957,-0.409465,1.165222,0.05748914,0.01654887,1.341758,0.05716589,-0.3171962,1.328584,-0.1248549,0.2018726,1.333661,-0.02738328,-0.3062929,1.294106,-0.1590515,-0.06929522,1.325704,0.2691391,-0.08814824,1.309261,NA,NA,Unknown,Unknown,
0.8110352,-0.9521484,0.3510742,0.8798828,0.3671875,0.1088867,0,-1,-6,6,28,6,12,-1,0,-1,-2,-3,0,-1,0,-2,-199.25,-199.25,-199.25,4.5,4.5,4.5,3.016253,3.550511,5.612759,7.106255,3.106651,0.3486536,-0.0695331,-0.3462741,1.140787,0.2185932,-0.2753779,1.041886,0.06414244,0.4985968,1.331628,-0.10519,-0.3562796,1.107079,0.2135744,-0.3392207,1.0272,0.0576776,0.01668534,1.341898,0.05752537,-0.3167199,1.328638,-0.1250397,0.2028891,1.333693,-0.02731284,-0.3061082,1.294068,-0.1817908,-0.04087733,1.310945,0.2806753,-0.06887773,1.313964,NA,NA,Unknown,Lasso,
0.6479492,-1.026855,0.4580078,0.8798828,0.3671875,0.1088867,-4,-2,-1,-2,10,10,4,-11,0,-1,-2,-3,0,-1,0,-2,-244.125,-244.125,-244.125,4.5,4.5,4.5,2.942904,3.857514,5.182027,7.106255,3.106651,0.3486536,0.002543018,-0.2559689,1.146049,0.1948825,-0.0936018,0.9348684,0.06483982,0.4986154,1.332903,-0.05956615,-0.3186366,1.199846,0.1597611,-0.1078567,0.9078,0.05776878,0.01696398,1.342662,0.05715542,-0.3159089,1.32844,-0.1239142,0.204861,1.332503,-0.02834425,-0.306062,1.293485,-0.2001765,-0.01800817,1.288806,0.3052952,-0.05072405,1.232749,NA,NA,Unknown,Unknown,
0.4863281,-0.9008789,0.5058594,0.8798828,0.3671875,0.1088867,-2,0,3,4,6,8,-5,-9,0,-1,-2,-3,0,-1,0,-2,-190.25,-190.25,-190.25,4.5,4.5,4.5,2.827168,4.174369,4.798472,7.106255,3.106651,0.3486536,0.06092644,-0.1861279,1.137454,0.2090244,0.1207715,0.9471461,0.06722105,0.4987523,1.335703,0.06438578,-0.2492481,1.172562,0.166407,0.1488753,0.9570001,0.05740436,0.01764227,1.346918,0.05550087,-0.3151084,1.333058,-0.1245353,0.2058883,1.331991,-0.02901427,-0.3054057,1.29776,-0.2022573,-0.005114545,1.245754,0.2849368,-0.03847779,1.236319,NA,NA,Unknown,Unknown,
0.3569336,-0.5927734,0.3803711,0.8798828,0.3671875,0.1088867,1,-1,-6,-13,-2,-4,9,3,0,-1,-2,-3,0,-1,0,-2,-115.0625,-115.0625,-115.0625,4.5,4.5,4.5,2.693792,4.489522,4.438631,7.106255,3.106651,0.3486536,0.05679457,-0.1134816,1.159293,0.2291653,0.2523455,1.02992,0.06886548,0.4991402,1.339789,0.05282365,-0.1814671,1.180987,0.1997458,0.2754766,1.091182,0.05715938,0.01929008,1.349362,0.05328364,-0.3125264,1.334042,-0.1182226,0.2126788,1.32757,-0.03098694,-0.3022247,1.298246,-0.1884452,0.009832096,1.215094,0.285869,0.006013323,1.174707,NA,NA,Unknown,Unknown,
0.2802734,-0.640625,0.2290039,0.8798828,0.3671875,0.1088867,-8,0,2,-2,-5,-13,-70,-10,0,-1,-2,-3,0,-1,0,-2,-63.75,-63.75,-63.75,4.5,4.5,4.5,2.621841,4.627716,4.273647,7.106255,3.106651,0.3486536,0.1320268,-0.08239189,1.118526,0.2440818,0.3148562,1.082721,0.07028353,0.4997001,1.344025,0.09393757,-0.1253706,1.187923,0.2155897,0.3410492,1.133273,0.05750866,0.02007692,1.351116,0.0525841,-0.3114509,1.334271,-0.1130209,0.2160372,1.325004,-0.03171079,-0.3007485,1.298266,-0.178429,0.01615063,1.203637,0.2854723,0.06981108,1.119645,NA,NA,Unknown,Lasso,
0.3540039,-0.675293,0.1948242,0.8798828,0.3671875,0.1088867,-13,-3,-6,-2,-6,-7,-36,-33,0,-1,-2,-3,0,-1,0,-2,-32.125,-32.125,-32.125,4.5,4.5,4.5,2.600961,4.69365,4.188628,7.106255,3.106651,0.3486536,0.08337846,-0.04147423,1.107054,0.2547248,0.3537509,1.122423,0.07073356,0.501148,1.349873,0.07005964,-0.07643503,1.1845,0.2333288,0.3631897,1.189333,0.05782399,0.02098564,1.352796,0.05245884,-0.3105926,1.334349,-0.1100928,0.2173193,1.324122,-0.03180042,-0.2997208,1.298211,-0.1642237,0.0189085,1.1942,0.2860757,0.08447622,1.109344,NA,NA,Unknown,Unknown,
0.3540039,-0.675293,0.1948242,0.8798828,0.3671875,0.1088867,-10,-7,-7,-9,-8,-13,-67,-15,0,-1,-2,-3,0,-1,0,-2,-32.125,-32.125,-32.125,4.5,4.5,4.5,2.600961,4.69365,4.188628,7.106255,3.106651,0.3486536,0.1027906,-0.03374747,1.101004,0.265279,0.3480582,1.139548,0.07044739,0.5012874,1.352249,0.08066413,-0.04905491,1.096,0.241006,0.3493118,1.1904,0.05810487,0.0213807,1.350653,0.05254607,-0.309757,1.334163,-0.1178342,0.2122956,1.327224,-0.031573,-0.299181,1.298143,-0.1538692,0.01566728,1.18792,0.2775038,0.07363884,1.115417,NA,NA,Unknown,Closed,
0.1699219,-1.040527,0.04785156,0.8798828,0.3671875,0.1088867,-2,-5,-8,-10,-12,-2,50,5,0,-1,-2,-3,0,-1,0,-2,33.625,33.625,33.625,4.5,4.5,4.5,2.67085,4.801398,4.157366,7.106255,3.106651,0.3486536,0.1146537,-0.02491735,1.104843,0.2653725,0.3441861,1.138324,0.06993361,0.5016906,1.354088,0.08503167,-0.01855881,1.1145,0.3042961,0.3424973,1.145333,0.05858137,0.02174417,1.352146,0.05267081,-0.3093367,1.333903,-0.1158677,0.2119479,1.325333,-0.0313135,-0.2987809,1.297976,-0.1473083,0.0141192,1.186596,0.2744011,0.06879218,1.11898,NA,NA,Unknown,Unknown,
-0.02685547,-1.012695,0.04003906,0.8798828,0.3671875,0.1088867,-1,0,-3,-13,-29,-42,-24,-9,0,-1,-2,-3,0,-1,0,-2,-19.25,-19.25,-19.25,4.5,4.5,4.5,2.682723,4.779724,4.152954,7.106255,3.106651,0.3486536,0.1002568,-0.05579249,1.160751,0.2551606,0.3433496,1.13513,0.06953005,0.5017684,1.355171,0.1080927,-0.1138312,1.185719,0.2334121,0.3277492,1.184776,0.05922183,0.02170755,1.352794,0.05295741,-0.3090452,1.333541,-0.1126529,0.2125067,1.322783,-0.03091471,-0.2984076,1.297582,-0.1452487,0.01324531,1.186517,0.2721455,0.06471527,1.121994,NA,NA,Unknown,Unknown,
0.3071289,-1.344727,0.2504883,0.8798828,0.3671875,0.1088867,-1,0,-3,-4,-10,-16,-7,-9,0,-1,-2,-3,0,-1,0,-2,-31.4375,-31.4375,-31.4375,4.5,4.5,4.5,2.668733,4.768677,4.157304,7.106255,3.106651,0.3486536,0.1970714,-0.02534382,1.132799,0.2391356,0.340132,1.118431,0.06930294,0.5018854,1.355594,0.1294389,-0.1151652,1.191263,0.2781693,0.3468082,1.119333,0.05979143,0.02163706,1.352429,0.05347608,-0.3085444,1.332679,-0.110644,0.2128164,1.321554,-0.03044927,-0.2978289,1.29667,-0.1443519,0.01312412,1.186245,0.2697277,0.06251708,1.123696,NA,NA,Unknown,Unknown,
-0.07617188,-0.9902344,0.1025391,0.8798828,0.3671875,0.1088867,4,-4,-5,0,6,17,19,16,0,-1,-2,-3,0,-1,0,-2,-17.875,-17.875,-17.875,4.5,4.5,4.5,2.681159,4.788181,4.1303,7.106255,3.106651,0.3486536,0.1964058,-0.02232429,1.132621,0.1899119,0.3078856,1.092978,0.06874795,0.501963,1.356211,0.2922416,-0.03523353,1.1125,0.220967,0.2697626,1.0904,0.06015468,0.0225774,1.352093,0.05395826,-0.3061279,1.331413,-0.1142908,0.2105044,1.324061,-0.03026101,-0.2955583,1.295688,-0.1446636,0.01245396,1.185395,0.2617444,0.06434435,1.122259,NA,NA,Unknown,Unknown,
-0.05517578,-0.9819336,0.1142578,0.8798828,0.3671875,0.1088867,-5,-3,-2,0,7,26,41,-8,0,-1,-2,-3,0,-1,0,-2,-2.8125,-2.8125,-2.8125,4.5,4.5,4.5,2.670383,4.824285,4.12743,7.106255,3.106651,0.3486536,0.1239675,-0.04644199,1.158457,0.1085689,0.2625116,1.066528,0.06564742,0.5084344,1.357552,0.1441508,-0.08621243,1.20275,0.1160544,0.3002883,1.073364,0.05803169,0.01899778,1.351111,0.05393793,-0.3108678,1.330786,-0.1192331,0.2068557,1.325829,-0.03066102,-0.3010826,1.296441,-0.1468797,0.01105991,1.18324,0.2465836,0.0464168,1.125256,NA,NA,Unknown,Unknown,
0.1274414,-0.8535156,-0.1938477,0.8798828,0.3671875,0.1088867,5,-1,-4,-3,-7,-14,-33,-6,0,-1,-2,-3,0,-1,0,-2,17.8125,17.8125,17.8125,4.5,4.5,4.5,2.663298,4.867557,4.145706,7.106255,3.106651,0.3486536,0.112566,-0.0430137,1.15595,-0.0116339,0.1958022,1.038386,0.06699348,0.5053863,1.359235,0.1127879,-0.1144232,1.187964,-0.007540576,0.2218925,1.045556,0.06025051,0.01140093,1.349063,0.05699037,-0.3247826,1.32991,-0.1245902,0.1978443,1.323243,-0.02786794,-0.3155953,1.293,-0.1370256,0.00375359,1.175941,0.2178781,0.02208985,1.116653,NA,NA,Unknown,Unknown,
1.143555,-0.9350586,0.4746094,0.8798828,0.3671875,0.1088867,-1,-4,-4,-5,-3,1,1,4,0,-1,-2,-3,0,-1,0,-2,8.375,8.375,8.375,4.5,4.5,4.5,2.710014,4.890417,4.158759,7.106255,3.106651,0.3486536,0.2172246,0.02114872,1.086679,-0.06407174,0.04457297,1.070128,0.06640726,0.5048845,1.361173,0.202136,-0.04537876,1.179556,-0.01841151,0.08378807,1.011417,0.06089981,0.0163354,1.35017,0.05745963,-0.3125584,1.331794,-0.1206869,0.200219,1.322378,-0.02492546,-0.3015345,1.293826,-0.1077606,0.01125398,1.132622,0.222657,0.02394691,1.116559,NA,NA,NotTracked,NotTracked,
0.9477539,-0.4692383,0.3164063,0.8798828,0.3671875,0.1088867,0,-1,-1,5,-4,-5,12,11,0,-1,-2,-3,0,-1,0,-2,44.875,44.875,44.875,4.5,4.5,4.5,2.788276,4.777663,4.182007,7.106255,3.106651,0.3486536,0.1619421,0.01185495,1.072282,-0.07885635,-0.007211546,1.0543,0.06576189,0.5046121,1.362352,0.1713225,-0.03798834,1.067312,-0.08785027,-0.0180626,1.004974,0.06024041,0.02135006,1.353803,0.05717985,-0.305247,1.332445,-0.1150927,0.2064702,1.323417,-0.02437098,-0.2940666,1.29666,-0.1248174,0.00371197,1.160584,0.2312458,0.02566332,1.121112,NA,NA,NotTracked,NotTracked,
-0.6982422,-1.364746,-0.2583008,0.8798828,0.3671875,0.1088867,0,0,-4,1,9,35,24,-6,0,-1,-2,-3,0,-1,0,-2,21.25,21.25,21.25,4.5,4.5,4.5,2.788619,4.776171,4.207493,7.106255,3.106651,0.3486536,0.1314872,-0.004511296,1.071039,-0.08276992,-0.02345146,1.055134,0.06416994,0.5044941,1.363412,0.1429411,-0.051059,1.083708,-0.08036861,-0.03705083,1.009491,0.06008653,0.02221372,1.353328,0.05719391,-0.3041108,1.332548,-0.1168959,0.2040286,1.32354,-0.02430911,-0.2933758,1.296795,-0.1443971,0.01040555,1.177802,0.2324985,0.02572304,1.124398,NA,NA,NotTracked,NotTracked,
-0.324707,-1.197754,0.2822266,0.8798828,0.3671875,0.1088867,2,3,1,3,6,-18,25,22,0,-1,-2,-3,0,-1,0,-2,-5.5625,-5.5625,-5.5625,4.5,4.5,4.5,2.841199,4.804364,4.215499,7.106255,3.106651,0.3486536,0.1352585,-0.007931255,1.0726,-0.09264132,-0.02759253,1.054792,0.0625495,0.504632,1.363782,0.1569544,-0.05687068,1.082692,-0.07946454,-0.04026342,1.010156,0.0592903,0.02313965,1.353975,0.05676848,-0.303498,1.332669,-0.116911,0.2046979,1.324871,-0.02466581,-0.2930264,1.297081,-0.1455936,0.007948035,1.183917,0.232951,0.02565405,1.127473,NA,NA,NotTracked,NotTracked,
0.01269531,-1.154785,0.4282227,0.8798828,0.3671875,0.1088867,3,0,0,-3,-4,17,-16,-14,0,-1,-2,-3,0,-1,0,-2,-11.125,-11.125,-11.125,4.5,4.5,4.5,2.842252,4.808733,4.212687,7.106255,3.106651,0.3486536,0.08554691,-0.0220496,1.077756,-0.09154569,-0.02888926,1.061857,0.06142065,0.5045493,1.363829,0.04927879,-0.07778194,1.167875,-0.1256419,0.01290566,1.1413,0.05864782,0.02386921,1.354632,0.05611369,-0.3029299,1.332933,-0.1170463,0.2052263,1.326169,-0.02532255,-0.2926894,1.297699,-0.1461618,0.008634713,1.185085,0.233018,0.02552927,1.128785,NA,NA,NotTracked,NotTracked,
-0.2807617,-1.139648,0.5966797,0.8798828,0.3671875,0.1088867,-1,-6,-5,-3,-4,-4,2,-5,0,-1,-2,-3,0,-1,0,-2,-21.125,-21.125,-21.125,4.5,4.5,4.5,2.821348,4.817229,4.198537,7.106255,3.106651,0.3486536,0.1358394,-0.006133685,1.073756,-0.08424819,-0.02524743,1.063437,0.06075758,0.5043017,1.363682,0.09946106,-0.05747747,1.11015,-0.08925381,-0.01891438,1.134917,0.05828354,0.02406358,1.35487,0.05556922,-0.3028686,1.332991,-0.1171425,0.2056049,1.326753,-0.02603095,-0.2927314,1.298273,-0.1468099,0.008987272,1.185837,0.2333035,0.02588921,1.130204,NA,NA,NotTracked,NotTracked,
-0.15625,-0.9946289,0.2592773,0.8798828,0.3671875,0.1088867,0,0,-2,-4,1,18,4,-7,0,-1,-2,-3,0,-1,0,-2,0.4375,0.4375,0.4375,4.5,4.5,4.5,2.8355,4.760296,4.189227,7.106255,3.106651,0.3486536,0.0979818,-0.01095492,1.068562,-0.0846419,-0.02420245,1.065514,0.06054508,0.5042548,1.36358,0.1195305,-0.0534233,1.089807,-0.126707,0.01893084,1.138731,0.05800513,0.02422089,1.354998,0.0550786,-0.3028213,1.332912,-0.1171743,0.2058944,1.327088,-0.02651791,-0.2927355,1.29848,-0.1504695,0.008126231,1.188811,0.2332633,0.02606661,1.130749,NA,NA,NotTracked,NotTracked,
0.7646484,-0.8374023,-0.03222656,0.8798828,0.3671875,0.1088867,0,2,1,0,-3,-17,-6,-3,0,-1,-2,-3,0,-1,0,-2,5,5,5,4.5,4.5,4.5,2.822124,4.748554,4.189982,7.106255,3.106651,0.3486536,0.09578306,-0.01156452,1.067854,-0.08703808,-0.02279739,1.062126,0.06047839,0.5041708,1.363583,0.1124256,-0.0554039,1.09591,-0.1374369,0.02227769,1.1436,0.05784223,0.02454301,1.354312,0.05466409,-0.3023481,1.332707,-0.1170675,0.2062914,1.327294,-0.02687705,-0.2922551,1.298036,-0.1527615,0.008641801,1.189495,0.2332218,0.02580499,1.131242,NA,NA,NotTracked,NotTracked,
0.9824219,-0.7915039,-0.02441406,0.8798828,0.3671875,0.1088867,1,0,-1,0,-1,-2,3,2,0,-1,-2,-3,0,-1,0,-2,7.0625,7.0625,7.0625,4.5,4.5,4.5,2.827031,4.720794,4.190018,7.106255,3.106651,0.3486536,0.1086355,-0.011078,1.067624,-0.08632,-0.02106602,1.058958,0.06045637,0.5041271,1.363657,0.1134535,-0.05634179,1.091552,-0.1355591,0.02388602,1.139946,0.05748274,0.02476377,1.354579,0.05434012,-0.3021608,1.332637,-0.1169567,0.2065335,1.327286,-0.02717051,-0.2920609,1.297867,-0.1513137,0.008762873,1.189295,0.2332091,0.02541555,1.131494,NA,NA,NotTracked,NotTracked,
0.3950195,-1.006836,0.5600586,0.8798828,0.3671875,0.1088867,0,1,2,-3,1,2,14,1,0,-1,-2,-3,0,-1,0,-2,-3.5625,-3.5625,-3.5625,4.5,4.5,4.5,2.837288,4.660714,4.20226,7.106255,3.106651,0.3486536,-0.03094589,-0.01037696,1.040907,-0.08277939,-0.009922451,1.038773,0.06044937,0.5041278,1.363636,0.04980225,-0.003534372,1.022621,-0.08823549,0.02040754,1.0194,0.05721111,0.02512702,1.354611,0.05407772,-0.3016815,1.332577,-0.1168686,0.2069881,1.327295,-0.02734685,-0.2915917,1.297626,-0.1514086,0.009429968,1.189025,0.2336959,0.02495995,1.132051,NA,NA,NotTracked,NotTracked,
-0.3989258,-0.9243164,-0.1967773,0.8798828,0.3671875,0.1088867,5,4,28,29,4,2,-1,0,0,-1,-2,-3,0,-1,0,-2,-5,-5,-5,4.5,4.5,4.5,2.820774,4.637589,4.205354,7.106255,3.106651,0.3486536,-0.04099941,-0.00910039,1.033206,-0.07245216,-0.007929174,1.030169,0.06036835,0.5041146,1.363524,0.03251833,-0.004533559,1.0174,-0.07899441,0.02326196,1.0122,0.0569062,0.02553675,1.354143,0.05372851,-0.3010547,1.332605,-0.1168589,0.2077162,1.327278,-0.02758524,-0.2909753,1.297633,-0.1491582,0.009951831,1.188719,0.235938,0.0201571,1.134063,NA,NA,NotTracked,NotTracked,
0.2021484,-0.8237305,0.4414063,0.8798828,0.3671875,0.1088867,-4,2,-2,-1,-2,-2,-2,11,0,-1,-2,-3,0,-1,0,-2,43.6875,43.6875,43.6875,4.5,4.5,4.5,2.878671,4.502374,4.223736,7.106255,3.106651,0.3486536,-0.0135402,-0.01997234,1.030863,-0.06375033,-0.01498779,1.025274,0.06003387,0.5041993,1.363206,0.05391268,-0.02230241,1.02,-0.06760769,0.01569788,1.0155,0.05653563,0.02566977,1.354115,0.05363364,-0.301209,1.332529,-0.1190895,0.2055638,1.326648,-0.02770866,-0.2911372,1.297717,-0.1519554,0.00503107,1.192594,0.2396965,-0.003350363,1.146463,NA,NA,NotTracked,NotTracked,
0.3505859,-0.6367188,0.3208008,0.8798828,0.3671875,0.1088867,1,-3,-4,-7,-7,-3,-4,9,0,-1,-2,-3,0,-1,0,-2,113.9375,113.9375,113.9375,4.5,4.5,4.5,3.023398,4.275258,4.390959,7.106255,3.106651,0.3486536,-0.03903482,-0.05021423,1.017444,-0.01060206,-0.05119054,1.025449,0.05943957,0.5045249,1.362653,0.002408898,-0.02714937,1.012,-0.03416209,-0.02311729,0.9896364,0.05577528,0.02551,1.353294,0.05307059,-0.3022298,1.331542,-0.1209404,0.2048789,1.327286,-0.02827071,-0.2920457,1.296944,-0.168088,-0.007132703,1.220118,0.2759713,0.007055386,1.179776,NA,NA,NotTracked,NotTracked,
0.5327148,-0.71875,0.4677734,0.8798828,0.3671875,0.1088867,-2,-2,6,11,10,14,15,-26,0,-1,-2,-3,0,-1,0,-2,175,175,175,4.5,4.5,4.5,3.167282,4.036216,4.667315,7.106255,3.106651,0.3486536,0.005551321,-0.1279266,1.022398,0.0314303,-0.1219504,1.019219,0.05842019,0.5047431,1.360913,-0.001267765,-0.189379,1.086,0.009875994,-0.09853434,0.9755335,0.05502889,0.0243279,1.352276,0.05321139,-0.306553,1.331097,-0.1223895,0.2022094,1.326982,-0.02790965,-0.2963336,1.296768,-0.1762377,-0.02252275,1.263325,0.2904924,-0.007139097,1.212619,NA,NA,NotTracked,NotTracked,
0.8344727,-0.8535156,0.4770508,0.8798828,0.3671875,0.1088867,-5,-5,-6,-4,-5,0,1,-5,0,-1,-2,-3,0,-1,0,-2,210.6875,210.6875,210.6875,4.5,4.5,4.5,3.262041,3.793562,5.046192,7.106255,3.106651,0.3486536,-0.006610255,-0.2532877,1.132251,0.1055053,-0.2099799,1.049712,0.05720578,0.5051455,1.357859,-0.01644678,-0.3004352,1.094029,0.1048295,-0.2263708,0.9958333,0.05352602,0.02309451,1.350315,0.05187007,-0.308883,1.33057,-0.1236657,0.20156,1.328059,-0.02993248,-0.29889,1.296306,-0.1771084,-0.02988101,1.293308,0.2935464,-0.02053134,1.253655,NA,NA,NotTracked,NotTracked,
0.6293945,-0.7958984,0.3803711,0.8798828,0.3671875,0.1088867,-6,-2,7,0,-1,4,-1,-6,0,-1,-2,-3,0,-1,0,-2,194.3125,194.3125,194.3125,4.5,4.5,4.5,3.290638,3.600734,5.463072,7.106255,3.106651,0.3486536,-0.06391592,-0.3243909,1.164981,0.1622069,-0.2940161,1.085113,0.05620106,0.5053086,1.353562,-0.1125186,-0.3470658,1.173286,0.1586762,-0.3062524,1.023875,0.05144126,0.02177883,1.344625,0.04926652,-0.3112519,1.324541,-0.1251556,0.200488,1.32905,-0.03506904,-0.2999404,1.290128,-0.1763579,-0.04105683,1.317134,0.2887774,-0.02789184,1.282709,NA,NA,Unknown,NotTracked,
0.7651367,-0.6928711,0.4042969,0.8798828,0.3671875,0.1088867,-3,2,1,0,-2,2,2,-4,0,-1,-2,-3,0,-1,0,-2,109.4375,109.4375,109.4375,4.5,4.5,4.5,3.211566,3.452117,5.74878,7.106255,3.106651,0.3486536,-0.1079609,-0.3588714,1.194266,0.2069263,-0.3596205,1.138948,0.05575996,0.5059153,1.348958,-0.1516564,-0.3836,1.161905,0.2130631,-0.364216,1.082981,0.05164239,0.0212396,1.342654,0.04991414,-0.3120062,1.323488,-0.1267989,0.200599,1.331615,-0.03465656,-0.3008029,1.289016,-0.1732779,-0.04953099,1.32998,0.2825109,-0.04718176,1.298079,NA,NA,Unknown,Unknown,
0.9165039,-0.465332,0.3046875,0.8798828,0.3671875,0.1088867,-5,-2,-1,-2,-4,0,-5,-3,0,-1,-2,-3,0,-1,0,-2,29.625,29.625,29.625,4.5,4.5,4.5,2.709437,3.151071,6.558901,7.106255,3.106651,0.3486536,-0.1471042,-0.3876235,1.227652,0.2424949,-0.4022255,1.187952,0.05565429,0.5059556,1.345043,-0.2043494,-0.3818583,1.2316,0.2797965,-0.396454,1.163055,0.05213629,0.02080346,1.342039,0.05137204,-0.313101,1.324125,-0.1272573,0.2005985,1.332423,-0.03281808,-0.3022275,1.289724,-0.1713232,-0.06357954,1.334904,0.2795709,-0.06634037,1.304379,NA,NA,NotTracked,Unknown,
1.054688,-0.4672852,0.112793,0.8798828,0.3671875,0.1088867,1,3,0,0,-2,-2,0,1,0,-1,-2,-3,0,-1,0,-2,23.375,23.375,23.375,4.5,4.5,4.5,2.175462,3.069263,7.16809,7.106255,3.106651,0.3486536,-0.174681,-0.4105774,1.257619,0.26807,-0.4248314,1.223781,0.05588356,0.5059813,1.341717,-0.2318305,-0.4044555,1.258444,0.3180064,-0.4375221,1.207,0.05246793,0.02033033,1.34174,0.05241902,-0.3146245,1.32565,-0.1273265,0.2006717,1.332649,-0.03136148,-0.3039021,1.291493,-0.1678474,-0.07703651,1.335907,0.2751263,-0.07962225,1.306563,NA,NA,NotTracked,Unknown,
1.066406,-0.3745117,-0.05322266,0.8798828,0.3671875,0.1088867,-1,0,-1,-2,1,-4,-1,1,0,-1,-2,-3,0,-1,0,-2,56.25,56.25,56.25,4.5,4.5,4.5,1.886743,3.047686,7.567643,7.106255,3.106651,0.3486536,-0.1875157,-0.414645,1.277495,0.2781401,-0.4311245,1.245516,0.05656743,0.5060644,1.339096,-0.2398752,-0.3987581,1.276913,0.3298795,-0.4326135,1.231625,0.05291638,0.0199376,1.341265,0.05305838,-0.3154193,1.326623,-0.1271776,0.2006923,1.332394,-0.03062721,-0.3047018,1.292447,-0.165763,-0.08496313,1.335981,0.2740036,-0.08520462,1.309326,NA,NA,NotTracked,NotTracked,
0.953125,-0.2314453,-0.01074219,0.8798828,0.3671875,0.1088867,-3,-1,-2,-2,-1,0,0,-1,0,-1,-2,-3,0,-1,0,-2,41.125,41.125,41.125,4.5,4.5,4.5,1.966932,3.023763,7.627416,7.106255,3.106651,0.3486536,-0.1841751,-0.4122403,1.282082,0.2760472,-0.4341055,1.256317,0.05755433,0.5062915,1.33619,-0.2341937,-0.3987623,1.286941,0.3213568,-0.4333782,1.237375,0.05317932,0.01971987,1.341078,0.05340574,-0.3160688,1.327959,-0.1269247,0.1996907,1.330864,-0.0302596,-0.3053639,1.293764,-0.16506,-0.08717706,1.338451,0.2734649,-0.08993547,1.315108,NA,NA,NotTracked,NotTracked,
