ALX,ALY,ALZ,ARX,ARY,ARZ,EMG0L,EMG1L,EMG2L,EMG3L,EMG4L,EMG5L,EMG6L,EMG7L,EMG0R,EMG1R,EMG2R,EMG3R,EMG4R,EMG5R,EMG6R,EMG7R,GLX,GLY,GLZ,GRX,GRY,GRZ,ORL,OPL,OYL,ORR,OPR,OYR,LHNX,LHNY,LHNZ,RHNX,RHNY,RHNZ,HX,HY,HZ,LTX,LTY,LTZ,RTX,RTY,RTZ,SpineMidX,SpineMidY,SpineMidZ,SpineBaseX,SpineBaseY,SpineBaseZ,ShoulderLeftX,ShoulderLeftY,ShoulderLeftZ,ShoulderRightX,ShoulderRightY,ShoulderRightZ,ElbowLeftX,ElbowLeftY,ElbowLeftZ,ElbowRightX,ElbowRightY,ElbowRightZ,Myo_Pose_left,Myo_Pose_Right,Kinect_pose_left,Kinect_pose_right
0.9160156,0.3237305,0.06396484,0.9301758,-0.3598633,0.04638672,-5,-2,-2,0,-1,-2,7,12,0,0,-2,0,1,-3,0,0,-0.1875,-0.1875,-0.1875,0.6875,0.6875,0.6875,7.292354,3.050206,9.481168,2.691229,3.111366,6.745332,-0.1457722,-0.3999265,1.235032,0.2498113,-0.4238702,1.20343,0.0546614,0.5031525,1.327373,-0.2007287,-0.4140354,1.22475,0.2844084,-0.4265988,1.162669,0.05421722,0.01642569,1.33989,0.05635212,-0.3191302,1.32948,-0.1282741,0.1955019,1.334096,-0.027528,-0.309435,1.297099,-0.1605113,-0.08800466,1.335198,0.2658377,-0.08324742,1.298305,NA,NA,NotTracked,Unknown,
0.9121094,0.324707,0.06347656,0.9233398,-0.3608398,0.05029297,0,0,-2,-1,-1,0,0,3,1,-2,-1,-2,-1,-1,-2,2,0.6875,0.6875,0.6875,0.3125,0.3125,0.3125,7.288427,3.049863,9.483875,2.696073,3.110986,6.74491,-0.1455417,-0.3995999,1.235737,0.2493867,-0.4237939,1.203522,0.05662927,0.5024824,1.327841,-0.2006654,-0.4213419,1.2278,0.2841853,-0.4311068,1.161853,0.05520615,0.01623878,1.340186,0.05701923,-0.3192069,1.329676,-0.1274659,0.1958306,1.334899,-0.02689538,-0.3094684,1.29727,-0.1596498,-0.08815299,1.335443,0.2668105,-0.0840024,1.298311,NA,NA,NotTracked,Unknown,
0.9267578,0.3222656,0.05810547,0.9243164,-0.3720703,0.04931641,0,-2,-1,0,1,0,-2,1,-1,-2,-2,-2,-1,0,-2,1,0.9375,0.9375,0.9375,-3.25,-3.25,-3.25,7.27738,3.04857,9.495386,2.6826,3.104926,6.755445,-0.1463023,-0.4004573,1.237994,0.2497345,-0.4244455,1.204337,0.05845569,0.5019789,1.328495,-0.20297,-0.4198717,1.235083,0.2869147,-0.4303111,1.166,0.05579828,0.01612916,1.340459,0.05756996,-0.3192636,1.329913,-0.1268615,0.1961843,1.335493,-0.02639037,-0.3094841,1.297431,-0.1591826,-0.08839107,1.335869,0.2674016,-0.08469143,1.298502,NA,NA,NotTracked,Unknown,
0.9155273,0.328125,0.05419922,0.9257813,-0.3725586,0.04394531,-3,-2,0,-1,1,0,0,2,-1,-1,-3,-1,-1,0,-1,-1,0.5625,0.5625,0.5625,1.625,1.625,1.625,7.267801,3.047841,9.507038,2.667725,3.10129,6.774426,-0.1483245,-0.4002237,1.238937,0.2479542,-0.4254966,1.203694,0.06038618,0.5015216,1.329234,-0.2013695,-0.3930169,1.2392,0.273461,-0.4357156,1.153139,0.05640493,0.01605555,1.340789,0.0580384,-0.3193189,1.330134,-0.126598,0.1966755,1.336491,-0.0259558,-0.3094923,1.29756,-0.1587654,-0.08854786,1.336256,0.2678208,-0.08530964,1.298824,NA,NA,NotTracked,Unknown,
0.9155273,0.3334961,0.05664063,0.925293,-0.3696289,0.04785156,-1,-1,1,1,0,-1,0,-1,-2,-1,-2,-3,-1,-1,0,-1,2.4375,2.4375,2.4375,1.375,1.375,1.375,7.259196,3.047568,9.518823,2.659555,3.101029,6.787149,-0.1487573,-0.4017232,1.239714,0.247335,-0.4259709,1.204315,0.06244814,0.5013185,1.330287,-0.2017218,-0.3976512,1.236398,0.2846678,-0.4292063,1.168,0.0569575,0.01595143,1.341034,0.05843465,-0.3193592,1.33037,-0.1260453,0.1970319,1.337016,-0.02552933,-0.3094882,1.297736,-0.1586272,-0.0883261,1.336719,0.2679115,-0.08540517,1.298917,NA,NA,NotTracked,Unknown,
0.9233398,0.3261719,0.04980469,0.9306641,-0.3657227,0.05371094,0,-1,0,0,0,0,-1,-1,-1,-2,-1,0,-2,-1,-1,0,-0.625,-0.625,-0.625,0.8125,0.8125,0.8125,7.255582,3.047915,9.523928,2.651423,3.102578,6.79723,-0.1492262,-0.4010963,1.24019,0.24727,-0.4255834,1.20405,0.06406748,0.5014241,1.331279,-0.2044286,-0.3995945,1.238943,0.2761108,-0.4354835,1.157605,0.05741745,0.01588367,1.341312,0.05869538,-0.3194278,1.330554,-0.1258794,0.1972358,1.337238,-0.02530704,-0.3095017,1.297806,-0.1585779,-0.08822338,1.336893,0.268063,-0.08578864,1.298959,NA,NA,NotTracked,Unknown,
0.925293,0.3183594,0.04833984,0.9233398,-0.3701172,0.06005859,1,-3,-1,-1,0,0,-3,-2,-1,-1,-1,0,1,-3,-1,0,0.3125,0.3125,0.3125,-2.125,-2.125,-2.125,7.253284,3.047701,9.525557,2.65226,3.105505,6.794733,-0.1497044,-0.3991289,1.241005,0.2469899,-0.4252316,1.203646,0.06501956,0.5014918,1.331867,-0.2064337,-0.383011,1.249364,0.2797064,-0.4344571,1.161906,0.05772938,0.01593263,1.341509,0.05890151,-0.3193864,1.330754,-0.1254405,0.1976588,1.337421,-0.0251276,-0.3094243,1.297888,-0.1586861,-0.08787222,1.337191,0.2679981,-0.08576185,1.299084,NA,NA,NotTracked,Unknown,
0.9350586,0.3320313,0.03613281,0.9223633,-0.3603516,0.04638672,-2,-8,-2,0,0,0,-3,-2,-2,-3,0,-2,-1,-1,0,0,-1.6875,-1.6875,-1.6875,-3.1875,-3.1875,-3.1875,7.25232,3.047815,9.527328,2.653445,3.106774,6.788941,-0.1495907,-0.3986602,1.24081,0.2470606,-0.4253646,1.20467,0.06566755,0.5014457,1.332166,-0.2045673,-0.3927572,1.240863,0.2704972,-0.4386465,1.1525,0.05799875,0.01592353,1.341817,0.05904103,-0.3193844,1.331063,-0.1252819,0.1978114,1.337589,-0.02502139,-0.3093867,1.298047,-0.158666,-0.08797966,1.337354,0.2679538,-0.08599915,1.29923,NA,NA,NotTracked,Unknown,
1.096191,0.3925781,-0.04589844,0.9580078,-0.3637695,0.01953125,-2,33,17,1,-2,-1,-2,-7,-2,-3,-3,-1,-1,-2,-4,-2,-107.3125,-107.3125,-107.3125,-3.125,-3.125,-3.125,7.069696,3.09889,9.564878,2.66748,3.112717,6.765761,-0.1486649,-0.3990455,1.236648,0.2456012,-0.422251,1.202184,0.06602568,0.5013757,1.332428,-0.213033,-0.4142512,1.2615,0.2807196,-0.4275041,1.165003,0.05813374,0.01587144,1.342034,0.05910269,-0.3193851,1.331404,-0.125196,0.1979788,1.337725,-0.02497655,-0.3093458,1.298335,-0.1587905,-0.08747417,1.337555,0.26806,-0.08603463,1.299521,NA,NA,NotTracked,Unknown,
1.231445,0.4692383,0.378418,1.052734,-0.4321289,-0.04296875,0,7,0,6,3,1,0,3,-2,-4,-3,-9,-9,-9,-32,-7,-90.75,-90.75,-90.75,14.3125,14.3125,14.3125,6.700563,3.26228,9.784204,2.772363,3.149465,6.659116,-0.1438848,-0.3890261,1.228748,0.2377248,-0.3990581,1.187368,0.06626001,0.5013472,1.332826,-0.1970125,-0.3843416,1.2185,0.2544044,-0.4127269,1.123514,0.05831295,0.01586019,1.34236,0.05918244,-0.31936,1.331609,-0.1252069,0.1981553,1.338062,-0.02491376,-0.3093223,1.298503,-0.1598003,-0.08678988,1.339014,0.2700498,-0.08681864,1.304366,NA,NA,NotTracked,Unknown,
0.8618164,0.8125,0.684082,1.043945,-0.5708008,0.3173828,1,8,0,-1,5,-1,0,-3,1,-2,-1,6,-12,-7,-14,3,14.6875,14.6875,14.6875,-43.125,-43.125,-43.125,6.453968,3.621915,0.03413044,3.1101,3.317237,6.243919,-0.128447,-0.3699787,1.197689,0.221835,-0.347408,1.130881,0.06624183,0.5013421,1.333183,-0.1740446,-0.3616281,1.176351,0.2255056,-0.3447985,1.06524,0.05821942,0.01594127,1.34255,0.05896029,-0.3191951,1.331664,-0.1254663,0.1988948,1.338709,-0.02528899,-0.3089594,1.298565,-0.1679402,-0.07919702,1.343537,0.2767184,-0.08009858,1.316884,NA,NA,Unknown,Closed,
0.2163086,0.9863281,0.7841797,0.8310547,-0.7456055,0.3842773,-5,-17,-12,-5,-5,3,1,3,-4,-1,-1,-10,-13,-11,-12,-8,-41.25,-41.25,-41.25,-115.625,-115.625,-115.625,6.337934,4.346667,0.1955297,3.20921,3.47419,5.99604,-0.0878166,-0.3263326,1.152795,0.1961417,-0.249938,1.064297,0.06606773,0.5011932,1.33365,-0.1379091,-0.3543479,1.1476,0.2200263,-0.2329875,1.024462,0.05806033,0.01607224,1.342565,0.0581945,-0.3186508,1.330683,-0.125966,0.1988959,1.336904,-0.02686292,-0.3084837,1.297186,-0.1848636,-0.05064579,1.346029,0.2835593,-0.05798743,1.32512,NA,NA,Unknown,Closed,
-0.2119141,0.7558594,0.6845703,0.4702148,-0.956543,0.5361328,1,-1,-21,-10,-37,-31,-5,2,2,-1,-3,-7,-7,5,-5,5,-5.5,-5.5,-5.5,-154.75,-154.75,-154.75,6.29534,5.009701,0.2334945,3.224289,4.003189,5.413563,-0.01527958,-0.249253,1.152324,0.1783918,-0.08604056,0.9893237,0.06592263,0.5010083,1.334278,-0.0654526,-0.3351495,1.19475,0.1961637,-0.07123901,0.9561,0.05803171,0.0164445,1.342816,0.05823538,-0.3174207,1.329486,-0.1259533,0.2020805,1.338975,-0.02685465,-0.3082369,1.296048,-0.2020586,-0.02802145,1.338287,0.3406293,-0.04779409,1.307708,NA,NA,Unknown,Closed,
-0.2988281,0.590332,0.6591797,0.2958984,-0.8984375,0.5014648,12,23,27,15,-3,-4,-1,3,-2,-5,-3,7,-4,-6,4,3,24.375,24.375,24.375,-156.125,-156.125,-156.125,6.337356,5.699576,0.2633443,3.125499,4.34165,5.087656,0.0494411,-0.1745849,1.136018,0.1869102,0.07473442,1.001605,0.06598074,0.5004241,1.335926,0.1025437,-0.2414244,1.1612,0.1948616,0.04311785,0.9788823,0.05768605,0.0166727,1.345415,0.05728347,-0.316619,1.331738,-0.125287,0.2025401,1.336675,-0.02702709,-0.3076738,1.29868,-0.20751,-0.01794545,1.311084,0.2814263,-0.06633261,1.234352,NA,NA,Unknown,Unknown,
-0.3325195,0.4023438,0.6748047,0.1425781,-0.7387695,0.4428711,2,-6,-7,-2,-3,-2,1,4,1,0,1,0,-5,-13,-1,5,2.875,2.875,2.875,-142.9375,-142.9375,-142.9375,6.350085,6.290108,0.2810163,2.982601,4.609892,4.770476,0.06626185,-0.1133314,1.16774,0.2001032,0.2099493,1.040219,0.06517771,0.4996911,1.33929,0.06268985,-0.1849257,1.180095,0.2113131,0.2129736,0.99925,0.05572701,0.01501066,1.346392,0.05554431,-0.3153344,1.332679,-0.1246891,0.2040346,1.335994,-0.02862325,-0.3061058,1.299673,-0.2538479,-0.0159839,1.277668,0.276306,-0.03159599,1.210392,NA,NA,Unknown,Lasso,
-0.3535156,0.3012695,0.4125977,0.1972656,-0.6186523,0.4360352,-1,6,0,-1,-4,-2,5,12,0,-2,-4,-2,-3,3,0,-5,-13.625,-13.625,-13.625,-96.25,-96.25,-96.25,6.210582,6.797165,0.1639954,2.798617,4.753767,4.406462,0.09712133,-0.07899711,1.173303,0.2167094,0.2654357,1.078274,0.06398449,0.4992593,1.342956,0.1058219,-0.1369945,1.192537,0.2149284,0.2848841,1.026583,0.0570805,0.01708511,1.349771,0.05399747,-0.3111697,1.333458,-0.1221519,0.2078658,1.336902,-0.03031809,-0.3018193,1.300431,-0.1985434,0.001387743,1.237481,0.2700769,0.006314409,1.153283,NA,NA,Unknown,Unknown,
-0.418457,0.4038086,0.2119141,0.3388672,-0.7016602,0.3339844,1,0,8,8,6,3,1,5,-2,-4,-2,3,8,12,56,7,-23,-23,-23,-33.1875,-33.1875,-33.1875,6.001554,6.943556,9.958259,2.752852,4.775417,4.255601,0.1050026,-0.07210599,1.176969,0.2263599,0.2844099,1.096456,0.06249603,0.4990869,1.346644,0.05162111,-0.1382212,1.15955,0.2065774,0.2896675,1.176667,0.05756567,0.01781173,1.351695,0.05361577,-0.3104638,1.333677,-0.1209085,0.2053095,1.331058,-0.03084889,-0.3009472,1.300761,-0.1782602,-7.673278E-05,1.21557,0.2555199,0.04050852,1.127003,NA,NA,Unknown,Unknown,
-0.8457031,0.2407227,0.2353516,0.3823242,-0.847168,0.1157227,2,-3,-2,1,-1,0,4,7,-2,-1,-1,2,4,13,-19,6,-21.6875,-21.6875,-21.6875,25.0625,25.0625,25.0625,5.998375,6.95449,9.997563,2.785533,4.793957,4.201862,0.1170701,-0.06665014,1.174844,0.2295809,0.2869184,1.099897,0.06108183,0.4995609,1.349275,0.1305453,-0.1200079,1.197532,0.2031075,0.2959552,1.129889,0.05727795,0.0176503,1.35182,0.05349243,-0.310115,1.333648,-0.1204596,0.2040093,1.328323,-0.03101649,-0.3006026,1.300747,-0.171425,-0.001746297,1.210173,0.2539351,0.04200897,1.126782,NA,NA,Unknown,Unknown,
-1.050293,0.05078125,0.2827148,0.2915039,-0.9228516,0.1904297,-3,-1,-1,-5,-13,-28,-5,-3,-1,-2,-5,-5,-11,-19,-14,-9,-42.25,-42.25,-42.25,6.4375,6.4375,6.4375,6.071929,6.904406,0.1307416,2.824959,4.744759,4.197661,0.1194642,-0.07087097,1.176399,0.2263345,0.286063,1.09867,0.06004059,0.4996814,1.350368,0.1341704,-0.1208642,1.197676,0.2074415,0.2726896,1.128188,0.05763484,0.01784546,1.352112,0.05348837,-0.3098819,1.333494,-0.12024,0.2030261,1.326504,-0.03104252,-0.3003477,1.300485,-0.1696624,-0.00354531,1.209172,0.2551109,0.04288725,1.126812,NA,NA,Unknown,Unknown,
-1.089355,0.04052734,0.2084961,-0.001953125,-1.125,0.168457,-2,-3,0,2,4,7,-10,0,2,-1,-1,-5,-10,-22,-16,1,-47.75,-47.75,-47.75,15.125,15.125,15.125,6.226753,6.830757,0.3978507,2.845667,4.740383,4.172288,0.1233197,-0.07325063,1.178877,0.2069384,0.2818731,1.086101,0.05958441,0.4998019,1.350561,0.1310315,-0.1334231,1.194235,0.1785891,0.2785288,1.13025,0.05718483,0.01762539,1.351588,0.05352107,-0.3094628,1.333246,-0.1200258,0.2026149,1.325419,-0.03110959,-0.2998993,1.300181,-0.1657921,-0.004376256,1.207212,0.255105,0.04346254,1.12653,NA,NA,Unknown,Unknown,
-0.9248047,0.2524414,0.3178711,-0.01123047,-1.054199,0.1230469,-3,-5,-6,-6,5,12,3,0,-3,-3,-3,-2,-2,4,-6,-1,-53.5,-53.5,-53.5,-9.375,-9.375,-9.375,6.515031,6.612814,0.8115811,2.833652,4.758376,4.142456,0.1235497,-0.07531551,1.177948,0.1548566,0.2832574,1.06173,0.0591635,0.4998447,1.350627,0.09668823,-0.1560214,1.18135,0.1880456,0.2692355,1.07075,0.05591579,0.01872239,1.350721,0.05257342,-0.3084014,1.332377,-0.117558,0.204233,1.324475,-0.03219816,-0.2983837,1.299402,-0.1637592,-0.003213874,1.207296,0.2499433,0.04036715,1.12542,NA,NA,Unknown,Unknown,
-0.5258789,0.3369141,0.3442383,0.1376953,-0.9941406,0.1728516,3,2,4,3,-6,-5,-14,-21,-3,-1,-2,0,1,1,28,0,-19.4375,-19.4375,-19.4375,-17.1875,-17.1875,-17.1875,6.797664,6.058984,1.266924,2.810107,4.768622,4.12359,0.1295182,-0.07098829,1.174901,0.08553921,0.2253273,1.042376,0.05831788,0.5045671,1.351794,0.1174237,-0.1443014,1.19045,0.09546314,0.2560375,1.03975,0.04786309,0.005875858,1.347939,0.05238025,-0.3193003,1.332121,-0.1177888,0.2025731,1.322335,-0.03286783,-0.3086908,1.3013,-0.1598538,-0.004387469,1.202473,0.2435856,0.02587269,1.130241,NA,NA,Unknown,Unknown,
0.1020508,0.6533203,0.3222656,0.1923828,-0.9951172,0.222168,7,93,11,3,2,0,-1,3,0,0,-1,-2,-3,-5,-37,-3,94.5625,94.5625,94.5625,-19.4375,-19.4375,-19.4375,7.001972,5.533552,1.452939,2.768051,4.778491,4.093486,0.1359607,-0.06678104,1.164167,0.006667802,0.1534748,1.028741,0.06031276,0.5029095,1.352314,0.1278588,-0.1414175,1.193815,0.006129483,0.1842861,1.031727,0.05573537,0.004766321,1.347896,0.05515039,-0.3252685,1.331562,-0.1211174,0.1940573,1.314399,-0.02945105,-0.3161912,1.294649,-0.1493601,-0.01000566,1.184968,0.2445508,0.01262224,1.127825,NA,NA,Unknown,Unknown,
0.3227539,0.9907227,0.387207,0.1948242,-0.9887695,0.2202148,1,4,-4,0,-12,-10,-1,3,1,-1,0,0,0,2,19,7,70.5625,70.5625,70.5625,-14.375,-14.375,-14.375,7.171587,5.084394,1.578745,2.750391,4.78608,4.081124,0.179814,-0.009648083,1.104827,-0.04290733,0.03063031,1.069421,0.06149061,0.5024137,1.353784,0.1592831,-0.0877771,1.208833,-0.06889051,0.08210579,1.002462,0.05835938,0.01627265,1.353267,0.0558547,-0.310416,1.334299,-0.1176585,0.2017046,1.316505,-0.02601267,-0.2990929,1.296843,-0.1145334,0.0007735815,1.144325,0.2440225,0.01311362,1.1282,NA,NA,NotTracked,Closed,
0.1293945,1.132813,0.3676758,0.3183594,-0.6713867,0.2148438,4,13,5,1,-8,4,-1,6,0,0,-1,0,3,-2,-19,-2,-88.6875,-88.6875,-88.6875,-8.25,-8.25,-8.25,7.159057,4.83517,1.650609,2.74555,4.772279,4.091391,0.1460853,-0.002865797,1.077966,-0.05986805,-0.008095012,1.066504,0.06206552,0.5019668,1.354755,0.1445025,-0.04707143,1.0945,-0.06119555,-0.02227829,1.018364,0.05846447,0.01885672,1.35463,0.05632271,-0.3079813,1.334394,-0.1162319,0.2045097,1.317329,-0.02532058,-0.2966329,1.297638,-0.1381062,0.009797893,1.172002,0.2498466,0.01859633,1.134482,NA,NA,NotTracked,NotTracked,
0.03222656,1.09668,0.2001953,0.06396484,-0.9848633,0.1918945,-3,-22,-3,1,-7,-59,0,2,1,0,0,3,6,-3,3,-1,-10.875,-10.875,-10.875,-17,-17,-17,7.109137,4.846334,1.668795,2.780224,4.708951,4.061626,0.1354032,-0.01292636,1.081332,-0.04951983,-0.02114733,1.075679,0.06195658,0.5021785,1.356229,0.1343749,-0.05482807,1.099029,-0.05719353,-0.04358272,1.031321,0.05811514,0.02011572,1.355261,0.05638722,-0.3073035,1.334406,-0.1157789,0.2068684,1.319246,-0.02529021,-0.2961446,1.297741,-0.144871,0.008992766,1.179983,0.2542888,0.02219008,1.140841,NA,NA,NotTracked,NotTracked,
0.03808594,1.010254,0.1767578,0.009765625,-1.214355,0.1586914,1,1,-4,-5,-14,2,5,5,-3,-1,-1,0,-2,3,-1,8,-7.9375,-7.9375,-7.9375,29.75,29.75,29.75,7.115543,4.838243,1.704763,2.789592,4.725051,4.068623,0.1288671,-0.01904019,1.086682,-0.04490061,-0.0241952,1.081497,0.06148347,0.5021826,1.356782,0.09341775,-0.06697796,1.134167,-0.1082282,-0.0192707,1.05725,0.05753537,0.02120276,1.355468,0.05619395,-0.3065372,1.334255,-0.1159399,0.2077059,1.32021,-0.02545959,-0.2956562,1.29776,-0.1490416,0.007182125,1.186089,0.2563423,0.02314632,1.144769,NA,NA,NotTracked,NotTracked,
0.03320313,1.09668,0.07958984,0.2099609,-1.053711,0.1044922,0,0,-1,-1,-3,-11,1,1,-1,-2,-2,-3,0,0,-3,4,-5.5,-5.5,-5.5,-5.75,-5.75,-5.75,7.119483,4.829523,1.704238,2.787467,4.738801,4.076687,0.1232564,-0.02157872,1.084721,-0.04829003,-0.02588086,1.085387,0.0605597,0.5022801,1.357448,0.1107746,-0.05814242,1.10713,-0.06626625,-0.04680435,1.042926,0.05702545,0.02186759,1.355614,0.05592865,-0.3059576,1.334159,-0.1162276,0.2082399,1.321135,-0.02571223,-0.2952431,1.297761,-0.1487857,0.007876395,1.186615,0.2569174,0.0224822,1.145774,NA,NA,NotTracked,NotTracked,
0.1020508,0.940918,0.2680664,0.2177734,-0.9091797,0.1728516,-1,-6,-3,-8,-26,-2,-5,-1,1,0,-1,-2,-5,-4,-12,3,10.3125,10.3125,10.3125,0.5625,0.5625,0.5625,7.119769,4.832566,1.69317,2.788506,4.737409,4.076118,0.1267978,-0.01902523,1.085374,-0.05039126,-0.02418129,1.085482,0.05948053,0.5022087,1.357953,0.1164676,-0.05818133,1.107222,-0.1085013,0.02348893,1.1402,0.05660781,0.02229857,1.355767,0.05576316,-0.3057192,1.334043,-0.1165613,0.2084159,1.321989,-0.02586703,-0.2951079,1.297842,-0.1488658,0.008232253,1.187121,0.257631,0.02241114,1.146414,NA,NA,NotTracked,NotTracked,
0.1181641,0.9306641,0.2714844,0.09765625,-1.018066,0.1904297,1,3,5,2,-4,-8,2,4,0,0,-1,-2,-4,-9,-5,-2,7.3125,7.3125,7.3125,-9.75,-9.75,-9.75,7.12926,4.842218,1.688218,2.772454,4.743184,4.080474,0.1228832,-0.0721059,1.141693,-0.05145558,-0.02336758,1.08517,0.05868917,0.5022414,1.35839,0.1180301,-0.1611491,1.188256,-0.02089677,-0.06846709,1.1464,0.0563305,0.02248174,1.355864,0.05557308,-0.3056243,1.33392,-0.1176329,0.206918,1.321778,-0.02606164,-0.2950706,1.297857,-0.1501331,0.006088383,1.188014,0.2575758,0.02255395,1.146586,NA,NA,NotTracked,NotTracked,
0.1035156,0.9438477,0.2441406,0.1298828,-0.9658203,0.1782227,-1,-9,-3,-1,-3,0,-1,0,3,0,-1,-1,-1,7,14,4,5.9375,5.9375,5.9375,-5.6875,-5.6875,-5.6875,7.140126,4.84365,1.684052,2.770063,4.750087,4.079174,0.1267721,-0.01448605,1.085101,-0.0480425,-0.02122093,1.082547,0.05804785,0.502331,1.359261,0.116083,-0.05708059,1.105619,-0.1102937,0.02599838,1.138,0.05602742,0.02268341,1.35608,0.05545324,-0.3055618,1.333902,-0.1184766,0.205723,1.321501,-0.02623689,-0.2950562,1.297946,-0.1513484,0.004163939,1.189036,0.2574966,0.02261709,1.146882,NA,NA,NotTracked,NotTracked,
0.09814453,0.8945313,0.2524414,0.152832,-0.9838867,0.1914063,-2,0,-2,-2,-1,-4,-3,-2,-1,-1,-2,1,-2,-4,-24,0,6,6,6,3.5,3.5,3.5,7.143045,4.853953,1.67609,2.769233,4.749714,4.078542,0.1236732,-0.01515946,1.08442,-0.05142276,-0.02171317,1.080436,0.05775231,0.5024231,1.359694,0.1313125,-0.057159,1.102242,-0.08078515,0.0003786236,1.149,0.05582705,0.02278453,1.356121,0.05528846,-0.3055255,1.333784,-0.1188421,0.2054499,1.32136,-0.02640828,-0.2950749,1.297953,-0.1515658,0.00390158,1.18884,0.2573759,0.02269557,1.146999,NA,NA,NotTracked,NotTracked,
0.1547852,0.8193359,0.1831055,0.1635742,-0.9291992,0.1977539,-1,-6,-1,0,0,0,1,0,-3,-3,-4,7,0,0,-3,-2,2.4375,2.4375,2.4375,15.6875,15.6875,15.6875,7.149776,4.869823,1.642529,2.790238,4.746715,4.0833,0.1243326,-0.0185716,1.085253,-0.04546253,-0.02297018,1.077898,0.05756808,0.5025541,1.360022,0.1224157,-0.06481489,1.111369,-0.04091573,-0.03383291,1.1408,0.05549839,0.02299886,1.356161,0.05501256,-0.3054107,1.333614,-0.1189045,0.2063716,1.32197,-0.02668039,-0.2949838,1.297869,-0.1511102,0.004990869,1.189031,0.257809,0.02210402,1.147632,NA,NA,NotTracked,NotTracked,
-0.05908203,0.6289063,0.2714844,0.2905273,-0.8579102,0.2753906,-1,-2,0,1,0,-1,-1,-2,3,0,-3,0,-2,-2,0,6,-37.1875,-37.1875,-37.1875,24.75,24.75,24.75,7.096554,4.780403,1.56371,2.825392,4.737864,4.1003,0.06126561,-0.0238891,1.066889,-0.02322253,-0.03261571,1.066697,0.0573686,0.5026414,1.360256,0.05873499,-0.05033479,1.079143,-0.02094813,-0.001147748,1.044167,0.05515752,0.0232402,1.356077,0.05475559,-0.3052169,1.333472,-0.1191679,0.2072945,1.322615,-0.0269927,-0.2947296,1.297516,-0.1550581,0.004721452,1.192714,0.2593981,0.01189336,1.15672,NA,NA,NotTracked,NotTracked,
0.2358398,0.484375,0.3027344,0.2329102,-0.5957031,0.2583008,1,0,-2,-2,-1,-1,-2,-2,-2,-2,1,0,-1,-1,-1,-3,-81,-81,-81,83.4375,83.4375,83.4375,6.991142,4.661554,1.410558,2.953458,4.644951,4.180848,0.02300068,-0.06137859,1.051897,-0.0367258,-0.06188652,1.054184,0.05725876,0.5026873,1.360209,0.043345,-0.08427529,1.078111,-0.06880328,-0.04018513,1.1444,0.05483847,0.02336954,1.355601,0.05451246,-0.3053936,1.332952,-0.1198245,0.207599,1.323273,-0.02729552,-0.2949086,1.296948,-0.1650008,0.0008179206,1.204313,0.2575355,0.003177828,1.166959,NA,NA,NotTracked,NotTracked,
0.3989258,0.5854492,0.394043,0.2163086,-0.5234375,0.3144531,-1,1,1,0,0,0,-6,-10,0,-3,-1,0,0,-1,0,-1,-107.8125,-107.8125,-107.8125,105.375,105.375,105.375,6.880134,4.438929,1.189901,3.074737,4.495254,4.36128,-0.01108806,-0.1279093,1.036015,0.007641205,-0.1299854,1.036628,0.05689275,0.5030345,1.359796,0.04280465,-0.1187878,1.062143,-0.01505031,-0.09872116,1.060833,0.05521124,0.02228034,1.353717,0.05459612,-0.3068683,1.331816,-0.1203783,0.2076094,1.324438,-0.02687546,-0.2964684,1.296031,-0.1735315,-0.01104183,1.237728,0.2843686,-0.003136586,1.195315,NA,NA,NotTracked,NotTracked,
0.6645508,0.9267578,0.5458984,0.4277344,-0.7192383,0.4140625,-1,1,-2,-1,0,0,-1,-2,-7,-5,9,0,-2,-3,-2,-4,-146.125,-146.125,-146.125,133,133,133,6.763659,4.012714,0.8035865,3.159238,4.221016,4.677723,-0.006602999,-0.2062767,1.12641,0.0613568,-0.2220638,1.072189,0.05646604,0.5033779,1.358773,0.04064116,-0.1983844,1.012933,0.03498556,-0.1927951,1.012556,0.05449,0.02169783,1.352706,0.05428452,-0.3093062,1.331675,-0.122055,0.2047344,1.325151,-0.027474,-0.2989508,1.296238,-0.1776633,-0.02182816,1.27336,0.3162483,-0.03489219,1.218922,NA,NA,NotTracked,NotTracked,
0.855957,0.9160156,0.3735352,0.753418,-0.6958008,0.5595703,-6,-23,-7,-2,-4,2,2,4,-2,-13,-4,1,7,9,2,-2,-119.75,-119.75,-119.75,240.9375,240.9375,240.9375,6.774464,3.672015,0.4716141,3.350467,3.768328,5.249989,-0.04871496,-0.3086957,1.148882,0.1426776,-0.293451,1.068703,0.05605669,0.5037245,1.35663,-0.07676417,-0.3561616,1.139294,0.1356406,-0.3193597,1.0038,0.0524703,0.02109156,1.346196,0.0516538,-0.3116823,1.322639,-0.1233349,0.2025549,1.325487,-0.03314891,-0.3002787,1.287597,-0.1769352,-0.03505364,1.300854,0.279173,-0.03053531,1.26604,NA,NA,Unknown,NotTracked,
1,0.6557617,0.2084961,0.8105469,-0.9619141,0.3300781,0,-4,-3,-3,-5,0,0,1,-11,-6,-6,3,4,2,0,-3,-53.4375,-53.4375,-53.4375,121.3125,121.3125,121.3125,7.070958,3.319328,9.912941,3.272912,3.562978,5.568819,-0.1005404,-0.3546436,1.181463,0.1975929,-0.3568299,1.101563,0.05577865,0.5039911,1.352259,-0.1447599,-0.3651922,1.163692,0.2030052,-0.3759501,1.044385,0.05246851,0.0208751,1.342558,0.0522806,-0.3119836,1.32025,-0.1249475,0.2016936,1.327463,-0.03299037,-0.3007193,1.285626,-0.17063,-0.04911932,1.317584,0.2652136,-0.05014697,1.279033,NA,NA,Unknown,Unknown,
1.060547,0.4707031,0.07226563,0.8544922,-0.8618164,0.4155273,-3,-5,-5,-4,-1,-2,-1,-1,-10,-3,1,-1,-3,-2,-2,-5,32.0625,32.0625,32.0625,144.1875,144.1875,144.1875,7.467859,3.153,9.468958,3.165517,3.369295,5.875422,-0.1399788,-0.3903075,1.218388,0.2453716,-0.3974864,1.146129,0.05545778,0.5038002,1.34693,-0.200778,-0.3873791,1.230444,0.2522345,-0.4184713,1.089625,0.05264932,0.02042754,1.341778,0.05329323,-0.3131074,1.320689,-0.1271826,0.2005145,1.329426,-0.03139258,-0.302358,1.286059,-0.1674678,-0.06403168,1.324558,0.2632543,-0.06494379,1.281412,NA,NA,NotTracked,Unknown,
1.008301,0.456543,0.01953125,1.062988,-0.4643555,0.07958984,-1,2,-1,-1,-1,-1,0,0,1,-3,-1,0,0,-1,-1,0,-12.9375,-12.9375,-12.9375,-23.125,-23.125,-23.125,7.748119,3.087465,9.186274,2.449174,3.084955,6.80269,-0.1703615,-0.4052475,1.249129,0.2774333,-0.4212959,1.186479,0.05551589,0.5039139,1.342679,-0.2287566,-0.3977602,1.254,0.324182,-0.4216995,1.1748,0.05275758,0.01982097,1.341211,0.05368085,-0.3146435,1.32188,-0.1276418,0.2003377,1.329821,-0.03064446,-0.304,1.287247,-0.1670217,-0.07243424,1.327226,0.2654246,-0.07595339,1.285472,NA,NA,NotTracked,Unknown,
0.8911133,0.3535156,0.07519531,1.034668,-0.4052734,0.01660156,-4,0,-1,-2,-3,-2,2,5,-6,-7,-6,-3,-1,-3,-2,-2,-42.5625,-42.5625,-42.5625,33,33,33,7.811169,3.043403,9.053905,2.163203,3.034415,7.133149,-0.1793825,-0.406609,1.265043,0.2892236,-0.4150942,1.21622,0.05538085,0.5042619,1.339021,-0.2353812,-0.3976715,1.273333,0.3422998,-0.416257,1.2045,0.0527359,0.0193362,1.340527,0.05368907,-0.3156427,1.322723,-0.127936,0.2000819,1.329852,-0.03035027,-0.3051337,1.288384,-0.168079,-0.07919169,1.333243,0.2693622,-0.07979239,1.292519,NA,NA,NotTracked,NotTracked,
0.8984375,0.3745117,0.05957031,0.9277344,-0.2626953,0.1489258,0,-4,-1,0,-1,0,-2,-3,-2,-2,-3,-3,-3,-2,-3,-3,-71.5,-71.5,-71.5,12.3125,12.3125,12.3125,7.832725,3.010835,8.873335,2.245741,2.996997,7.142641,-0.1775912,-0.4024975,1.270721,0.2927635,-0.4168508,1.230523,0.05534798,0.5048739,1.336291,-0.2283742,-0.3953913,1.275514,0.3441342,-0.4225791,1.2185,0.05276335,0.01910542,1.339986,0.05366014,-0.3161016,1.32325,-0.1280379,0.1999788,1.329918,-0.03025566,-0.3055658,1.289032,-0.1689015,-0.08186918,1.339745,0.2729485,-0.08591492,1.300298,NA,NA,NotTracked,NotTracked,
0.9555664,0.324707,-0.02880859,0.8945313,-0.4624023,0.08056641,1,1,1,0,0,-2,-2,0,-6,-3,-1,0,-2,-1,0,-2,-38,-38,-38,14.5,14.5,14.5,7.824253,2.991344,8.786433,2.30532,2.997153,7.069016,-0.1745962,-0.4007615,1.271639,0.2959093,-0.4209929,1.239435,0.0554062,0.5051228,1.333539,-0.2236507,-0.4131328,1.280889,0.3476971,-0.4285423,1.229167,0.05292587,0.01875707,1.339321,0.05359043,-0.3165649,1.323613,-0.127708,0.1987249,1.32813,-0.03031313,-0.3059586,1.289461,-0.1681803,-0.08209986,1.343029,0.2742376,-0.08654149,1.304658,NA,NA,NotTracked,NotTracked,
0.9619141,0.2841797,-0.06152344,0.9536133,-0.3139648,-0.05615234,0,-2,1,0,-1,-2,1,0,2,-4,-3,-2,-1,0,-1,0,2.0625,2.0625,2.0625,27.6875,27.6875,27.6875,7.822203,2.979271,8.771297,2.356514,3.000047,7.071959,-0.1720723,-0.3987024,1.271033,0.2945541,-0.4202739,1.246356,0.05555332,0.5050021,1.331245,-0.2202168,-0.4123086,1.281467,0.3406997,-0.4186096,1.227739,0.05300718,0.01838539,1.338777,0.05345452,-0.3169966,1.323925,-0.1271849,0.1973581,1.326166,-0.0304839,-0.306337,1.289799,-0.1668285,-0.08280346,1.343876,0.2738518,-0.08819662,1.307468,NA,NA,NotTracked,NotTracked,
