ALX,ALY,ALZ,ARX,ARY,ARZ,EMG0L,EMG1L,EMG2L,EMG3L,EMG4L,EMG5L,EMG6L,EMG7L,EMG0R,EMG1R,EMG2R,EMG3R,EMG4R,EMG5R,EMG6R,EMG7R,GLX,GLY,GLZ,GRX,GRY,GRZ,ORL,OPL,OYL,ORR,OPR,OYR,LHNX,LHNY,LHNZ,RHNX,RHNY,RHNZ,HX,HY,HZ,LTX,LTY,LTZ,RTX,RTY,RTZ,SpineMidX,SpineMidY,SpineMidZ,SpineBaseX,SpineBaseY,SpineBaseZ,ShoulderLeftX,ShoulderLeftY,ShoulderLeftZ,ShoulderRightX,ShoulderRightY,ShoulderRightZ,ElbowLeftX,ElbowLeftY,ElbowLeftZ,ElbowRightX,ElbowRightY,ElbowRightZ,Myo_Pose_left,Myo_Pose_Right,Kinect_pose_left,Kinect_pose_right
0.9423828,0.2421875,0.04101563,0.9467773,-0.2954102,0.09130859,-1,-1,-1,-3,2,0,1,2,-2,-1,-1,-2,-2,0,0,-3,-0.5,-0.5,-0.5,0.0625,0.0625,0.0625,7.309962,2.914311,1.310692,3.008637,3.012897,1.143464,-0.1336474,-0.3995874,1.164945,0.269198,-0.4221341,1.161111,0.07142865,0.5106212,1.267692,-0.08350974,-0.3678382,1.145714,0.2279698,-0.4283805,1.1384,0.06860938,0.02499755,1.283064,0.07111064,-0.3083433,1.272191,-0.1130936,0.2032121,1.270714,-0.01437635,-0.2977062,1.236472,-0.1453125,-0.07385544,1.269259,0.2827463,-0.07333783,1.258169,NA,NA,NotTracked,NotTracked,
0.934082,0.2490234,0.02880859,0.9472656,-0.2988281,0.09570313,-3,-2,0,-2,-1,-1,0,-2,6,-1,-1,-1,-1,0,0,1,-1.75,-1.75,-1.75,-0.4375,-0.4375,-0.4375,7.312009,2.913667,1.307483,3.008577,3.012705,1.143137,-0.1339409,-0.4019615,1.164821,0.2689391,-0.4222758,1.161543,0.07136035,0.5105507,1.267631,-0.08361871,-0.384908,1.14531,0.2259164,-0.4135449,1.165154,0.06862609,0.02500379,1.283112,0.07113536,-0.3083754,1.272249,-0.1134657,0.2029308,1.270811,-0.01435179,-0.297738,1.236558,-0.1455377,-0.07346902,1.269307,0.2828176,-0.07332904,1.258106,NA,NA,NotTracked,NotTracked,
0.9418945,0.2480469,0.03466797,0.9414063,-0.3037109,0.09228516,0,-2,-1,0,-2,0,-1,1,-2,-3,-1,0,0,-2,-1,2,1.6875,1.6875,1.6875,-0.5,-0.5,-0.5,7.312038,2.912871,1.308879,3.008577,3.012705,1.143137,-0.1339898,-0.4014778,1.164854,0.2684096,-0.4231719,1.160869,0.07132811,0.5105105,1.267623,-0.08513997,-0.4029078,1.145125,0.2271538,-0.4218328,1.151525,0.06867315,0.02497653,1.283123,0.07115969,-0.308385,1.272269,-0.1134085,0.2029246,1.270645,-0.01433263,-0.2977461,1.236585,-0.1455717,-0.07350875,1.269321,0.2828469,-0.07333785,1.258086,NA,NA,NotTracked,NotTracked,
0.9462891,0.2460938,0.03515625,0.9560547,-0.3017578,0.1000977,-3,0,-2,1,-1,-2,0,-1,0,-2,-1,-1,0,-1,-2,0,0.0625,0.0625,0.0625,0.875,0.875,0.875,7.313853,2.910681,1.306767,3.007943,3.012445,1.143592,-0.1344592,-0.4003082,1.165122,0.2691018,-0.4226204,1.162408,0.07129201,0.5105199,1.26769,-0.08475564,-0.3951691,1.145484,0.2259428,-0.4313591,1.145361,0.06868825,0.02497088,1.283148,0.07116765,-0.3083938,1.272302,-0.1133542,0.2031568,1.270543,-0.01431495,-0.2977527,1.236625,-0.145648,-0.0732443,1.26933,0.2828584,-0.07337225,1.258077,NA,NA,NotTracked,NotTracked,
0.940918,0.2431641,0.02832031,0.9399414,-0.2988281,0.09765625,-3,0,0,-2,-2,0,-2,-2,1,-2,-2,1,-2,-1,-2,0,-1.875,-1.875,-1.875,0.5625,0.5625,0.5625,7.319403,2.909015,1.299773,3.007996,3.01282,1.144227,-0.135125,-0.3978973,1.166696,0.2685564,-0.4226291,1.163062,0.07128305,0.5105247,1.26771,-0.08466817,-0.3802087,1.146914,0.2229137,-0.4034193,1.168526,0.06873392,0.02498469,1.283251,0.07123347,-0.3084092,1.272414,-0.1131595,0.2032844,1.270492,-0.01424523,-0.2977526,1.236692,-0.1457786,-0.07316057,1.269418,0.2829796,-0.0734119,1.258074,NA,NA,NotTracked,NotTracked,
0.9482422,0.246582,0.03125,0.9472656,-0.3051758,0.09570313,1,1,-1,1,-2,1,2,-2,0,-1,-1,-2,-3,-2,-1,-2,1,1,1,-0.0625,-0.0625,-0.0625,7.327746,2.906756,1.291456,3.007996,3.01282,1.144227,-0.1353126,-0.3987986,1.166108,0.2690527,-0.4229634,1.16286,0.07129522,0.5104763,1.267665,-0.08476152,-0.3863415,1.145949,0.2257171,-0.4196111,1.15649,0.06876914,0.02496938,1.283267,0.07128831,-0.3084477,1.272422,-0.1129079,0.2034499,1.270321,-0.0141835,-0.2977761,1.236703,-0.1458001,-0.07316651,1.269404,0.2829337,-0.07355447,1.257984,NA,NA,NotTracked,NotTracked,
1,0.2636719,0.01660156,0.9482422,-0.3027344,0.08496094,4,1,2,3,1,1,1,2,-1,2,-1,-1,-2,-3,-1,0,2.3125,2.3125,2.3125,-0.75,-0.75,-0.75,7.323956,2.908099,1.296609,3.006773,3.012859,1.145388,-0.1355164,-0.398553,1.166747,0.2696564,-0.4232704,1.164499,0.07132421,0.5104406,1.267677,-0.08725762,-0.3766331,1.14968,0.2285407,-0.4285239,1.143696,0.06879885,0.02497179,1.283305,0.07132208,-0.3084472,1.272505,-0.1131824,0.2034193,1.270475,-0.01414262,-0.2977695,1.236794,-0.1458433,-0.07314304,1.269385,0.2828886,-0.07399695,1.257877,NA,NA,NotTracked,NotTracked,
1.026367,0.2817383,-0.08496094,0.9438477,-0.3095703,0.09765625,-7,14,8,2,3,0,-2,-17,-2,1,0,-1,1,-1,-3,0,-15.25,-15.25,-15.25,0.5,0.5,0.5,7.305412,2.915334,1.3083,3.005835,3.012932,1.145812,-0.1358568,-0.3989682,1.166583,0.2683589,-0.4218569,1.160981,0.07134771,0.5104241,1.267683,-0.08553378,-0.3832111,1.147061,0.2247297,-0.4259193,1.143488,0.06884916,0.0249609,1.283327,0.07138631,-0.3084709,1.272532,-0.1129967,0.2033898,1.270249,-0.01408302,-0.2977902,1.236792,-0.1458897,-0.07307924,1.269363,0.2831005,-0.07395875,1.25808,NA,NA,NotTracked,NotTracked,
1.227539,0.7089844,0.4736328,0.9467773,-0.296875,0.08691406,-10,-6,-6,-2,29,8,-7,-10,-2,-2,0,-1,0,0,-1,-2,99.0625,99.0625,99.0625,13.125,13.125,13.125,6.583363,3.282823,2.124379,3.024616,3.020596,1.152359,-0.1355872,-0.3988462,1.165362,0.2502975,-0.3982584,1.137227,0.07136752,0.5104198,1.26762,-0.0855253,-0.3952976,1.145776,0.2085123,-0.3946172,1.118609,0.0688069,0.02497754,1.28334,0.07122951,-0.3084151,1.272588,-0.1131828,0.2035682,1.270356,-0.014246,-0.2977144,1.236844,-0.1459779,-0.07296659,1.269463,0.2856089,-0.07168712,1.262226,NA,NA,NotTracked,NotTracked,
0.9970703,1.04248,0.6445313,0.9345703,-0.2993164,0.08740234,9,30,33,7,-22,-1,-2,-4,0,-1,-4,1,-2,-1,-1,0,145.625,145.625,145.625,4.3125,4.3125,4.3125,6.532259,3.58937,2.371692,3.035724,3.023042,1.148536,-0.1355746,-0.4008182,1.163935,0.2173605,-0.3140771,1.092697,0.07134731,0.5104254,1.267576,-0.08691844,-0.3798546,1.148173,0.1693655,-0.3071176,1.091125,0.06770901,0.02518751,1.283217,0.06691922,-0.307663,1.272276,-0.1131356,0.2036364,1.270295,-0.01983819,-0.2954502,1.235881,-0.1456064,-0.07435524,1.269249,0.3008351,-0.05096139,1.272173,NA,NA,NotTracked,Closed,
0.390625,1.013672,0.6020508,0.9477539,-0.3105469,0.1147461,-12,12,7,13,12,-3,4,-28,-5,0,-2,-2,-1,-2,-4,-6,82.5625,82.5625,82.5625,-16.625,-16.625,-16.625,6.566503,4.425044,2.684983,3.029293,3.018412,1.137766,-0.1352378,-0.398287,1.164715,0.1498023,-0.1858493,1.051031,0.07137226,0.5104042,1.26753,-0.08755615,-0.4103385,1.145,0.1506945,-0.2571548,1.0852,0.0648935,0.02533931,1.28286,0.05897971,-0.3072471,1.271527,-0.1134429,0.2034379,1.270228,-0.02760459,-0.2933778,1.234561,-0.1465504,-0.06300533,1.270741,0.3293222,-0.01957763,1.271057,NA,NA,NotTracked,Unknown,
-0.1503906,0.7304688,0.4628906,0.9526367,-0.300293,0.078125,-3,-3,-9,-2,-34,-15,15,25,4,0,-1,1,2,1,-1,-3,91.1875,91.1875,91.1875,-16.125,-16.125,-16.125,6.690442,5.110385,2.916466,2.994041,3.010368,1.145805,-0.1365066,-0.398708,1.165084,0.1230399,-0.01206344,1.028881,0.07192694,0.5101013,1.267068,-0.08656133,-0.3741072,1.146895,0.08395037,-0.05260773,1.083214,0.06481758,0.02584593,1.282847,0.05952034,-0.3055982,1.272111,-0.1108258,0.2046535,1.269267,-0.02658986,-0.2922393,1.234802,-0.145966,-0.06451759,1.270095,0.3502102,-0.003085447,1.233989,NA,NA,NotTracked,Unknown,
-0.3730469,0.5283203,0.3950195,0.9438477,-0.3217773,0.105957,10,-7,-2,3,19,-13,-3,1,-3,-1,-2,-1,-1,-1,-2,0,134.625,134.625,134.625,-18.8125,-18.8125,-18.8125,6.940001,5.692627,3.149677,2.958276,3.008128,1.147788,-0.1381376,-0.3965232,1.165634,0.1187173,0.1521131,1.04845,0.07321367,0.5096324,1.266647,-0.08736981,-0.3811926,1.147615,0.07873231,0.1369618,1.096,0.06499358,0.02557803,1.282954,0.06039582,-0.3067237,1.27284,-0.1096645,0.2047485,1.26862,-0.02533023,-0.2938961,1.235874,-0.1464159,-0.06407485,1.269682,0.3392,0.01071295,1.163153,NA,NA,NotTracked,Closed,
-0.2485352,0.2963867,0.2407227,0.9365234,-0.2841797,0.07080078,18,-23,1,20,4,-18,25,35,-4,-1,0,-1,-3,0,0,1,40.25,40.25,40.25,7.9375,7.9375,7.9375,7.571512,6.423723,3.507247,2.934441,3.023639,1.169395,-0.1398355,-0.3936734,1.162175,0.1046298,0.3549127,1.118405,0.0759028,0.5083495,1.264478,-0.09165983,-0.3637128,1.153188,0.06960311,0.3479164,1.153154,0.06493943,0.02430032,1.281874,0.05969571,-0.3091538,1.272523,-0.1078429,0.2052358,1.269012,-0.0268811,-0.2958697,1.237132,-0.1467646,-0.05332271,1.268383,0.3458759,0.06770649,1.077614,NA,NA,NotTracked,Unknown,
-0.4589844,0.6206055,0.2397461,0.9375,-0.2841797,0.08105469,-3,-57,-38,-22,-27,-13,-5,-12,-3,-3,-3,-2,-2,0,-5,-4,-31.875,-31.875,-31.875,14.75,14.75,14.75,7.499044,6.363582,3.426758,2.956748,3.031915,1.168028,-0.1384043,-0.3927655,1.160888,0.1069843,0.3484887,1.099906,0.07666522,0.5093808,1.263906,-0.08934775,-0.3661344,1.150683,0.05685345,0.3438017,1.100154,0.06572807,0.02521105,1.28208,0.05968891,-0.3063512,1.272067,-0.1064608,0.2056389,1.269751,-0.02719492,-0.2929598,1.236936,-0.1464903,-0.04909854,1.2686,0.346401,0.07898609,1.069879,NA,NA,NotTracked,Unknown,
-0.956543,0.777832,-0.07275391,0.9677734,-0.3076172,0.08105469,25,44,4,2,-10,-29,-9,-11,-3,-3,-2,0,0,-3,-3,-2,-30.125,-30.125,-30.125,25.5625,25.5625,25.5625,7.45234,6.332185,3.483456,2.99634,3.040791,1.175662,-0.1378318,-0.3925252,1.161107,0.09652265,0.3459092,1.113117,0.07669137,0.509491,1.263871,-0.09072784,-0.3802785,1.146972,0.05029425,0.3553101,1.14502,0.06581973,0.02521282,1.282011,0.05946854,-0.3062935,1.271782,-0.1055863,0.206058,1.270577,-0.02744965,-0.2928861,1.236986,-0.1463617,-0.04924078,1.268757,0.3455415,0.08077274,1.066846,NA,NA,NotTracked,Unknown,
-0.8779297,0.5917969,-0.1455078,0.9272461,-0.3085938,0.07324219,7,17,14,14,30,11,24,5,-2,1,-1,0,0,0,-1,-1,11,11,11,4.375,4.375,4.375,7.456834,6.458261,3.488561,3.004825,3.033294,1.18734,-0.1374951,-0.393969,1.162812,0.1066333,0.3476904,1.112377,0.07667141,0.5096356,1.263916,-0.09046181,-0.3846574,1.148236,0.05543238,0.3547896,1.139329,0.06599386,0.02533389,1.281893,0.05937107,-0.3061164,1.27149,-0.1054537,0.2060738,1.270697,-0.02760482,-0.2928035,1.236951,-0.1462309,-0.04901101,1.269401,0.3425397,0.07957259,1.0653,NA,NA,NotTracked,Unknown,
-0.5444336,0.6323242,0.09423828,0.9428711,-0.3208008,0.09619141,-3,8,-7,4,15,16,5,-11,-1,-4,-1,-2,0,0,-3,-1,-4.375,-4.375,-4.375,-17.5625,-17.5625,-17.5625,7.400199,6.356462,3.40432,2.98047,3.021872,1.192426,-0.1377916,-0.3956363,1.165058,0.1040944,0.3481834,1.100844,0.07650469,0.5104895,1.264147,-0.08846889,-0.4037416,1.1451,0.05062688,0.3522806,1.118625,0.06625695,0.02562263,1.281837,0.05930322,-0.3055604,1.271149,-0.1053458,0.2061463,1.270788,-0.02773194,-0.292341,1.236794,-0.1462796,-0.0481938,1.270112,0.3393369,0.07895368,1.063746,NA,NA,NotTracked,Unknown,
-0.9755859,0.7841797,-0.006347656,0.9106445,-0.3305664,0.09326172,3,48,6,-2,-14,-8,-2,-1,5,-3,-2,0,-1,0,-1,-1,-16.375,-16.375,-16.375,16.8125,16.8125,16.8125,7.423968,6.241002,3.478039,2.964375,3.025546,1.214679,-0.1384722,-0.3966172,1.165455,0.09029528,0.3436147,1.114032,0.07634649,0.5107954,1.264501,-0.08772659,-0.3549071,1.149333,0.0414125,0.319983,1.105,0.0662748,0.02544508,1.281682,0.05915913,-0.3059359,1.270831,-0.1050188,0.2059679,1.271329,-0.02792844,-0.2926497,1.236803,-0.1459336,-0.04810572,1.27093,0.3394309,0.07900381,1.062783,NA,NA,NotTracked,Unknown,
-0.8178711,0.6230469,-0.1264648,0.9560547,-0.3022461,0.1230469,5,10,4,5,-5,-17,-32,12,-1,-1,0,-2,1,0,-1,-3,10.1875,10.1875,10.1875,-4.8125,-4.8125,-4.8125,7.478187,6.377577,3.515267,2.968748,3.023613,1.219964,-0.1395194,-0.3974621,1.166093,0.09996286,0.3474289,1.116233,0.0763102,0.5107778,1.264668,-0.09235445,-0.3967711,1.1495,0.06223704,0.3338859,1.1329,0.06628162,0.02535248,1.281601,0.05894816,-0.3060654,1.270714,-0.1050642,0.2059339,1.271825,-0.02819554,-0.2927763,1.236888,-0.145702,-0.04866795,1.271339,0.3401857,0.07950283,1.062457,NA,NA,NotTracked,Unknown,
-0.5092773,0.6650391,0.08984375,0.9648438,-0.3310547,0.1142578,1,-1,0,5,-2,-10,-9,-9,0,-4,-1,-1,0,1,-1,-3,22.375,22.375,22.375,-10.125,-10.125,-10.125,7.487449,6.310024,3.454632,2.953141,3.019344,1.218501,-0.1385779,-0.3974588,1.167486,0.103878,0.354011,1.107755,0.07621888,0.5111447,1.264691,-0.0940276,-0.4116988,1.144933,0.05231683,0.3551047,1.154667,0.06647895,0.02574045,1.281592,0.05890203,-0.305145,1.27054,-0.1049699,0.2060056,1.271961,-0.02828733,-0.2918154,1.236811,-0.1453151,-0.04706875,1.27172,0.3412239,0.08226604,1.061351,NA,NA,NotTracked,Unknown,
-0.8666992,0.730957,0.09326172,0.9179688,-0.331543,0.06591797,-7,26,5,10,0,-8,-7,-7,-1,-5,-2,-2,0,0,-4,-1,-24.875,-24.875,-24.875,3.5,3.5,3.5,7.513862,6.24697,3.505733,2.953516,3.024212,1.207857,-0.1379035,-0.3972664,1.164047,0.1384799,0.3016461,1.081088,0.07612412,0.5111565,1.264683,-0.0892324,-0.3759152,1.149,0.115024,0.2920106,1.040029,0.06656301,0.02575357,1.281565,0.05892785,-0.3050025,1.270424,-0.1047453,0.2060041,1.272142,-0.02828916,-0.2916826,1.23679,-0.1452559,-0.04695422,1.271709,0.344069,0.08697785,1.06015,NA,NA,NotTracked,Unknown,
-0.9775391,0.7299805,-0.1201172,0.918457,-0.3168945,0.0703125,56,0,-3,2,-1,42,20,17,-4,-1,0,-1,-1,-2,-2,-5,-19.375,-19.375,-19.375,8.375,8.375,8.375,7.538199,6.273586,3.551136,2.962544,3.028094,1.20282,-0.137958,-0.3961654,1.161806,0.111996,0.331692,1.114111,0.07607182,0.510618,1.264556,-0.08934079,-0.3584216,1.150111,0.1032626,0.2977491,1.118562,0.06658097,0.02574829,1.281502,0.05890948,-0.3048809,1.270233,-0.1046079,0.2060748,1.272028,-0.02831903,-0.2916076,1.236795,-0.1452413,-0.04598749,1.271858,0.3455965,0.09086154,1.058731,NA,NA,NotTracked,Unknown,
-0.4746094,0.5712891,-0.04003906,0.9594727,-0.3339844,0.1137695,-19,-42,-14,5,9,8,7,-3,8,4,-1,1,0,0,-6,-5,11.4375,11.4375,11.4375,-7.6875,-7.6875,-7.6875,7.572193,6.413973,3.551422,2.997195,3.039229,1.166435,-0.1367068,-0.3949905,1.161037,0.1164186,0.3506253,1.112146,0.07605088,0.5103121,1.264234,-0.09004789,-0.3900211,1.145118,0.0667709,0.352108,1.15175,0.06694774,0.02630946,1.281416,0.05916821,-0.3034903,1.269789,-0.1045196,0.2059951,1.271824,-0.02815783,-0.2903834,1.236426,-0.1451868,-0.04574216,1.271656,0.3464801,0.09273776,1.058635,NA,NA,NotTracked,Unknown,
-0.5976563,0.6181641,0.2373047,0.9301758,-0.315918,0.05273438,2,17,5,-2,9,7,1,0,0,1,-2,0,-1,-1,3,2,-36.375,-36.375,-36.375,-1.25,-1.25,-1.25,7.493425,6.303503,3.487173,2.984144,3.039184,1.171506,-0.1361284,-0.3943912,1.158922,0.1125577,0.3363965,1.092536,0.07595239,0.5104553,1.26407,-0.09113161,-0.4026892,1.137579,0.05571758,0.3437392,1.0985,0.06720838,0.02664983,1.281324,0.05929904,-0.3028165,1.269417,-0.1044611,0.2058067,1.271851,-0.02806749,-0.2897336,1.236127,-0.1452222,-0.04488507,1.271185,0.3469473,0.09444375,1.057866,NA,NA,NotTracked,Unknown,
-0.8959961,0.7060547,-0.01220703,0.9345703,-0.296875,0.07177734,-4,2,-7,-5,-48,-20,-7,-17,-2,-2,-2,-2,-1,-2,-2,-5,-30.6875,-30.6875,-30.6875,11.9375,11.9375,11.9375,7.434553,6.312701,3.495878,3.008307,3.045209,1.159317,-0.1352365,-0.3936482,1.156848,0.1019554,0.3393647,1.107248,0.07561859,0.5107757,1.264076,-0.09110776,-0.3965057,1.140301,0.04959382,0.3368177,1.117,0.06722207,0.02661991,1.281145,0.05930435,-0.3028852,1.269104,-0.1044789,0.2057298,1.271896,-0.02808794,-0.2897922,1.23605,-0.1450395,-0.04506717,1.270612,0.3445894,0.09594288,1.055506,NA,NA,NotTracked,Unknown,
-0.7993164,0.6245117,-0.02001953,0.9594727,-0.3144531,0.1323242,2,6,3,6,18,5,-2,4,-3,2,-1,0,-2,-1,1,-1,-1.1875,-1.1875,-1.1875,-2.125,-2.125,-2.125,7.408561,6.380614,3.474161,3.030323,3.046778,1.141354,-0.1349384,-0.39402,1.156106,0.1076904,0.3419903,1.104749,0.07516632,0.5109116,1.26392,-0.08900839,-0.3616963,1.146923,0.05586676,0.3495304,1.1248,0.06719488,0.02657481,1.280891,0.05926609,-0.30304,1.268771,-0.1045716,0.2056853,1.271879,-0.02812036,-0.2899192,1.235884,-0.1446772,-0.04413851,1.270106,0.3441223,0.0940626,1.05569,NA,NA,NotTracked,Unknown,
-0.6811523,0.6191406,0.05273438,0.9355469,-0.3115234,0.09667969,2,-3,-2,1,3,-2,2,4,-2,-1,0,-1,0,-2,-2,-2,-2.1875,-2.1875,-2.1875,-4.3125,-4.3125,-4.3125,7.353186,6.382503,3.412901,3.01736,3.038043,1.148107,-0.135419,-0.3955445,1.156564,0.1092144,0.3383153,1.094527,0.07457674,0.511389,1.263695,-0.09221165,-0.4023758,1.13795,0.1044872,0.2972116,1.0927,0.0671946,0.02652922,1.280641,0.05925892,-0.3032873,1.268351,-0.104742,0.2055619,1.271435,-0.02816512,-0.290186,1.235557,-0.1449253,-0.04244113,1.269625,0.3079768,0.1227743,1.02793,NA,NA,NotTracked,Unknown,
-0.6723633,0.6323242,0.1147461,0.9169922,-0.3076172,0.07666016,-2,-8,-3,0,2,0,-1,0,-3,-2,-1,0,-1,0,2,1,-17.5,-17.5,-17.5,-5.25,-5.25,-5.25,7.274272,6.351342,3.33489,3.005954,3.033078,1.154395,-0.1352481,-0.3963617,1.15656,0.1056073,0.34091,1.089181,0.07377806,0.5123047,1.263092,-0.08923537,-0.3725656,1.146333,0.09117983,0.3030336,1.076923,0.06714536,0.02645188,1.280453,0.0592033,-0.3035821,1.268154,-0.1047531,0.205643,1.271177,-0.0282704,-0.2905225,1.235264,-0.1449448,-0.04276999,1.269358,0.3358364,0.07436953,1.06143,NA,NA,NotTracked,Unknown,
-0.5102539,0.5229492,0.1875,0.9423828,-0.3071289,0.1152344,1,2,-1,0,-2,-1,1,-1,-2,0,-1,-1,-1,-2,-1,2,-24.375,-24.375,-24.375,5.4375,5.4375,5.4375,7.118326,6.30179,3.189365,3.019977,3.035434,1.14683,-0.1352197,-0.3961716,1.156103,0.105646,0.3340897,1.082949,0.07267393,0.5133066,1.262905,-0.09212556,-0.3999648,1.138909,0.06768677,0.3510998,1.074909,0.06701945,0.02626444,1.279893,0.05907223,-0.3042709,1.26767,-0.1048972,0.2055236,1.271026,-0.02845234,-0.2912445,1.234876,-0.1450497,-0.04246315,1.269299,0.3345221,0.06681978,1.064728,NA,NA,NotTracked,Unknown,
-0.4624023,0.5356445,0.2954102,0.9272461,-0.3125,0.1123047,-4,2,0,-1,0,-1,-1,-4,2,0,0,-2,-1,-1,1,1,-29.5625,-29.5625,-29.5625,3.0625,3.0625,3.0625,6.936727,6.219375,2.997306,3.033637,3.035222,1.137563,-0.1351647,-0.3971334,1.156385,0.1135764,0.3110126,1.063736,0.07153895,0.5134603,1.262931,-0.09142329,-0.3960928,1.138635,0.09856391,0.2698086,1.033182,0.06651407,0.02594147,1.279055,0.05856591,-0.3054357,1.267236,-0.1057921,0.2050342,1.270792,-0.02904854,-0.2924435,1.234812,-0.144991,-0.04326838,1.269039,0.3293016,0.04601646,1.077717,NA,NA,NotTracked,Unknown,
-0.5092773,0.5561523,0.4121094,0.9511719,-0.3149414,0.09228516,-3,-5,-2,0,-1,-1,2,4,-2,-3,-1,-1,0,-3,-2,-2,-64.0625,-64.0625,-64.0625,9.8125,9.8125,9.8125,6.661693,5.876221,2.742034,3.050123,3.037508,1.133452,-0.1343496,-0.3963002,1.156113,0.1417298,0.2212657,1.023082,0.06964916,0.512876,1.263739,-0.09057663,-0.4007884,1.140375,0.1238666,0.1988187,0.9857502,0.06544326,0.02519603,1.2785,0.05820369,-0.3071302,1.267033,-0.106226,0.2050748,1.270554,-0.02939643,-0.2944394,1.23564,-0.1446367,-0.04658487,1.269148,0.3221776,0.005967653,1.120333,NA,NA,NotTracked,Closed,
-0.3496094,0.5927734,0.3789063,0.9360352,-0.2885742,0.1162109,0,1,-1,-3,-5,-3,1,1,0,-1,-1,-3,-1,-2,0,-2,-71.25,-71.25,-71.25,16.375,16.375,16.375,6.40912,5.18791,2.534917,3.120337,3.04857,1.106754,-0.1323925,-0.3959922,1.156302,0.1418823,0.118651,0.9781503,0.06865935,0.5122305,1.264537,-0.08537163,-0.3658559,1.1445,0.1240148,0.09525442,0.9426388,0.06439146,0.02480546,1.278805,0.05865689,-0.3087486,1.267024,-0.1088451,0.2038959,1.271147,-0.02850183,-0.2967865,1.236456,-0.1451319,-0.05190756,1.270083,0.3203459,-0.006496644,1.157262,NA,NA,NotTracked,Unknown,
0.1137695,0.684082,0.5195313,0.9223633,-0.3129883,0.1318359,-4,-7,-4,-5,-2,-3,4,6,-2,-2,-1,-1,-1,-1,1,3,-1,-1,-1,5.125,5.125,5.125,6.380054,4.559906,2.380037,3.13923,3.050757,1.095225,-0.1319148,-0.396751,1.156537,0.1511213,-0.03414658,0.9407997,0.06752238,0.5120287,1.265443,-0.0892077,-0.4029214,1.13515,0.166998,-0.04322473,0.9013158,0.06379496,0.02528718,1.278962,0.05878723,-0.3076852,1.2672,-0.1109717,0.2033864,1.271738,-0.02801108,-0.296064,1.236297,-0.1451151,-0.05317925,1.27063,0.3285046,-0.008696055,1.211167,NA,NA,NotTracked,Unknown,
0.8027344,1.042969,0.6645508,0.9375,-0.3256836,0.1479492,-23,-13,-13,-8,-4,-3,3,-17,-4,-16,-2,-1,-1,0,0,-1,24.1875,24.1875,24.1875,-2.875,-2.875,-2.875,6.526496,3.964992,2.207441,3.145703,3.043853,1.089729,-0.1318792,-0.4024699,1.157188,0.1940951,-0.2054599,0.9545178,0.06607254,0.5118832,1.266181,-0.09191777,-0.4099593,1.133,0.2042032,-0.202179,0.901875,0.06191158,0.0257399,1.279074,0.05686348,-0.3070402,1.266772,-0.1124367,0.203027,1.272125,-0.02993401,-0.2948658,1.23495,-0.143873,-0.06118178,1.270764,0.3288661,-0.04417903,1.217852,NA,NA,NotTracked,Unknown,
1.336426,0.2392578,0.4970703,0.9570313,-0.3208008,0.1220703,34,-3,2,4,4,4,-5,14,-1,-6,-1,0,0,1,1,1,17.5,17.5,17.5,-11.8125,-11.8125,-11.8125,6.579769,3.354662,2.052911,3.119505,3.028369,1.101906,-0.1324556,-0.4017091,1.161652,0.2346119,-0.3228011,1.025279,0.06506523,0.5119533,1.267067,-0.08676958,-0.3858089,1.141479,0.189944,-0.3193333,1.030364,0.06129569,0.02576208,1.279345,0.05730827,-0.3071233,1.266868,-0.1122626,0.2032614,1.271737,-0.0290893,-0.2947465,1.234081,-0.1443839,-0.06601924,1.270553,0.2973017,-0.03840332,1.246031,NA,NA,NotTracked,Unknown,
1.018066,0.8530273,0.112793,0.9570313,-0.3359375,0.1079102,3,-3,1,0,-1,-1,-12,-11,-3,-1,-4,-2,0,1,1,1,51.25,51.25,51.25,-14.375,-14.375,-14.375,6.929857,3.177949,1.851674,3.060272,3.008932,1.125547,-0.1325827,-0.400106,1.162795,0.2429652,-0.3906672,1.078653,0.06479218,0.5119513,1.26723,-0.0862804,-0.3682016,1.144187,0.193132,-0.3854713,1.069044,0.06177634,0.02564611,1.279359,0.06098652,-0.3079122,1.266666,-0.1137875,0.2024422,1.271118,-0.02453089,-0.296115,1.23223,-0.1449609,-0.06721407,1.269992,0.2911192,-0.05153334,1.244397,NA,NA,NotTracked,Unknown,
0.9365234,0.3657227,0.1064453,0.9038086,-0.2919922,0.1142578,0,-2,-1,1,-1,1,-5,-9,1,4,2,-1,-1,-1,-4,-2,-66.25,-66.25,-66.25,-10.625,-10.625,-10.625,6.978231,3.079523,1.70062,3.038012,3.006197,1.133222,-0.1338026,-0.3981215,1.16305,0.2556231,-0.4002772,1.12004,0.06479187,0.5119578,1.267215,-0.08508731,-0.3955893,1.1412,0.2123678,-0.3935753,1.11325,0.06236001,0.02562783,1.279173,0.06291163,-0.3080221,1.266758,-0.1138626,0.2026813,1.270192,-0.02250037,-0.2964396,1.231679,-0.1454219,-0.06818253,1.269245,0.2876831,-0.05794544,1.245316,NA,NA,NotTracked,Unknown,
0.9697266,0.3251953,0.05078125,0.9287109,-0.2944336,0.1254883,-6,-7,-5,-4,0,3,19,23,-1,4,-2,-2,-2,-1,-2,-2,-5.1875,-5.1875,-5.1875,-8.6875,-8.6875,-8.6875,7.109829,2.99854,1.520579,3.026214,3.005655,1.135309,-0.1344674,-0.3966007,1.164026,0.2625512,-0.411774,1.139416,0.06488387,0.5120381,1.267095,-0.08602605,-0.3859343,1.142615,0.2194281,-0.4103211,1.125182,0.0631784,0.02559642,1.278954,0.06455588,-0.3080806,1.26708,-0.1136232,0.2028798,1.26921,-0.02092145,-0.2967044,1.231696,-0.1457271,-0.06868437,1.268178,0.2852069,-0.0608049,1.247837,NA,NA,NotTracked,Lasso,
1.020996,0.3837891,0.05810547,0.9438477,-0.2939453,0.1342773,1,-2,0,-1,1,1,2,19,-3,-4,-1,-3,-1,0,3,-1,5.5625,5.5625,5.5625,-5.1875,-5.1875,-5.1875,7.20529,2.965586,1.425541,3.020584,3.004811,1.137761,-0.1342621,-0.3987935,1.161643,0.2670967,-0.4185331,1.148964,0.06526195,0.5121495,1.266402,-0.09081721,-0.4171219,1.136727,0.2235383,-0.4199809,1.13775,0.06390453,0.02558529,1.27872,0.06594799,-0.3080564,1.267364,-0.113545,0.2028433,1.268033,-0.01953377,-0.2968837,1.231814,-0.1455975,-0.06954008,1.267081,0.2835401,-0.06389475,1.25108,NA,NA,NotTracked,Unknown,
0.9282227,0.3154297,0.1064453,0.9482422,-0.2714844,0.05957031,-8,-1,-2,-1,-4,0,3,-5,3,-2,-2,0,-1,-2,-1,-2,-1.6875,-1.6875,-1.6875,-1.0625,-1.0625,-1.0625,7.257117,2.936649,1.370717,3.005726,2.998001,1.151595,-0.1327293,-0.4006035,1.160705,0.2670275,-0.4223076,1.15859,0.0655596,0.5121756,1.265944,-0.08748063,-0.4024706,1.140278,0.2245703,-0.4229633,1.14525,0.0646319,0.02562888,1.278627,0.06732452,-0.307976,1.267632,-0.1133788,0.202878,1.267455,-0.01817343,-0.296986,1.231848,-0.1455843,-0.06962606,1.266325,0.28277,-0.06593954,1.253291,NA,NA,NotTracked,NotTracked,
0.9316406,0.2329102,0.05615234,0.9477539,-0.2988281,0.1079102,-2,-1,0,0,-3,-1,-2,2,-4,-5,-1,-1,-1,-3,-2,-3,4.25,4.25,4.25,-1.5625,-1.5625,-1.5625,7.274517,2.919391,1.349894,3.033262,3.004678,1.110803,-0.1313003,-0.4017937,1.158913,0.2696606,-0.4230969,1.164736,0.06583636,0.5120665,1.265412,-0.08442761,-0.3947497,1.140625,0.2243367,-0.4188865,1.159889,0.0653815,0.02554752,1.278507,0.06847252,-0.308027,1.267702,-0.1137896,0.2025418,1.267042,-0.01704548,-0.2971839,1.231837,-0.1453989,-0.06992799,1.265454,0.282712,-0.06707126,1.254948,NA,NA,NotTracked,NotTracked,
0.953125,0.2744141,0.01757813,0.9506836,-0.3017578,0.07275391,5,-2,-2,0,2,2,2,28,-6,-1,0,0,-1,2,0,-1,4.9375,4.9375,4.9375,-1.3125,-1.3125,-1.3125,7.313885,2.912702,1.321571,3.012774,3.005721,1.127235,-0.1302157,-0.3971868,1.160603,0.2685216,-0.4238682,1.166918,0.06613841,0.5120692,1.265053,-0.08271153,-0.3650448,1.142,0.2241385,-0.421863,1.156903,0.06611114,0.02552596,1.278415,0.06977632,-0.3079523,1.267701,-0.1140175,0.2024569,1.266968,-0.01569072,-0.2972877,1.231779,-0.1452868,-0.06984051,1.265011,0.282723,-0.06725058,1.255795,NA,NA,NotTracked,NotTracked,
0.9526367,0.2358398,0.02978516,0.9560547,-0.2983398,0.07470703,0,0,1,-1,-1,-1,-1,-4,-2,-2,-3,0,1,-2,-2,1,-2.1875,-2.1875,-2.1875,10.875,10.875,10.875,7.308471,2.913779,1.324299,3.006082,3.007953,1.146672,-0.1312217,-0.4006246,1.160391,0.2687729,-0.4244083,1.166835,0.06648743,0.5119225,1.264597,-0.08349296,-0.3878535,1.141067,0.2244117,-0.4190289,1.153573,0.06671283,0.02547366,1.278335,0.07037669,-0.3079836,1.267688,-0.1136058,0.2025937,1.266868,-0.015148,-0.2973415,1.231763,-0.1451147,-0.06997608,1.264666,0.2825407,-0.06764909,1.255889,NA,NA,NotTracked,NotTracked,
