ALX,ALY,ALZ,ARX,ARY,ARZ,EMG0L,EMG1L,EMG2L,EMG3L,EMG4L,EMG5L,EMG6L,EMG7L,EMG0R,EMG1R,EMG2R,EMG3R,EMG4R,EMG5R,EMG6R,EMG7R,GLX,GLY,GLZ,GRX,GRY,GRZ,ORL,OPL,OYL,ORR,OPR,OYR,LHNX,LHNY,LHNZ,RHNX,RHNY,RHNZ,HX,HY,HZ,LTX,LTY,LTZ,RTX,RTY,RTZ,SpineMidX,SpineMidY,SpineMidZ,SpineBaseX,SpineBaseY,SpineBaseZ,ShoulderLeftX,ShoulderLeftY,ShoulderLeftZ,ShoulderRightX,ShoulderRightY,ShoulderRightZ,ElbowLeftX,ElbowLeftY,ElbowLeftZ,ElbowRightX,ElbowRightY,ElbowRightZ,Myo_Pose_left,Myo_Pose_Right,Kinect_pose_left,Kinect_pose_right
0.8930664,-0.4086914,-0.02001953,-0.355957,0.8930664,0.2988281,0,-1,1,0,-3,0,-3,1,-2,-14,-12,4,-3,-4,-18,-9,-3.625,-3.625,-3.625,-2.375,-2.375,-2.375,2.550818,3.174193,8.002073,7.043136,5.492621,2.565883,-0.1239094,-0.366981,1.489642,0.353449,0.115478,1.390094,0.1019949,0.4367451,1.565972,-0.1043206,-0.4015461,1.514072,0.3731585,0.1646505,1.38763,0.09133003,-0.01636022,1.600002,0.09375817,-0.3309641,1.585701,-0.08528521,0.1718965,1.576003,0.01039462,-0.3246431,1.548866,-0.1389104,-0.0866898,1.588856,0.3860205,-0.006973372,1.598646,NA,NA,NotTracked,Unknown,
0.8930664,-0.4086914,-0.02001953,-0.3603516,0.8818359,0.2900391,0,-1,1,0,-3,0,-3,1,1,-10,-3,-5,11,7,0,-1,-3.625,-3.625,-3.625,-4.3125,-4.3125,-4.3125,2.550818,3.174193,8.002073,7.037467,5.49652,2.569012,-0.1220141,-0.3660154,1.488103,0.3535741,0.1154259,1.389988,0.1019241,0.4367747,1.566096,-0.07849229,-0.3658644,1.462606,0.3650622,0.1673972,1.393321,0.09129161,-0.01633467,1.600018,0.09374405,-0.3309626,1.585668,-0.08531543,0.1719051,1.576048,0.01037531,-0.3246563,1.548686,-0.1387412,-0.08657219,1.588535,0.386251,-0.007894787,1.599132,NA,NA,NotTracked,Unknown,
0.8930664,-0.4086914,-0.02001953,-0.3383789,0.9042969,0.2919922,0,-1,1,0,-3,0,-3,1,6,5,3,16,2,-2,0,6,-3.625,-3.625,-3.625,2.75,2.75,2.75,2.550818,3.174193,8.002073,7.03811,5.505553,2.566578,-0.1211724,-0.3656061,1.487769,0.3546119,0.116309,1.390664,0.101929,0.4367954,1.566242,-0.07817052,-0.3658333,1.462731,0.3399835,0.1739688,1.444,0.09126476,-0.01631242,1.60003,0.09374653,-0.3309467,1.585566,-0.08531182,0.1719145,1.576053,0.01038036,-0.3246648,1.548317,-0.138499,-0.08618309,1.588295,0.3865174,-0.008486241,1.599341,NA,NA,NotTracked,Unknown,
0.8930664,-0.4086914,-0.02001953,-0.3496094,0.8964844,0.3027344,0,-1,1,0,-3,0,-3,1,-2,-2,-2,-3,11,8,5,0,-3.625,-3.625,-3.625,-3.6875,-3.6875,-3.6875,2.550818,3.174193,8.002073,7.032666,5.508145,2.567078,-0.1200867,-0.3659603,1.488845,0.353877,0.1155158,1.389645,0.1019025,0.4367796,1.566446,-0.07769671,-0.3647565,1.463711,0.3506151,0.1678252,1.411556,0.09114212,-0.01619801,1.60013,0.09374984,-0.3308678,1.585513,-0.08538621,0.1720101,1.576215,0.01042678,-0.3246323,1.54807,-0.1379765,-0.08624981,1.587871,0.3841372,-0.004986485,1.59913,NA,NA,NotTracked,Unknown,
0.8930664,-0.4086914,-0.02001953,-0.3422852,0.8876953,0.2973633,0,-1,1,0,-3,0,-3,1,-2,23,9,-12,2,8,5,-2,-3.625,-3.625,-3.625,4.9375,4.9375,4.9375,2.550818,3.174193,8.002073,7.034261,5.510459,2.568391,-0.120971,-0.3667217,1.491063,0.353901,0.1159054,1.390451,0.1018977,0.4367604,1.566487,-0.07782087,-0.3640079,1.466392,0.35825,0.1793947,1.420833,0.09103529,-0.01621002,1.600147,0.09371617,-0.3308977,1.585477,-0.08538608,0.1720451,1.57631,0.01038088,-0.3246859,1.547953,-0.1379258,-0.08612619,1.587773,0.384818,-0.006404113,1.599556,NA,NA,NotTracked,Unknown,
0.8930664,-0.4086914,-0.02001953,-0.3530273,0.890625,0.3066406,0,-1,1,0,-3,0,-3,1,4,-6,-2,6,-14,-16,-10,-3,-3.625,-3.625,-3.625,-2,-2,-2,2.550818,3.174193,8.002073,7.032298,5.51186,2.570096,-0.1216647,-0.3674517,1.493675,0.3540198,0.1163998,1.391605,0.1018804,0.4367596,1.566702,-0.07677281,-0.3704626,1.468981,0.3206057,0.1718253,1.4656,0.09100633,-0.01615958,1.600188,0.0937325,-0.330858,1.585462,-0.08538861,0.1720234,1.576394,0.01040674,-0.3246676,1.5479,-0.1377494,-0.08610893,1.587735,0.3839398,-0.005084617,1.599609,NA,NA,NotTracked,Open,
0.8930664,-0.4086914,-0.02001953,-0.3491211,0.8725586,0.2988281,0,-1,1,0,-3,0,-3,1,3,-6,-12,-23,-11,4,2,14,-3.625,-3.625,-3.625,4.8125,4.8125,4.8125,2.550818,3.174193,8.002073,7.033145,5.514164,2.568863,-0.1221846,-0.3675108,1.495008,0.35435,0.115381,1.390037,0.1018576,0.4367943,1.56684,-0.07419188,-0.365997,1.478695,0.3737039,0.1657238,1.395038,0.09097441,-0.01614625,1.600198,0.09372241,-0.3308298,1.585435,-0.08536712,0.1720336,1.576419,0.01039928,-0.3246539,1.547854,-0.137618,-0.08627933,1.587626,0.383391,-0.004253966,1.59953,NA,NA,NotTracked,Open,
0.8930664,-0.4086914,-0.02001953,-0.3476563,0.8925781,0.3051758,0,-1,1,0,-3,0,-3,1,-6,-9,-4,-10,4,-7,-4,-9,-3.625,-3.625,-3.625,4.625,4.625,4.625,2.550818,3.174193,8.002073,7.034001,5.515632,2.567744,-0.1240765,-0.3678667,1.498129,0.3534664,0.1155339,1.39045,0.1018401,0.4368153,1.566888,-0.07520872,-0.3706155,1.47697,0.3268913,0.1703645,1.4635,0.09094573,-0.01614675,1.600204,0.09367535,-0.3308724,1.585395,-0.08537031,0.1720588,1.576496,0.01034789,-0.3247019,1.547784,-0.1375461,-0.08659086,1.587664,0.3847142,-0.006265821,1.599786,NA,NA,NotTracked,Unknown,
0.8930664,-0.4086914,-0.02001953,-0.3642578,0.8881836,0.3081055,0,-1,1,0,-3,0,-3,1,5,6,5,7,-6,2,3,2,-3.625,-3.625,-3.625,-4.875,-4.875,-4.875,2.550818,3.174193,8.002073,7.029379,5.518204,2.566929,-0.1266355,-0.3678164,1.500939,0.3540815,0.11651,1.391033,0.1018101,0.436841,1.567267,-0.07957119,-0.3735349,1.479936,0.3661488,0.1714605,1.400476,0.09088316,-0.01610994,1.600287,0.09364572,-0.3308581,1.585396,-0.08535256,0.1721011,1.57666,0.01032761,-0.3246956,1.547785,-0.137472,-0.08664012,1.58773,0.3838843,-0.005157738,1.599831,NA,NA,NotTracked,Unknown,
0.8930664,-0.4086914,-0.02001953,-0.3515625,0.8803711,0.3095703,0,-1,1,0,-3,0,-3,1,-16,4,-1,-4,6,6,3,-9,-3.625,-3.625,-3.625,1.375,1.375,1.375,2.550818,3.174193,8.002073,7.025358,5.521794,2.565341,-0.1280761,-0.3684397,1.503683,0.3543476,0.1151317,1.391419,0.1018271,0.4368698,1.567396,-0.07627034,-0.3619365,1.490334,0.3708198,0.1632434,1.389143,0.09089372,-0.01609096,1.600322,0.09364372,-0.3308547,1.585397,-0.08536091,0.1721242,1.576802,0.01032728,-0.3246956,1.547785,-0.1375262,-0.0867665,1.587877,0.3833015,-0.004303635,1.599784,NA,NA,NotTracked,Open,
0.8930664,-0.4086914,-0.02001953,-0.3535156,0.8916016,0.2998047,0,-1,1,0,-3,0,-3,1,-4,-3,3,-11,15,0,0,0,-3.625,-3.625,-3.625,2.5,2.5,2.5,2.550818,3.174193,8.002073,7.025635,5.523547,2.564734,-0.1283684,-0.3691991,1.504171,0.3539675,0.1154816,1.39129,0.1018815,0.4368879,1.567479,-0.07578669,-0.3668328,1.488625,0.3469426,0.1725079,1.424417,0.09088027,-0.01607384,1.600366,0.09362264,-0.3308508,1.585408,-0.08532805,0.1721298,1.576856,0.01030568,-0.324697,1.547796,-0.1375774,-0.08691739,1.588115,0.3828798,-0.003643789,1.599697,NA,NA,NotTracked,Open,
0.8930664,-0.4086914,-0.02001953,-0.3613281,0.8916016,0.3007813,0,-1,1,0,-3,0,-3,1,15,8,9,9,7,2,2,2,-3.625,-3.625,-3.625,-1.75,-1.75,-1.75,2.550818,3.174193,8.002073,7.022597,5.524608,2.566153,-0.1301149,-0.36979,1.505125,0.3535978,0.1142823,1.389268,0.1018868,0.4368855,1.567477,-0.07763787,-0.3611422,1.491184,0.359771,0.1685732,1.393222,0.09087329,-0.01606775,1.600364,0.09354538,-0.3309002,1.585338,-0.0853414,0.1721268,1.576902,0.01024499,-0.3247232,1.54773,-0.1377146,-0.08675885,1.588344,0.3842244,-0.005708389,1.59996,NA,NA,NotTracked,Open,
0.8930664,-0.4086914,-0.02001953,-0.3613281,0.8916016,0.3007813,0,-1,1,0,-3,0,-3,1,15,8,9,9,7,2,2,2,-3.625,-3.625,-3.625,-1.75,-1.75,-1.75,2.550818,3.174193,8.002073,7.022597,5.524608,2.566153,-0.1321892,-0.3704611,1.507176,0.3546344,0.1144994,1.39011,0.101932,0.436921,1.567527,-0.08004996,-0.355738,1.495111,0.3743018,0.166385,1.3976,0.09083606,-0.01605926,1.600401,0.09352446,-0.3309064,1.58534,-0.0853136,0.1721631,1.577134,0.01023326,-0.3247242,1.547731,-0.1377973,-0.08691121,1.588651,0.3851012,-0.00704342,1.600152,NA,NA,NotTracked,Open,
0.8930664,-0.4086914,-0.02001953,-0.3618164,0.8745117,0.2949219,0,-1,1,0,-3,0,-3,1,-11,-11,-4,3,-6,3,4,-13,-3.625,-3.625,-3.625,-0.25,-0.25,-0.25,2.550818,3.174193,8.002073,7.01914,5.526163,2.565028,-0.1320565,-0.3723522,1.506785,0.3551038,0.1142387,1.388693,0.1019913,0.43693,1.567575,-0.08016711,-0.3717448,1.492412,0.3630019,0.1685025,1.402066,0.09085803,-0.01605361,1.600423,0.09352216,-0.3309039,1.58535,-0.08529978,0.1721794,1.577231,0.01023433,-0.3247253,1.54774,-0.137901,-0.08685899,1.588899,0.3841057,-0.00554933,1.599914,NA,NA,NotTracked,Open,
0.8930664,-0.4086914,-0.02001953,-0.3432617,0.8950195,0.2963867,0,-1,1,0,-3,0,-3,1,6,4,1,3,-3,2,4,0,-3.625,-3.625,-3.625,-2.3125,-2.3125,-2.3125,2.550818,3.174193,8.002073,7.016157,5.526335,2.562731,-0.1323414,-0.3724413,1.506407,0.3550572,0.1137058,1.388366,0.1020516,0.436998,1.567657,-0.07978406,-0.3445996,1.495677,0.3441963,0.1673832,1.422143,0.09084663,-0.01603375,1.600438,0.09350705,-0.3308829,1.585355,-0.0852267,0.1723165,1.577456,0.01022675,-0.3247037,1.547722,-0.1380111,-0.08684663,1.58902,0.3834544,-0.00458567,1.599743,NA,NA,NotTracked,Open,
0.8930664,-0.4086914,-0.02001953,-0.3300781,0.9033203,0.3217773,0,-1,1,0,-3,0,-3,1,9,0,-1,-11,-8,-20,-9,4,-3.625,-3.625,-3.625,-7.1875,-7.1875,-7.1875,2.550818,3.174193,8.002073,7.007562,5.522794,2.563427,-0.1316859,-0.3722534,1.505682,0.3547139,0.1137741,1.387831,0.102063,0.4370061,1.567669,-0.07954204,-0.3719896,1.491125,0.367413,0.165247,1.391276,0.09083756,-0.01601134,1.600451,0.09349322,-0.330876,1.585356,-0.08524214,0.1723151,1.577526,0.01021601,-0.3247036,1.547723,-0.1380531,-0.08685984,1.58911,0.3829388,-0.003937027,1.599532,NA,NA,NotTracked,Unknown,
0.8930664,-0.4086914,-0.02001953,-0.3535156,0.887207,0.3334961,0,-1,1,0,-3,0,-3,1,-9,-6,4,4,-5,1,-2,-1,-3.625,-3.625,-3.625,-3.9375,-3.9375,-3.9375,2.550818,3.174193,8.002073,7.0037,5.523734,2.563292,-0.1311754,-0.3726767,1.505391,0.3543004,0.1134532,1.387271,0.1020709,0.4370022,1.567721,-0.07961485,-0.3554545,1.493678,0.3691461,0.1631231,1.385658,0.09081428,-0.01599573,1.600464,0.09347927,-0.3308712,1.585357,-0.08521168,0.1723446,1.577598,0.01020041,-0.3247032,1.547733,-0.1382296,-0.08662831,1.589363,0.3826126,-0.003457309,1.599419,NA,NA,NotTracked,Unknown,
0.8930664,-0.4086914,-0.02001953,-0.3398438,0.9345703,0.3046875,0,-1,1,0,-3,0,-3,1,-10,-4,-1,-10,14,4,-5,-12,-3.625,-3.625,-3.625,2.3125,2.3125,2.3125,2.550818,3.174193,8.002073,7.010332,5.527927,2.56349,-0.1305852,-0.3724215,1.504389,0.3546572,0.1138573,1.387576,0.1021003,0.4370237,1.567723,-0.08164107,-0.3577452,1.487477,0.342401,0.1722966,1.427,0.09081393,-0.01599587,1.600468,0.09343173,-0.3309049,1.585353,-0.08520881,0.1723335,1.577658,0.01015533,-0.3247196,1.547728,-0.1382419,-0.08667411,1.58951,0.384048,-0.005655269,1.599339,NA,NA,NotTracked,Unknown,
0.8930664,-0.4086914,-0.02001953,-0.3369141,0.9077148,0.3144531,0,-1,1,0,-3,0,-3,1,-15,-15,-7,-12,-20,1,-2,-10,-3.625,-3.625,-3.625,-2.125,-2.125,-2.125,2.550818,3.174193,8.002073,7.008819,5.528463,2.565142,-0.1297908,-0.3726328,1.504068,0.3542861,0.1138236,1.388102,0.1021607,0.4370911,1.567828,-0.08395919,-0.3784242,1.482677,0.3658539,0.1672771,1.39848,0.09081206,-0.01598693,1.600489,0.09337725,-0.3309167,1.585353,-0.08516014,0.1724328,1.577822,0.01009735,-0.3247077,1.547725,-0.1382229,-0.08675315,1.58958,0.3848132,-0.00692345,1.599401,NA,NA,NotTracked,Unknown,
0.8930664,-0.4086914,-0.02001953,-0.3427734,0.8725586,0.3085938,0,-1,1,0,-3,0,-3,1,2,-3,-8,-4,-8,9,-4,1,-3.625,-3.625,-3.625,-0.0625,-0.0625,-0.0625,2.550818,3.174193,8.002073,7.00831,5.529954,2.566805,-0.1294315,-0.3712437,1.502439,0.353113,0.1145091,1.387469,0.1021936,0.4370892,1.567855,-0.08199973,-0.3747325,1.483327,0.3210036,0.1857191,1.417444,0.0908085,-0.01599211,1.600489,0.09335527,-0.3309291,1.585355,-0.08515227,0.172425,1.577944,0.01008471,-0.3247143,1.547705,-0.1381883,-0.08670022,1.589711,0.3857164,-0.008052052,1.598852,NA,NA,NotTracked,Open,
0.8930664,-0.4086914,-0.02001953,-0.3422852,0.9135742,0.2919922,0,-1,1,0,-3,0,-3,1,-8,-6,-2,-17,-16,-5,-5,-12,-3.625,-3.625,-3.625,0.125,0.125,0.125,2.550818,3.174193,8.002073,7.013042,5.534593,2.569553,-0.1287424,-0.3713702,1.502052,0.3541829,0.1132542,1.387893,0.1022225,0.43713,1.568028,-0.08418661,-0.3772429,1.475758,0.3524204,0.1671213,1.411455,0.09080725,-0.01599541,1.600499,0.09335311,-0.3309298,1.585358,-0.08511506,0.1724016,1.577993,0.01008077,-0.3247138,1.547696,-0.1380964,-0.08679794,1.589955,0.38616,-0.008733394,1.598923,NA,NA,NotTracked,Open,
0.8930664,-0.4086914,-0.02001953,-0.3408203,0.878418,0.3071289,0,-1,1,0,-3,0,-3,1,6,-2,-7,2,0,0,-7,1,-3.625,-3.625,-3.625,-0.25,-0.25,-0.25,2.550818,3.174193,8.002073,7.012084,5.535977,2.569552,-0.1267997,-0.3692764,1.500797,0.354471,0.1143172,1.387526,0.1023276,0.4371911,1.568162,-0.08240358,-0.3806833,1.471645,0.3503909,0.1674421,1.409647,0.09081888,-0.0159544,1.600514,0.09335386,-0.3309158,1.585352,-0.08504156,0.1724295,1.578146,0.01007865,-0.3247092,1.547682,-0.138112,-0.0868732,1.590042,0.383954,-0.005111349,1.598192,NA,NA,NotTracked,Open,
0.8930664,-0.4086914,-0.02001953,-0.3422852,0.8916016,0.2954102,0,-1,1,0,-3,0,-3,1,0,5,7,-3,-4,-5,4,-5,-3.625,-3.625,-3.625,0.75,0.75,0.75,2.550818,3.174193,8.002073,7.014277,5.540586,2.568195,-0.1256292,-0.3694007,1.501406,0.3545625,0.1147392,1.388623,0.102383,0.4372087,1.568304,-0.07975598,-0.3667848,1.479506,0.3468804,0.186353,1.429333,0.09083221,-0.01589753,1.600603,0.09337563,-0.3308664,1.585389,-0.08503705,0.1724118,1.578239,0.01010532,-0.3246738,1.547742,-0.1381005,-0.0870947,1.590184,0.3836289,-0.00442303,1.598033,NA,NA,NotTracked,Unknown,
0.8930664,-0.4086914,-0.02001953,-0.3569336,0.8911133,0.2954102,0,-1,1,0,-3,0,-3,1,-3,-1,-4,4,8,-2,0,-2,-3.625,-3.625,-3.625,-2.3125,-2.3125,-2.3125,2.550818,3.174193,8.002073,7.012036,5.541921,2.567295,-0.1250778,-0.3691147,1.501176,0.3547297,0.1148989,1.388103,0.1024585,0.4372579,1.568402,-0.07644851,-0.3574132,1.485509,0.3361522,0.1690199,1.423375,0.09083908,-0.01585258,1.600632,0.09338177,-0.3308553,1.58539,-0.08501095,0.172395,1.578327,0.01011106,-0.3246686,1.547743,-0.1380098,-0.08712488,1.590222,0.3834519,-0.003881868,1.597807,NA,NA,NotTracked,Unknown,
0.8930664,-0.4086914,-0.02001953,-0.3457031,0.875,0.3017578,0,-1,1,0,-3,0,-3,1,-4,-7,-8,7,-6,-1,-1,-4,-3.625,-3.625,-3.625,2.5625,2.5625,2.5625,2.550818,3.174193,8.002073,7.010689,5.544485,2.565511,-0.1250837,-0.3697332,1.500391,0.3549743,0.1137597,1.387885,0.1025319,0.4373512,1.568502,-0.08107743,-0.3836666,1.46951,0.367624,0.1640274,1.386714,0.0908624,-0.01582724,1.60068,0.09339735,-0.3308455,1.585394,-0.08497575,0.1724006,1.57841,0.01013539,-0.3246597,1.547748,-0.1378532,-0.08725896,1.590274,0.3831775,-0.003447493,1.59777,NA,NA,NotTracked,Open,
0.8930664,-0.4086914,-0.02001953,-0.3476563,0.9023438,0.3046875,0,-1,1,0,-3,0,-3,1,-2,2,4,-11,4,4,-1,-2,-3.625,-3.625,-3.625,3.875,3.875,3.875,2.550818,3.174193,8.002073,7.011818,5.545,2.56476,-0.1250241,-0.3694717,1.500341,0.3555483,0.1144814,1.38815,0.1026158,0.4374386,1.568596,-0.08000246,-0.3723094,1.476738,0.344619,0.1680662,1.4055,0.09088203,-0.01582457,1.600681,0.09340076,-0.3308471,1.585387,-0.08494698,0.1724077,1.578435,0.01014327,-0.3246516,1.547723,-0.1378318,-0.08725393,1.59027,0.3849722,-0.006013513,1.597826,NA,NA,NotTracked,Open,
0.8930664,-0.4086914,-0.02001953,-0.3588867,0.8706055,0.3017578,0,-1,1,0,-3,0,-3,1,1,-6,2,8,-1,13,-12,-18,-3.625,-3.625,-3.625,0.1875,0.1875,0.1875,2.550818,3.174193,8.002073,7.009888,5.54585,2.56411,-0.1253872,-0.3687813,1.500852,0.355463,0.1144663,1.388271,0.1026364,0.4374609,1.56863,-0.07667365,-0.3638622,1.480935,0.3333229,0.1834871,1.41575,0.09088077,-0.0158176,1.600684,0.09340137,-0.330854,1.585364,-0.08493624,0.1723712,1.578511,0.01014491,-0.324655,1.547676,-0.1378062,-0.08725852,1.590265,0.3861569,-0.007739174,1.597995,NA,NA,NotTracked,Unknown,
0.8930664,-0.4086914,-0.02001953,-0.347168,0.8813477,0.3046875,0,-1,1,0,-3,0,-3,1,-2,-6,-4,-10,-6,-9,-2,2,-3.625,-3.625,-3.625,2,2,2,2.550818,3.174193,8.002073,7.011689,5.548143,2.562601,-0.1260413,-0.3696228,1.501407,0.3553221,0.1145869,1.388725,0.1027663,0.4374492,1.568746,-0.07720543,-0.3677346,1.483714,0.3722447,0.1714477,1.401786,0.09098317,-0.01581218,1.600667,0.0934638,-0.3308537,1.585284,-0.08485579,0.1723732,1.578571,0.01021405,-0.3246709,1.547572,-0.1376347,-0.08731704,1.59021,0.3851105,-0.005320191,1.597254,NA,NA,NotTracked,Open,
0.8930664,-0.4086914,-0.02001953,-0.3549805,0.8916016,0.300293,0,-1,1,0,-3,0,-3,1,-1,6,-3,-3,-4,-6,-1,5,-3.625,-3.625,-3.625,2.625,2.625,2.625,2.550818,3.174193,8.002073,7.012224,5.549288,2.561845,-0.1264615,-0.3697782,1.500723,0.3553531,0.1144812,1.388161,0.102841,0.4374881,1.568814,-0.08047148,-0.3833872,1.475385,0.3478149,0.1685481,1.413316,0.09102613,-0.01581334,1.600632,0.09349646,-0.3308516,1.585221,-0.08481429,0.1723421,1.578564,0.01026502,-0.3246769,1.547477,-0.137593,-0.08743484,1.590151,0.3846791,-0.004430265,1.596984,NA,NA,NotTracked,Unknown,
0.8930664,-0.4086914,-0.02001953,-0.359375,0.8769531,0.2963867,0,-1,1,0,-3,0,-3,1,4,20,4,9,4,-5,1,2,-3.625,-3.625,-3.625,0.5,0.5,0.5,2.550818,3.174193,8.002073,7.011088,5.550546,2.561063,-0.1268271,-0.3692083,1.50172,0.3559765,0.1138899,1.387837,0.1028732,0.437496,1.568825,-0.07841551,-0.3718398,1.480736,0.3704783,0.1639508,1.387052,0.09103708,-0.01579117,1.60063,0.09353118,-0.3308332,1.5852,-0.08479422,0.1723407,1.578581,0.01030797,-0.3246604,1.547418,-0.1374667,-0.08732519,1.590088,0.3843083,-0.00381294,1.596866,NA,NA,NotTracked,Unknown,
0.8930664,-0.4086914,-0.02001953,-0.3588867,0.9038086,0.2944336,0,-1,1,0,-3,0,-3,1,-1,3,-2,-15,0,3,-9,-1,-3.625,-3.625,-3.625,2,2,2,2.550818,3.174193,8.002073,7.011501,5.55169,2.559927,-0.1269713,-0.3699343,1.501303,0.3557443,0.1147357,1.38791,0.1029248,0.4375225,1.56884,-0.07780062,-0.3676026,1.483349,0.3443778,0.1687221,1.44975,0.09107366,-0.01577157,1.60059,0.09357531,-0.330804,1.585126,-0.08473396,0.1723454,1.578564,0.01034358,-0.3246509,1.54734,-0.1374175,-0.08728687,1.590054,0.3838379,-0.002922562,1.596514,NA,NA,NotTracked,Unknown,
0.8930664,-0.4086914,-0.02001953,-0.3457031,0.890625,0.3071289,0,-1,1,0,-3,0,-3,1,-5,-7,1,-19,-3,11,5,-4,-3.625,-3.625,-3.625,-0.25,-0.25,-0.25,2.550818,3.174193,8.002073,7.01064,5.552569,2.559911,-0.1269897,-0.3699906,1.502087,0.3553695,0.114788,1.387738,0.1029751,0.4375487,1.568837,-0.07800557,-0.3676446,1.482891,0.3216433,0.1891383,1.44025,0.09107608,-0.01576776,1.600567,0.09357136,-0.3308133,1.585069,-0.08470548,0.172353,1.578558,0.01034329,-0.324646,1.547292,-0.1374123,-0.08729093,1.590054,0.3856212,-0.00503545,1.596477,NA,NA,NotTracked,Unknown,
0.8930664,-0.4086914,-0.02001953,-0.3579102,0.894043,0.2944336,0,-1,1,0,-3,0,-3,1,-8,3,1,6,5,9,12,2,-3.625,-3.625,-3.625,2.0625,2.0625,2.0625,2.550818,3.174193,8.002073,7.011594,5.554898,2.560437,-0.1270282,-0.3693793,1.50165,0.3560958,0.1148235,1.387642,0.102983,0.4375502,1.568836,-0.07756808,-0.3677603,1.484056,0.3589534,0.1800869,1.452,0.09110787,-0.01574633,1.600525,0.09360097,-0.3308066,1.584978,-0.08469681,0.1723538,1.578555,0.01036729,-0.3246469,1.547215,-0.1373405,-0.08766712,1.590054,0.3852273,-0.004373362,1.596333,NA,NA,NotTracked,Unknown,
0.8930664,-0.4086914,-0.02001953,-0.355957,0.894043,0.2924805,0,-1,1,0,-3,0,-3,1,-15,-7,0,4,13,-1,-2,-4,-3.625,-3.625,-3.625,-2.1875,-2.1875,-2.1875,2.550818,3.174193,8.002073,7.01013,5.556005,2.559771,-0.1269162,-0.3699559,1.501818,0.3552585,0.1146958,1.387322,0.1030206,0.4375718,1.568802,-0.08269681,-0.3791979,1.475817,0.315828,0.1844558,1.44925,0.09113808,-0.01574629,1.600523,0.09360333,-0.330833,1.584962,-0.08466288,0.1723481,1.578577,0.01036748,-0.3246594,1.547189,-0.1372435,-0.08776245,1.590054,0.3870836,-0.006720352,1.596101,NA,NA,NotTracked,Unknown,
0.8930664,-0.4086914,-0.02001953,-0.3422852,0.8725586,0.3012695,0,-1,1,0,-3,0,-3,1,0,2,5,6,-9,2,2,0,-3.625,-3.625,-3.625,0.0625,0.0625,0.0625,2.550818,3.174193,8.002073,7.009737,5.55598,2.559902,-0.1269114,-0.3699749,1.501614,0.3556928,0.1139869,1.386532,0.1030316,0.4376041,1.568801,-0.07665367,-0.3622012,1.485979,0.3689661,0.1662716,1.389613,0.0911413,-0.01574845,1.60048,0.09362899,-0.3308212,1.584913,-0.08466192,0.1723134,1.57857,0.01039856,-0.3246566,1.54712,-0.1371686,-0.0879192,1.590054,0.386173,-0.005364464,1.595744,NA,NA,NotTracked,Unknown,
0.8930664,-0.4086914,-0.02001953,-0.3579102,0.8842773,0.2924805,0,-1,1,0,-3,0,-3,1,-4,-8,-2,2,-4,-2,-3,-8,-3.625,-3.625,-3.625,2.25,2.25,2.25,2.550818,3.174193,8.002073,7.010476,5.55679,2.559266,-0.126668,-0.370554,1.500955,0.3559978,0.1142542,1.386028,0.1030356,0.437617,1.568791,-0.07905756,-0.378633,1.477945,0.3693165,0.166861,1.388796,0.09116305,-0.01573505,1.600423,0.09365812,-0.3308028,1.584841,-0.08464111,0.1723047,1.578565,0.01045473,-0.3246455,1.546978,-0.1370647,-0.0880769,1.590054,0.3857871,-0.004412203,1.595118,NA,NA,NotTracked,Open,
0.8930664,-0.4086914,-0.02001953,-0.340332,0.8867188,0.2958984,0,-1,1,0,-3,0,-3,1,-8,1,-2,2,-3,2,3,-2,-3.625,-3.625,-3.625,-1.4375,-1.4375,-1.4375,2.550818,3.174193,8.002073,7.009592,5.55712,2.558367,-0.1261911,-0.3699598,1.500441,0.356051,0.1141425,1.384746,0.1030366,0.4376276,1.568746,-0.0767464,-0.3626761,1.483749,0.3706622,0.1638283,1.385802,0.09122954,-0.01570869,1.600277,0.09372475,-0.3307478,1.584667,-0.08461019,0.1722879,1.578526,0.01051997,-0.3246054,1.546832,-0.1368576,-0.08848353,1.589862,0.3853149,-0.003683987,1.594914,NA,NA,NotTracked,Open,
0.8930664,-0.4086914,-0.02001953,-0.3413086,0.894043,0.3071289,0,-1,1,0,-3,0,-3,1,0,-6,-11,-15,15,5,1,3,-3.625,-3.625,-3.625,0.8125,0.8125,0.8125,2.550818,3.174193,8.002073,7.008666,5.556267,2.559242,-0.125987,-0.3697771,1.501339,0.3560565,0.1139729,1.385438,0.1030454,0.4376844,1.568658,-0.07882926,-0.3707486,1.480628,0.3703238,0.1657958,1.390338,0.09127121,-0.01571431,1.600207,0.09372056,-0.3307492,1.584637,-0.08452906,0.1722878,1.578476,0.01051752,-0.3246047,1.546825,-0.1368573,-0.08848212,1.58985,0.3849727,-0.003152002,1.594743,NA,NA,NotTracked,Unknown,
0.8930664,-0.4086914,-0.02001953,-0.3574219,0.8901367,0.2915039,0,-1,1,0,-3,0,-3,1,-3,-7,1,-15,-3,9,-1,-4,-3.625,-3.625,-3.625,2,2,2,2.550818,3.174193,8.002073,7.010061,5.557546,2.560025,-0.1259785,-0.3700874,1.501454,0.3563244,0.1134404,1.385444,0.1030927,0.4377439,1.568519,-0.07948765,-0.3751892,1.477917,0.3601961,0.1700446,1.401364,0.09132585,-0.01569866,1.600078,0.09375759,-0.3306921,1.584488,-0.08442363,0.1723008,1.578397,0.01054849,-0.324543,1.546681,-0.1368287,-0.08838448,1.589766,0.3846332,-0.002425885,1.594257,NA,NA,NotTracked,Open,
0.8930664,-0.4086914,-0.02001953,-0.3422852,0.887207,0.3076172,0,-1,1,0,-3,0,-3,1,-8,-10,-10,-5,-7,-12,-11,-6,-3.625,-3.625,-3.625,-0.875,-0.875,-0.875,2.550818,3.174193,8.002073,7.008749,5.557428,2.559886,-0.1262168,-0.370151,1.500405,0.3564065,0.1138689,1.38487,0.1031168,0.4377719,1.568371,-0.07865818,-0.3761815,1.478002,0.3586856,0.1702553,1.402976,0.09130794,-0.01570418,1.599947,0.09372367,-0.3307463,1.58429,-0.0844165,0.1723159,1.578314,0.01051519,-0.3245756,1.546506,-0.1367387,-0.08837384,1.589607,0.3866695,-0.00540488,1.594426,NA,NA,NotTracked,Open,
0.8930664,-0.4086914,-0.02001953,-0.3461914,0.878418,0.3105469,0,-1,1,0,-3,0,-3,1,-17,-20,-8,8,-1,-8,-5,-4,-3.625,-3.625,-3.625,1.75,1.75,1.75,2.550818,3.174193,8.002073,7.007724,5.55934,2.558591,-0.1260511,-0.3698574,1.499804,0.3553515,0.1143391,1.383952,0.103149,0.4377888,1.56812,-0.0818891,-0.3876208,1.469139,0.3597256,0.1700015,1.399344,0.09132072,-0.0156865,1.599785,0.09374463,-0.3306982,1.584133,-0.08439407,0.1723356,1.578234,0.01053493,-0.3245491,1.546372,-0.1366884,-0.0883845,1.589547,0.385958,-0.004241467,1.594155,NA,NA,NotTracked,Open,
0.8930664,-0.4086914,-0.02001953,-0.3652344,0.894043,0.2895508,0,-1,1,0,-3,0,-3,1,-3,-15,-4,3,-15,-3,-7,-9,-3.625,-3.625,-3.625,0.375,0.375,0.375,2.550818,3.174193,8.002073,7.007585,5.559551,2.558456,-0.1262583,-0.3717934,1.498345,0.356196,0.113683,1.382936,0.1031404,0.4378244,1.567717,-0.07818175,-0.3701305,1.478206,0.3680255,0.1675136,1.389519,0.09135012,-0.01569628,1.599277,0.09369184,-0.3307192,1.583746,-0.08433743,0.1723242,1.577927,0.01048151,-0.3245351,1.545964,-0.1366638,-0.08862883,1.589212,0.3863982,-0.004675296,1.592894,NA,NA,NotTracked,Open,
0.8930664,-0.4086914,-0.02001953,-0.3354492,0.8867188,0.3017578,0,-1,1,0,-3,0,-3,1,3,7,4,5,-1,-3,1,-4,-3.625,-3.625,-3.625,-3.6875,-3.6875,-3.6875,2.550818,3.174193,8.002073,7.003401,5.559472,2.557103,-0.1262265,-0.3717387,1.499365,0.3555477,0.1139481,1.383757,0.1031243,0.4378201,1.56749,-0.07949201,-0.3706806,1.477435,0.3565738,0.1728422,1.406077,0.0914013,-0.01571321,1.599153,0.09369145,-0.3307258,1.583689,-0.08437535,0.1722813,1.577863,0.01048774,-0.3245496,1.545916,-0.1366905,-0.0885947,1.58902,0.3858563,-0.003892522,1.592605,NA,NA,NotTracked,Open,
0.8930664,-0.4086914,-0.02001953,-0.3461914,0.8847656,0.2905273,0,-1,1,0,-3,0,-3,1,-4,-5,-4,0,11,13,5,1,-3.625,-3.625,-3.625,0.75,0.75,0.75,2.550818,3.174193,8.002073,7.002203,5.55948,2.55658,-0.1263396,-0.3725146,1.498682,0.355244,0.1139609,1.383566,0.1030867,0.4377826,1.567288,-0.07936801,-0.3751425,1.47666,0.3498847,0.1782823,1.422273,0.09143987,-0.01573689,1.598933,0.09371917,-0.3307564,1.583541,-0.08435775,0.1722037,1.577725,0.01051288,-0.324603,1.545781,-0.1366749,-0.08839113,1.588889,0.385523,-0.003354568,1.592056,NA,NA,NotTracked,Unknown,
0.8930664,-0.4086914,-0.02001953,-0.3535156,0.8896484,0.2875977,0,-1,1,0,-3,0,-3,1,-1,-3,3,35,13,-6,-3,9,-3.625,-3.625,-3.625,0,0,0,2.550818,3.174193,8.002073,7.002781,5.558219,2.556979,-0.1261589,-0.3718315,1.49825,0.3547865,0.1126297,1.382719,0.1031044,0.4377996,1.567053,-0.0800641,-0.3840185,1.473888,0.3741568,0.1621058,1.387031,0.09143336,-0.01570074,1.598611,0.09373809,-0.3307207,1.583302,-0.08434989,0.1722079,1.577617,0.01054587,-0.3245911,1.545497,-0.1366844,-0.08834125,1.588732,0.3851589,-0.002877931,1.591871,NA,NA,NotTracked,Unknown,
0.8930664,-0.4086914,-0.02001953,-0.3554688,0.9042969,0.2949219,0,-1,1,0,-3,0,-3,1,-2,-3,-1,-10,-13,-14,0,6,-3.625,-3.625,-3.625,0.75,0.75,0.75,2.550818,3.174193,8.002073,7.003322,5.556937,2.556725,-0.1261249,-0.371842,1.497496,0.3547313,0.1129524,1.382126,0.1031284,0.4378406,1.566522,-0.07889999,-0.3729546,1.47587,0.3207045,0.1629297,1.438667,0.09135868,-0.0157845,1.598153,0.09368151,-0.3308159,1.582919,-0.08438997,0.1721625,1.577264,0.01047584,-0.3246096,1.544959,-0.1366596,-0.0883861,1.588474,0.3860878,-0.004396209,1.591906,NA,NA,NotTracked,Unknown,
0.8930664,-0.4086914,-0.02001953,-0.3530273,0.9013672,0.2827148,0,-1,1,0,-3,0,-3,1,4,4,3,-2,-19,-4,2,3,-3.625,-3.625,-3.625,4.3125,4.3125,4.3125,2.550818,3.174193,8.002073,7.006588,5.556756,2.556141,-0.1260851,-0.3720963,1.49766,0.3548957,0.1126139,1.381947,0.1031569,0.4378737,1.566094,-0.08175281,-0.385281,1.469741,0.3654037,0.1663624,1.386318,0.0913898,-0.01577707,1.597943,0.09367169,-0.3307975,1.582759,-0.08432481,0.1722031,1.576964,0.01047339,-0.3246022,1.544784,-0.1366177,-0.08834825,1.588355,0.3855394,-0.003639537,1.591785,NA,NA,NotTracked,Unknown,
0.8930664,-0.4086914,-0.02001953,-0.3598633,0.8930664,0.2924805,0,-1,1,0,-3,0,-3,1,-3,-4,-2,-11,-8,-2,-1,-2,-3.625,-3.625,-3.625,-2.6875,-2.6875,-2.6875,2.550818,3.174193,8.002073,7.005797,5.557593,2.556767,-0.1265273,-0.3740776,1.496301,0.3545251,0.1127748,1.38037,0.1031864,0.4378701,1.565261,-0.07647909,-0.3709396,1.480026,0.3554873,0.1711549,1.404222,0.09139539,-0.0158715,1.597131,0.09360924,-0.330851,1.581999,-0.0843604,0.1721727,1.576169,0.01042617,-0.324621,1.543997,-0.1366255,-0.08840556,1.587799,0.3861408,-0.004874541,1.591746,NA,NA,NotTracked,Unknown,
0.8930664,-0.4086914,-0.02001953,-0.3427734,0.9003906,0.2954102,0,-1,1,0,-3,0,-3,1,-11,6,5,-7,-1,1,-4,-12,-3.625,-3.625,-3.625,-2.25,-2.25,-2.25,2.550818,3.174193,8.002073,6.999336,5.557172,2.554612,-0.1270747,-0.3722107,1.495843,0.3548679,0.1130213,1.380225,0.1032228,0.4378257,1.564693,-0.0768723,-0.3654231,1.480118,0.3316555,0.170466,1.4346,0.09134584,-0.01587137,1.596696,0.09357019,-0.3308156,1.581696,-0.08439205,0.1722028,1.575529,0.01039991,-0.3245966,1.543751,-0.1367358,-0.08859382,1.587337,0.3853955,-0.004160362,1.590914,NA,NA,NotTracked,Open,
0.8930664,-0.4086914,-0.02001953,-0.347168,0.8764648,0.3085938,0,-1,1,0,-3,0,-3,1,9,1,1,-8,-7,-3,4,8,-3.625,-3.625,-3.625,0.5625,0.5625,0.5625,2.550818,3.174193,8.002073,6.998188,5.55775,2.553696,-0.1270455,-0.3711601,1.495666,0.354827,0.1125669,1.378651,0.1032153,0.4379112,1.564138,-0.07840261,-0.3726325,1.475121,0.352208,0.1770582,1.398727,0.09130724,-0.0159155,1.596131,0.09352239,-0.3309364,1.581228,-0.08443655,0.172124,1.575019,0.01034559,-0.324665,1.543247,-0.1368382,-0.08856091,1.586808,0.3864953,-0.006145803,1.590322,NA,NA,NotTracked,Open,
0.8930664,-0.4086914,-0.02001953,-0.3569336,0.8857422,0.284668,0,-1,1,0,-3,0,-3,1,-2,-12,-4,-8,-5,-1,-1,5,-3.625,-3.625,-3.625,2.4375,2.4375,2.4375,2.550818,3.174193,8.002073,6.99937,5.558393,2.553335,-0.1267608,-0.3711747,1.495747,0.3540458,0.1128242,1.380113,0.1032263,0.4379303,1.563698,-0.07610945,-0.3619165,1.481383,0.3272941,0.1791017,1.4226,0.09130628,-0.01581426,1.595639,0.09360426,-0.3308768,1.580786,-0.0844785,0.1720826,1.574764,0.01040958,-0.3246191,1.542868,-0.1367728,-0.08862426,1.586537,0.3857342,-0.005070875,1.590076,NA,NA,NotTracked,Unknown,
0.8930664,-0.4086914,-0.02001953,-0.3461914,0.8945313,0.2924805,0,-1,1,0,-3,0,-3,1,0,4,0,15,-10,-2,-2,0,-3.625,-3.625,-3.625,0,0,0,2.550818,3.174193,8.002073,7.000235,5.556988,2.553484,-0.1266389,-0.3709705,1.494636,0.3544874,0.1121516,1.377892,0.1032208,0.4379379,1.563151,-0.08007804,-0.3848557,1.468404,0.3206195,0.1691574,1.453,0.09126556,-0.01576382,1.595195,0.09360941,-0.3308713,1.580336,-0.08449584,0.1719868,1.574211,0.0103859,-0.3246554,1.542388,-0.1366723,-0.08880625,1.586125,0.3850811,-0.004222001,1.589721,NA,NA,NotTracked,Unknown,
0.8930664,-0.4086914,-0.02001953,-0.3481445,0.8833008,0.3032227,0,-1,1,0,-3,0,-3,1,9,-6,-6,-3,-27,-27,-14,-5,-3.625,-3.625,-3.625,3.375,3.375,3.375,2.550818,3.174193,8.002073,7.002099,5.557113,2.554023,-0.1267133,-0.3711253,1.493057,0.3540658,0.1119961,1.377091,0.1032082,0.4380827,1.562496,-0.07646223,-0.3587697,1.477681,0.3436037,0.1636794,1.428833,0.09126783,-0.01578043,1.594469,0.09350789,-0.3309874,1.579625,-0.08449057,0.1719309,1.573332,0.01026232,-0.3246926,1.541629,-0.1366494,-0.0887148,1.585438,0.3862835,-0.006313664,1.58942,NA,NA,NotTracked,Unknown,
0.8930664,-0.4086914,-0.02001953,-0.3466797,0.8979492,0.2973633,0,-1,1,0,-3,0,-3,1,-2,-7,-3,-1,-10,-4,-4,-7,-3.625,-3.625,-3.625,4.5,4.5,4.5,2.550818,3.174193,8.002073,7.004438,5.557454,2.554053,-0.1265822,-0.3713681,1.493567,0.3538478,0.1115873,1.376934,0.1031755,0.4381159,1.561992,-0.07720907,-0.3717903,1.475113,0.3206355,0.1891074,1.434,0.09129964,-0.01575677,1.593975,0.09352632,-0.3309497,1.579214,-0.0844572,0.1718297,1.572664,0.01028333,-0.3246835,1.541285,-0.1366574,-0.08869567,1.584908,0.3854947,-0.00513436,1.589043,NA,NA,NotTracked,Unknown,
0.8930664,-0.4086914,-0.02001953,-0.3427734,0.8911133,0.2905273,0,-1,1,0,-3,0,-3,1,-14,-1,0,-5,-3,-13,-4,-14,-3.625,-3.625,-3.625,-3.9375,-3.9375,-3.9375,2.550818,3.174193,8.002073,7.001198,5.556977,2.555169,-0.1264999,-0.3711993,1.492272,0.3551612,0.1119492,1.376438,0.1031464,0.4382409,1.560714,-0.07827042,-0.378393,1.4706,0.3255173,0.1614596,1.437333,0.09120407,-0.01564885,1.592922,0.0935383,-0.3307726,1.578349,-0.0845244,0.1719116,1.571545,0.01030529,-0.3245488,1.540522,-0.1366029,-0.08871081,1.583932,0.3847983,-0.003793338,1.587286,NA,NA,NotTracked,Unknown,
0.8930664,-0.4086914,-0.02001953,-0.3442383,0.8808594,0.3051758,0,-1,1,0,-3,0,-3,1,-4,3,7,1,7,2,2,-1,-3.625,-3.625,-3.625,0.4375,0.4375,0.4375,2.550818,3.174193,8.002073,7.00125,5.557022,2.554902,-0.1262917,-0.3710582,1.490839,0.3543648,0.1112612,1.373601,0.1030482,0.4382372,1.559946,-0.07682353,-0.3671521,1.473468,0.3632151,0.1643882,1.37556,0.09112136,-0.01562775,1.592166,0.09354636,-0.3306774,1.577683,-0.08456924,0.1719764,1.570842,0.01027431,-0.3244441,1.539894,-0.1367707,-0.08821112,1.582955,0.3844729,-0.003346344,1.586088,NA,NA,NotTracked,Unknown,
0.8930664,-0.4086914,-0.02001953,-0.3520508,0.909668,0.2851563,0,-1,1,0,-3,0,-3,1,7,5,1,2,5,5,0,1,-3.625,-3.625,-3.625,0.9375,0.9375,0.9375,2.550818,3.174193,8.002073,7.002901,5.557606,2.554553,-0.1266278,-0.3704072,1.490908,0.3543195,0.1116495,1.374092,0.103046,0.438286,1.559129,-0.07736345,-0.3769457,1.471567,0.3348406,0.1621015,1.41775,0.09113554,-0.01547857,1.591474,0.09355763,-0.3305337,1.577165,-0.0845559,0.1719894,1.570076,0.01029092,-0.3242797,1.539203,-0.1368318,-0.08817963,1.582088,0.3842601,-0.002950748,1.585223,NA,NA,NotTracked,Unknown,
0.8930664,-0.4086914,-0.02001953,-0.3486328,0.890625,0.2954102,0,-1,1,0,-3,0,-3,1,6,-1,5,1,-4,0,3,0,-3.625,-3.625,-3.625,0.3125,0.3125,0.3125,2.550818,3.174193,8.002073,7.00023,5.556358,2.555791,-0.126192,-0.3711683,1.490201,0.3552566,0.11129,1.372945,0.1031264,0.4382482,1.558389,-0.07644562,-0.3608726,1.474739,0.3706245,0.160502,1.371928,0.0912115,-0.01551529,1.590894,0.09356983,-0.3304661,1.576673,-0.08460117,0.172097,1.569478,0.01031133,-0.3242415,1.538685,-0.1367189,-0.08811196,1.581425,0.3839077,-0.002826855,1.584541,NA,NA,NotTracked,Unknown,
0.8930664,-0.4086914,-0.02001953,-0.3320313,0.8994141,0.2963867,0,-1,1,0,-3,0,-3,1,-2,-5,-2,-2,-10,0,0,-2,-3.625,-3.625,-3.625,1.25,1.25,1.25,2.550818,3.174193,8.002073,7.001353,5.556918,2.555545,-0.1263881,-0.3705435,1.489944,0.353994,0.1111391,1.372026,0.1030614,0.4380637,1.557079,-0.08153084,-0.3856437,1.462074,0.3713563,0.1618377,1.373393,0.09111285,-0.01544927,1.589793,0.09350633,-0.3303141,1.575768,-0.08456991,0.1723084,1.568259,0.01024181,-0.3240862,1.537569,-0.136752,-0.08789734,1.580577,0.3836707,-0.002503255,1.583615,NA,NA,NotTracked,Unknown,
0.8930664,-0.4086914,-0.02001953,-0.3378906,0.8935547,0.296875,0,-1,1,0,-3,0,-3,1,9,9,5,3,3,21,6,9,-3.625,-3.625,-3.625,-0.1875,-0.1875,-0.1875,2.550818,3.174193,8.002073,7.001317,5.556349,2.557855,-0.1260595,-0.3710257,1.488889,0.3541561,0.1119637,1.371656,0.1030513,0.4381045,1.556365,-0.07502901,-0.3555318,1.476842,0.3459326,0.1661088,1.4049,0.09100558,-0.01548241,1.589227,0.09341883,-0.3303882,1.575298,-0.08458635,0.1722981,1.567641,0.01014718,-0.3240953,1.537193,-0.1366739,-0.08829527,1.579945,0.3855336,-0.005112384,1.582914,NA,NA,NotTracked,Unknown,
0.8930664,-0.4086914,-0.02001953,-0.3525391,0.894043,0.277832,0,-1,1,0,-3,0,-3,1,127,115,123,127,127,127,125,123,-3.625,-3.625,-3.625,-0.6875,-0.6875,-0.6875,2.550818,3.174193,8.002073,7.001914,5.556694,2.558886,-0.126026,-0.3713877,1.488828,0.3546455,0.1117538,1.371333,0.1030341,0.4381182,1.555176,-0.07408697,-0.3425329,1.477857,0.3564313,0.1671402,1.392335,0.09100115,-0.01551885,1.588688,0.09337794,-0.3304377,1.574925,-0.08456806,0.1723399,1.567151,0.01010103,-0.3241172,1.536816,-0.1365485,-0.08837198,1.579511,0.3864108,-0.006478595,1.582517,NA,NA,NotTracked,Unknown,
0.8930664,-0.4086914,-0.02001953,-0.3383789,0.894043,0.3022461,0,-1,1,0,-3,0,-3,1,-3,-2,2,5,-2,-11,2,-2,-3.625,-3.625,-3.625,1.8125,1.8125,1.8125,2.550818,3.174193,8.002073,7.002929,5.557253,2.560179,-0.1261458,-0.3700869,1.488395,0.3541713,0.1122995,1.371207,0.1031135,0.4381418,1.554443,-0.07495553,-0.3482139,1.477108,0.343485,0.1659491,1.414,0.09095407,-0.01546355,1.588268,0.09336296,-0.3304168,1.574645,-0.08451529,0.1724238,1.566554,0.01009198,-0.3241132,1.53666,-0.1366861,-0.08837613,1.578978,0.3857449,-0.005386727,1.58157,NA,NA,NotTracked,Unknown,
0.8930664,-0.4086914,-0.02001953,-0.3378906,0.890625,0.3017578,0,-1,1,0,-3,0,-3,1,127,118,123,127,127,127,127,127,-3.625,-3.625,-3.625,0.1875,0.1875,0.1875,2.550818,3.174193,8.002073,7.003433,5.55673,2.561468,-0.1264253,-0.3700951,1.487653,0.354596,0.1120646,1.370317,0.103116,0.4383017,1.553756,-0.07500117,-0.3463548,1.478283,0.3474883,0.1735629,1.392556,0.09090146,-0.01541685,1.587838,0.09336779,-0.3303867,1.574407,-0.08457825,0.1724161,1.566083,0.01010652,-0.3241009,1.536334,-0.1366324,-0.08847323,1.578551,0.3853367,-0.004750931,1.580625,NA,NA,NotTracked,Unknown,
0.8930664,-0.4086914,-0.02001953,-0.3388672,0.8803711,0.2807617,0,-1,1,0,-3,0,-3,1,127,127,127,127,127,123,127,127,-3.625,-3.625,-3.625,-1.0625,-1.0625,-1.0625,2.550818,3.174193,8.002073,7.003139,5.556519,2.561583,-0.1265901,-0.3698084,1.486878,0.3536906,0.1115095,1.368931,0.1031648,0.4383225,1.553012,-0.07723153,-0.3731921,1.468533,0.3494493,0.1678681,1.396761,0.09092496,-0.01532609,1.587341,0.09330301,-0.3302866,1.573949,-0.08441518,0.1726931,1.565449,0.01003771,-0.3240348,1.53596,-0.136605,-0.08853116,1.578027,0.3851368,-0.004067163,1.579871,NA,NA,NotTracked,Unknown,
0.8930664,-0.4086914,-0.02001953,-0.3251953,0.8828125,0.2954102,0,-1,1,0,-3,0,-3,1,119,114,119,127,127,127,123,121,-3.625,-3.625,-3.625,1.25,1.25,1.25,2.550818,3.174193,8.002073,7.003525,5.555423,2.562113,-0.1266029,-0.3702769,1.486274,0.3544901,0.1114959,1.368798,0.1031552,0.4383107,1.55244,-0.07744671,-0.3680454,1.468681,0.3399185,0.1619245,1.4135,0.09088906,-0.01535533,1.58664,0.09331703,-0.33025,1.573395,-0.08431225,0.1727559,1.564793,0.01003079,-0.3240244,1.535573,-0.1366493,-0.08838236,1.577394,0.3849324,-0.003561269,1.578844,NA,NA,NotTracked,Unknown,
0.8930664,-0.4086914,-0.02001953,-0.3432617,0.8789063,0.2895508,0,-1,1,0,-3,0,-3,1,121,126,127,127,127,127,127,113,-3.625,-3.625,-3.625,1.5625,1.5625,1.5625,2.550818,3.174193,8.002073,7.001151,5.553067,2.563991,-0.1273774,-0.3703625,1.485199,0.3534197,0.1111941,1.366816,0.1032482,0.4381991,1.550737,-0.07578851,-0.3530903,1.474089,0.339057,0.1625314,1.395222,0.09091039,-0.01536131,1.585343,0.0932114,-0.330074,1.57251,-0.08444671,0.1731735,1.562943,0.009939205,-0.3238612,1.534757,-0.1367587,-0.08828197,1.575805,0.3845251,-0.002720122,1.576642,NA,NA,NotTracked,Open,
0.8930664,-0.4086914,-0.02001953,-0.3383789,0.9091797,0.2939453,0,-1,1,0,-3,0,-3,1,121,124,126,127,127,127,127,115,-3.625,-3.625,-3.625,-1.875,-1.875,-1.875,2.550818,3.174193,8.002073,7.002319,5.552548,2.564137,-0.127672,-0.3704736,1.485143,0.3530817,0.1110717,1.367072,0.1033277,0.4381031,1.550116,-0.07582495,-0.3506112,1.475422,0.3702082,0.1646266,1.369647,0.09090426,-0.01543169,1.584929,0.0931839,-0.3302042,1.572162,-0.08435085,0.1731678,1.562409,0.009888602,-0.3239408,1.53443,-0.1367575,-0.08822287,1.57543,0.3865198,-0.005656132,1.57622,NA,NA,NotTracked,Unknown,
0.8930664,-0.4086914,-0.02001953,-0.3364258,0.8901367,0.2954102,0,-1,1,0,-3,0,-3,1,2,6,4,3,-3,-2,2,-4,-3.625,-3.625,-3.625,-1.5,-1.5,-1.5,2.550818,3.174193,8.002073,7.001058,5.552202,2.564249,-0.128003,-0.3696379,1.485386,0.3529832,0.1120681,1.36723,0.1033381,0.438093,1.549726,-0.07656734,-0.3723769,1.469857,0.3244196,0.1810123,1.4134,0.09091359,-0.01538886,1.584646,0.09316809,-0.3301292,1.571975,-0.08426937,0.1733693,1.561756,0.009884785,-0.323894,1.534309,-0.136946,-0.08804736,1.574897,0.3860132,-0.004809676,1.575931,NA,NA,NotTracked,Unknown,
0.8930664,-0.4086914,-0.02001953,-0.3364258,0.8984375,0.300293,0,-1,1,0,-3,0,-3,1,127,123,127,127,120,127,123,127,-3.625,-3.625,-3.625,3.1875,3.1875,3.1875,2.550818,3.174193,8.002073,7.003268,5.553904,2.563641,-0.1276263,-0.3720551,1.483901,0.3530941,0.1115255,1.367333,0.1033937,0.4380465,1.549467,-0.08193289,-0.3840303,1.460862,0.3289857,0.1619191,1.407833,0.09092586,-0.01532588,1.584402,0.09315019,-0.330084,1.571818,-0.08420842,0.1733698,1.561268,0.009882648,-0.3238277,1.534091,-0.1371154,-0.08805861,1.574484,0.3858143,-0.004310023,1.575551,NA,NA,NotTracked,Unknown,
0.8930664,-0.4086914,-0.02001953,-0.3515625,0.8833008,0.2900391,0,-1,1,0,-3,0,-3,1,120,127,127,127,127,123,127,127,-3.625,-3.625,-3.625,-1.5625,-1.5625,-1.5625,2.550818,3.174193,8.002073,7.001745,5.555309,2.564638,-0.1280417,-0.3717314,1.482642,0.3522977,0.1122447,1.366444,0.1035929,0.437934,1.548529,-0.07845023,-0.3700983,1.469753,0.3233821,0.1670441,1.429667,0.09094612,-0.01530179,1.583665,0.09309962,-0.3300482,1.571212,-0.08405177,0.1735439,1.560327,0.009816368,-0.323752,1.533444,-0.1373026,-0.08796887,1.573519,0.3867939,-0.005848464,1.574708,NA,NA,NotTracked,Unknown,
0.8930664,-0.4086914,-0.02001953,-0.3330078,0.8823242,0.2939453,0,-1,1,0,-3,0,-3,1,1,5,3,8,16,-6,-1,-2,-3.625,-3.625,-3.625,2,2,2,2.550818,3.174193,8.002073,7.002341,5.55548,2.564009,-0.1285435,-0.3722491,1.483253,0.3529384,0.1111268,1.366069,0.1036643,0.4378884,1.548229,-0.07831042,-0.3812931,1.465295,0.3418532,0.1695724,1.383429,0.09099091,-0.01532275,1.583452,0.09306386,-0.3300754,1.571077,-0.08402657,0.1734357,1.560063,0.009781566,-0.3237875,1.533322,-0.1373909,-0.08791514,1.573318,0.3863898,-0.004884802,1.574165,NA,NA,NotTracked,Unknown,
0.8930664,-0.4086914,-0.02001953,-0.3393555,0.8955078,0.2978516,0,-1,1,0,-3,0,-3,1,-5,-8,-4,-17,-2,2,2,-5,-3.625,-3.625,-3.625,0.25,0.25,0.25,2.550818,3.174193,8.002073,7.002641,5.555967,2.563374,-0.1285114,-0.3717124,1.481197,0.3532355,0.1113905,1.364976,0.1037702,0.4379345,1.547621,-0.08576643,-0.3759544,1.457238,0.3494445,0.170493,1.396875,0.09102924,-0.01529619,1.583005,0.09305982,-0.3300445,1.570779,-0.08396729,0.1735508,1.559512,0.009780515,-0.3237669,1.533039,-0.1374371,-0.08787971,1.572863,0.3859043,-0.00411096,1.573344,NA,NA,NotTracked,Unknown,
0.8930664,-0.4086914,-0.02001953,-0.340332,0.8823242,0.2978516,0,-1,1,0,-3,0,-3,1,118,127,127,127,127,125,122,114,-3.625,-3.625,-3.625,1.6875,1.6875,1.6875,2.550818,3.174193,8.002073,7.001369,5.555218,2.562848,-0.1291292,-0.3713313,1.48163,0.352935,0.1113702,1.364579,0.1038672,0.4378088,1.547414,-0.08054756,-0.3649551,1.4666,0.3664121,0.1652753,1.36865,0.09103872,-0.01527561,1.58275,0.09309889,-0.3299987,1.570578,-0.08389655,0.1735112,1.559077,0.009817073,-0.323733,1.53285,-0.1375196,-0.08785023,1.572484,0.3856282,-0.003648625,1.572727,NA,NA,NotTracked,Unknown,
0.8930664,-0.4086914,-0.02001953,-0.3393555,0.9121094,0.2919922,0,-1,1,0,-3,0,-3,1,122,127,127,127,115,124,127,127,-3.625,-3.625,-3.625,0.875,0.875,0.875,2.550818,3.174193,8.002073,7.003151,5.554005,2.561084,-0.128881,-0.3704372,1.481291,0.3528335,0.1103205,1.364422,0.104047,0.4378116,1.546668,-0.08170379,-0.3727083,1.463559,0.3718057,0.1634351,1.369,0.09116121,-0.01521744,1.582107,0.093137,-0.329913,1.570092,-0.08383544,0.1734983,1.558543,0.009867541,-0.3236734,1.532328,-0.1374879,-0.08783428,1.571816,0.3852024,-0.003065939,1.571667,NA,NA,NotTracked,Unknown,
0.8930664,-0.4086914,-0.02001953,-0.3388672,0.9038086,0.2915039,0,-1,1,0,-3,0,-3,1,127,127,127,127,123,124,127,127,-3.625,-3.625,-3.625,-0.25,-0.25,-0.25,2.550818,3.174193,8.002073,7.001696,5.552369,2.560935,-0.1289994,-0.3708912,1.480419,0.3518099,0.1108652,1.363591,0.1040304,0.4377696,1.546087,-0.08097421,-0.3701058,1.465315,0.3338439,0.1610759,1.3909,0.09115095,-0.01519367,1.581635,0.09318149,-0.3298845,1.569787,-0.08379556,0.1734996,1.558111,0.00990605,-0.3236505,1.532105,-0.1375286,-0.08784995,1.571273,0.3851753,-0.002806309,1.570733,NA,NA,NotTracked,Unknown,
