ALX,ALY,ALZ,ARX,ARY,ARZ,EMG0L,EMG1L,EMG2L,EMG3L,EMG4L,EMG5L,EMG6L,EMG7L,EMG0R,EMG1R,EMG2R,EMG3R,EMG4R,EMG5R,EMG6R,EMG7R,GLX,GLY,GLZ,GRX,GRY,GRZ,ORL,OPL,OYL,ORR,OPR,OYR,LHNX,LHNY,LHNZ,RHNX,RHNY,RHNZ,HX,HY,HZ,LTX,LTY,LTZ,RTX,RTY,RTZ,SpineMidX,SpineMidY,SpineMidZ,SpineBaseX,SpineBaseY,SpineBaseZ,ShoulderLeftX,ShoulderLeftY,ShoulderLeftZ,ShoulderRightX,ShoulderRightY,ShoulderRightZ,ElbowLeftX,ElbowLeftY,ElbowLeftZ,ElbowRightX,ElbowRightY,ElbowRightZ,Myo_Pose_left,Myo_Pose_Right,Kinect_pose_left,Kinect_pose_right
0.5302734,-0.7451172,0.4350586,0.5581055,0.7543945,0.3208008,3,7,1,6,5,9,4,-2,-2,2,6,14,31,6,-1,-2,1.5625,1.5625,1.5625,2.875,2.875,2.875,3.314256,4.150044,9.67969,6.852633,4.089343,3.776615,-0.1184782,-0.1977259,1.276348,0.2303517,-0.1949686,1.259786,0.09051018,0.4394796,1.498149,-0.1046104,-0.1680979,1.250422,0.1998544,-0.1662617,1.25583,0.08275276,-0.01595065,1.52601,0.08345769,-0.3329616,1.507048,-0.09272305,0.1759629,1.514656,0.0001981557,-0.3255886,1.474874,-0.1387246,-0.0485721,1.532361,0.3064827,-0.0524568,1.51643,NA,NA,Closed,Closed,
0.5283203,-0.7563477,0.4453125,0.546875,0.7587891,0.3203125,6,3,19,-2,-4,-9,5,1,4,8,6,-11,1,0,6,6,-0.375,-0.375,-0.375,2.0625,2.0625,2.0625,3.315416,4.153081,9.679626,6.854726,4.085044,3.777701,-0.1189069,-0.1978217,1.277424,0.231219,-0.1949201,1.261379,0.0904685,0.4395009,1.498232,-0.1040584,-0.1677347,1.252258,0.1995552,-0.1678745,1.257102,0.08273567,-0.01594992,1.52601,0.08340017,-0.3329339,1.507026,-0.09282371,0.1759618,1.514708,0.0001588899,-0.3255578,1.474887,-0.1386723,-0.04848802,1.532322,0.3064988,-0.05245729,1.516402,NA,NA,Closed,Closed,
0.5161133,-0.753418,0.4448242,0.5463867,0.7617188,0.3286133,-6,-7,-12,-13,0,-8,-2,-6,-11,-20,-9,-2,-11,-2,-3,-1,-0.0625,-0.0625,-0.0625,1.625,1.625,1.625,3.316076,4.154833,9.679203,6.855461,4.079915,3.778958,-0.1182864,-0.1972501,1.277426,0.2300979,-0.1949979,1.260172,0.09042963,0.4395009,1.498215,-0.1032754,-0.1658496,1.25028,0.2007255,-0.1674274,1.254154,0.08269528,-0.01593405,1.525882,0.0833232,-0.3329067,1.506872,-0.09292388,0.1759325,1.514713,0.0001060787,-0.3255391,1.474791,-0.1386525,-0.04848719,1.532302,0.3064213,-0.05211915,1.51622,NA,NA,Closed,Closed,
0.4873047,-0.7675781,0.4472656,0.5756836,0.7719727,0.331543,-3,-6,-22,-10,-20,-28,-7,-5,-6,-8,-3,-3,25,3,2,3,1.375,1.375,1.375,0.8125,0.8125,0.8125,3.319284,4.158327,9.677491,6.857118,4.074952,3.779165,-0.1174644,-0.1981068,1.277757,0.2302215,-0.1955114,1.26153,0.09039317,0.4395,1.49824,-0.1041919,-0.1682886,1.250854,0.2004189,-0.1678095,1.255904,0.08269155,-0.01593173,1.525888,0.08328506,-0.3328826,1.506878,-0.09304531,0.1759587,1.514922,8.51665E-05,-0.325514,1.474808,-0.138659,-0.04851021,1.532306,0.3063939,-0.0520162,1.51627,NA,NA,Closed,Closed,
0.5224609,-0.7626953,0.456543,0.5532227,0.765625,0.3369141,-8,-10,-9,-6,-14,-18,-2,-3,4,11,1,5,7,0,2,7,4.0625,4.0625,4.0625,-1.6875,-1.6875,-1.6875,3.326375,4.158909,9.677776,6.855171,4.073742,3.779543,-0.1171206,-0.1981122,1.277321,0.2309801,-0.1966614,1.262537,0.09033193,0.4395104,1.498359,-0.102417,-0.1655814,1.252479,0.200942,-0.1679776,1.255202,0.08267278,-0.01592262,1.525902,0.08323893,-0.3328512,1.506867,-0.09315842,0.1759782,1.515022,5.577532E-05,-0.3254834,1.474812,-0.1386441,-0.04851349,1.532335,0.3064148,-0.05197745,1.516271,NA,NA,Closed,Closed,
0.5092773,-0.7631836,0.4389648,0.5498047,0.7739258,0.3212891,-3,0,-10,-1,15,28,11,12,-5,-1,1,-3,-5,-5,-9,-2,2.375,2.375,2.375,-1.125,-1.125,-1.125,3.33025,4.158375,9.677486,6.854887,4.074264,3.779082,-0.1164451,-0.1963283,1.276803,0.2305716,-0.1967101,1.261924,0.09028251,0.4395681,1.49836,-0.1021859,-0.1668712,1.251925,0.1997349,-0.1682989,1.256601,0.08267125,-0.01583998,1.525778,0.08318434,-0.3327743,1.506761,-0.0933228,0.1759511,1.515134,2.657063E-05,-0.3254221,1.474751,-0.1386566,-0.04853214,1.532302,0.3063419,-0.05183539,1.516315,NA,NA,Closed,Unknown,
0.5200195,-0.7719727,0.4321289,0.5488281,0.7456055,0.3173828,1,-4,-5,-4,-7,-5,3,6,-6,0,-2,-1,-10,-3,-3,-5,1.75,1.75,1.75,-1.75,-1.75,-1.75,3.330521,4.157215,9.67783,6.85391,4.074287,3.777675,-0.1178985,-0.2006255,1.272223,0.2306349,-0.1961294,1.263546,0.09025648,0.4395863,1.498379,-0.1030948,-0.1696763,1.251616,0.1993931,-0.1682093,1.25783,0.08267268,-0.01583827,1.525776,0.08316708,-0.3327663,1.506755,-0.09342078,0.1759188,1.515293,1.689241E-05,-0.3254152,1.474752,-0.1385764,-0.04858224,1.532211,0.3063903,-0.051674,1.516438,NA,NA,Closed,Closed,
0.5302734,-0.7626953,0.4394531,0.550293,0.7661133,0.3203125,10,13,24,13,10,15,11,8,-1,1,-4,-7,-9,4,5,2,-0.125,-0.125,-0.125,0.875,0.875,0.875,3.33144,4.154112,9.677232,6.854813,4.074625,3.777446,-0.1157958,-0.1974791,1.27642,0.2304654,-0.1960868,1.262706,0.09020497,0.4395965,1.498354,-0.1004237,-0.1656021,1.253422,0.1992962,-0.1682276,1.257573,0.08264054,-0.01582334,1.525764,0.08315478,-0.3327609,1.506739,-0.09355153,0.1758467,1.515377,1.16743E-05,-0.3254074,1.474746,-0.1384832,-0.04858616,1.532179,0.3063209,-0.05166507,1.516471,NA,NA,Closed,Closed,
0.5073242,-0.7719727,0.4428711,0.5473633,0.7719727,0.3256836,-5,-8,-34,-8,-3,-9,0,-2,-1,-2,-4,-13,-1,-1,1,-3,-2.25,-2.25,-2.25,-0.5,-0.5,-0.5,3.330567,4.152716,9.675594,6.854813,4.074625,3.777446,-0.1154938,-0.1978057,1.275504,0.2304003,-0.1960303,1.262359,0.09019092,0.4396215,1.498348,-0.102383,-0.1684812,1.25211,0.1996618,-0.1680577,1.257554,0.08264156,-0.01581799,1.525744,0.08314893,-0.3327532,1.506674,-0.09355344,0.1758329,1.515384,1.050898E-05,-0.3253957,1.474704,-0.1383847,-0.04861291,1.532148,0.3062384,-0.05167807,1.516504,NA,NA,Closed,Closed,
0.5175781,-0.7792969,0.4492188,0.5610352,0.762207,0.3251953,-1,-1,14,-2,-5,-4,-6,-7,-2,-7,-2,-3,-6,-1,0,3,-0.625,-0.625,-0.625,-1.125,-1.125,-1.125,3.328344,4.151347,9.676602,6.854572,4.073644,3.777101,-0.1161605,-0.1968084,1.275981,0.2300874,-0.1956142,1.262008,0.09017296,0.4396148,1.498314,-0.1016628,-0.1681164,1.252441,0.1994675,-0.167858,1.257591,0.0826375,-0.01580873,1.525724,0.08312576,-0.3327385,1.506655,-0.09360009,0.1758075,1.515397,-5.670322E-06,-0.3253829,1.474697,-0.1384149,-0.04875541,1.531973,0.3061353,-0.05173778,1.516494,NA,NA,Closed,Closed,
0.5107422,-0.7602539,0.4423828,0.5429688,0.7661133,0.3242188,3,3,-7,3,8,8,2,6,-1,-3,4,18,12,7,6,-6,2.1875,2.1875,2.1875,1.125,1.125,1.125,3.329709,4.150363,9.677812,6.855579,4.073481,3.77672,-0.1159385,-0.1979839,1.27704,0.2303986,-0.1956382,1.262404,0.09015194,0.4396521,1.498322,-0.1016046,-0.1680192,1.252213,0.1996913,-0.1680521,1.257628,0.08262953,-0.01579473,1.525716,0.08312479,-0.3327314,1.506644,-0.09367564,0.1757795,1.515458,-5.369108E-06,-0.3253826,1.474697,-0.138431,-0.04879602,1.531958,0.3060044,-0.05176384,1.516595,NA,NA,Closed,Closed,
0.5087891,-0.7646484,0.456543,0.5439453,0.762207,0.3178711,-4,-3,12,-5,-6,2,-5,0,7,-3,-2,-14,-23,-5,-2,-1,-0.25,-0.25,-0.25,1.6875,1.6875,1.6875,3.328266,4.149849,9.681031,6.857196,4.073399,3.776048,-0.1165151,-0.1989157,1.277566,0.2305272,-0.1957511,1.263126,0.09003383,0.4397946,1.498396,-0.1030091,-0.1681407,1.25211,0.1998283,-0.1681235,1.257345,0.08262288,-0.01579439,1.525666,0.08311239,-0.3327328,1.506631,-0.09374374,0.1757578,1.515513,-1.684467E-05,-0.3253775,1.474688,-0.138321,-0.0486889,1.531883,0.3059682,-0.05176999,1.516622,NA,NA,Closed,Closed,
0.5078125,-0.7641602,0.4541016,0.5595703,0.7670898,0.3291016,-5,-1,8,-3,0,-3,-4,-8,9,4,7,3,6,-1,2,6,0.375,0.375,0.375,-0.4375,-0.4375,-0.4375,3.328559,4.149951,9.681859,6.857157,4.073306,3.776231,-0.1173084,-0.2026149,1.27482,0.2306102,-0.1958181,1.263602,0.08998491,0.4398088,1.498498,-0.1038096,-0.169503,1.251987,0.1994779,-0.1682853,1.257603,0.08259185,-0.01579979,1.525682,0.08309812,-0.3327354,1.506636,-0.09383502,0.1757048,1.515573,-2.572322E-05,-0.325376,1.474699,-0.1383044,-0.0487019,1.531936,0.3058472,-0.05172868,1.51679,NA,NA,Closed,Closed,
0.5048828,-0.7695313,0.4521484,0.5478516,0.7675781,0.3271484,1,-1,-31,-10,-5,-11,-4,-6,3,2,3,7,15,5,4,7,-1,-1,-1,0.75,0.75,0.75,3.327292,4.150296,9.683369,6.857157,4.073306,3.776231,-0.1165386,-0.198453,1.277565,0.2304081,-0.195648,1.262499,0.08995708,0.4398075,1.498489,-0.1013332,-0.1665848,1.252972,0.1996127,-0.1678177,1.257997,0.08258426,-0.01580002,1.525672,0.08307941,-0.3327372,1.506603,-0.09386609,0.175628,1.515582,-3.863597E-05,-0.3253765,1.474681,-0.1383575,-0.04860003,1.531862,0.3057773,-0.05168969,1.51681,NA,NA,Closed,Closed,
0.5151367,-0.765625,0.4580078,0.5649414,0.7670898,0.3291016,-2,1,12,6,1,-3,5,2,1,-6,-6,0,-5,1,0,-4,1.125,1.125,1.125,0.875,0.875,0.875,3.327791,4.150543,9.685498,6.85743,4.072655,3.776376,-0.11911,-0.2015038,1.273039,0.2304377,-0.1956801,1.262658,0.08986923,0.4398689,1.498493,-0.1025398,-0.1692868,1.252123,0.1996781,-0.1674756,1.258305,0.08255083,-0.01579172,1.525628,0.08306719,-0.3327305,1.50655,-0.09387633,0.1756231,1.515585,-4.229835E-05,-0.3253561,1.474614,-0.138349,-0.04874357,1.531786,0.3057477,-0.05169218,1.516797,NA,NA,Closed,Closed,
0.5244141,-0.762207,0.4482422,0.543457,0.7597656,0.3266602,1,1,-9,-2,5,3,8,0,10,9,14,8,9,5,4,9,3,3,3,2.1875,2.1875,2.1875,3.331466,4.149836,9.686989,6.858828,4.07443,3.777868,-0.1161556,-0.199033,1.276672,0.2304866,-0.195722,1.262928,0.0898312,0.4398797,1.498495,-0.1034789,-0.168233,1.251118,0.1997876,-0.168022,1.257836,0.08251695,-0.01579807,1.525584,0.08306969,-0.3327269,1.506497,-0.09389963,0.1756067,1.515589,-3.672612E-05,-0.3253501,1.474578,-0.1384794,-0.04890125,1.531702,0.3057459,-0.05169677,1.516802,NA,NA,Closed,Closed,
0.5239258,-0.7597656,0.4501953,0.5541992,0.7631836,0.3227539,-7,-7,1,-10,-5,3,-3,-5,-2,-2,-3,-11,-10,1,5,11,0.625,0.625,0.625,-2,-2,-2,3.334285,4.149246,9.689071,6.859162,4.074971,3.777589,-0.1164683,-0.1979322,1.277146,0.2298465,-0.1951517,1.260681,0.08975809,0.4399382,1.49852,-0.1028345,-0.1674426,1.251864,0.1999157,-0.1667645,1.256539,0.08239338,-0.01575412,1.525508,0.08305753,-0.3326697,1.506363,-0.09407975,0.1755241,1.515642,-3.365898E-05,-0.3253025,1.474434,-0.138441,-0.04890833,1.531678,0.3056742,-0.05163135,1.516911,NA,NA,Closed,Closed,
0.5249023,-0.7626953,0.4506836,0.5517578,0.7548828,0.3295898,3,1,10,-4,-13,1,3,7,1,-2,-4,-8,-5,-5,1,-3,0.8125,0.8125,0.8125,-1.0625,-1.0625,-1.0625,3.334285,4.149246,9.689071,6.858104,4.074913,3.777838,-0.1166084,-0.1985074,1.27575,0.2299567,-0.1952492,1.261273,0.0897042,0.4399032,1.498541,-0.1020292,-0.1683183,1.252326,0.1995163,-0.1676218,1.257081,0.08236076,-0.01575812,1.525489,0.08304462,-0.3326872,1.506322,-0.09413993,0.1754412,1.515649,-4.078003E-05,-0.3253224,1.474385,-0.1383941,-0.04888666,1.531576,0.3055797,-0.05168683,1.516828,NA,NA,Closed,Closed,
0.5131836,-0.7724609,0.4472656,0.5576172,0.7675781,0.3251953,-2,5,39,3,-8,-5,9,5,-4,-7,-10,-13,-34,-6,-3,-4,0.75,0.75,0.75,1.1875,1.1875,1.1875,3.334574,4.149294,9.688987,6.859485,4.074541,3.777866,-0.1161539,-0.1978023,1.277479,0.2298913,-0.1951907,1.260921,0.08958583,0.4399139,1.498567,-0.1022578,-0.1680953,1.250924,0.199393,-0.1679918,1.257184,0.08233691,-0.01575383,1.525473,0.08304702,-0.3326919,1.506283,-0.09416606,0.1754194,1.515625,-3.579231E-05,-0.3253291,1.474337,-0.138331,-0.049003,1.53152,0.3055801,-0.05169721,1.516819,NA,NA,Closed,Closed,
0.5131836,-0.7724609,0.4472656,0.5556641,0.7529297,0.3251953,-6,-6,-13,-7,-17,-11,0,-1,2,-11,-12,-5,-7,4,1,-3,0.75,0.75,0.75,-1.375,-1.375,-1.375,3.334574,4.149294,9.688987,6.858493,4.073889,3.778147,-0.1163269,-0.1982903,1.277213,0.2296353,-0.1951,1.261124,0.08952332,0.4399167,1.498585,-0.1005719,-0.1677585,1.252033,0.1993993,-0.1679767,1.257146,0.08229872,-0.01574249,1.525421,0.08300937,-0.3326761,1.506202,-0.09430249,0.1753138,1.515692,-7.511686E-05,-0.3253092,1.474277,-0.1383902,-0.04912193,1.531402,0.3055803,-0.05169501,1.516824,NA,NA,Unknown,Closed,
0.5126953,-0.765625,0.4414063,0.5595703,0.7617188,0.3251953,7,3,-2,8,9,7,-2,0,5,19,11,-2,-13,-2,1,0,1.0625,1.0625,1.0625,1.75,1.75,1.75,3.335719,4.149779,9.691302,6.859179,4.073313,3.77836,-0.1152086,-0.1983176,1.276608,0.2296366,-0.1950964,1.26114,0.0894971,0.4399257,1.498612,-0.1022217,-0.1684933,1.252434,0.1994,-0.1679702,1.257126,0.08229013,-0.01574084,1.525426,0.0830033,-0.332676,1.5062,-0.09447246,0.175168,1.515764,-7.918129E-05,-0.3253111,1.474273,-0.1383949,-0.04910083,1.531381,0.3055761,-0.0516798,1.516832,NA,NA,Unknown,Closed,
0.512207,-0.769043,0.4404297,0.5537109,0.7641602,0.3168945,-7,-3,-1,-1,-1,6,-3,-2,-3,11,8,3,-13,-2,-4,-2,-0.1875,-0.1875,-0.1875,0.5625,0.5625,0.5625,3.333858,4.150426,9.694681,6.859297,4.073132,3.778366,-0.1158018,-0.1985875,1.275583,0.2295852,-0.1950411,1.261248,0.08942482,0.4398935,1.498593,-0.1033025,-0.1686357,1.249836,0.1984522,-0.1681129,1.257866,0.08223835,-0.01573491,1.525374,0.0829706,-0.3326941,1.506131,-0.09453071,0.1751002,1.515765,-0.0001014064,-0.3253313,1.474227,-0.1383912,-0.04910962,1.531363,0.3055423,-0.05166724,1.516817,NA,NA,Closed,Closed,
0.5048828,-0.7617188,0.4438477,0.5473633,0.75,0.3256836,1,2,13,5,5,2,5,2,1,11,14,26,18,10,4,-7,-0.1875,-0.1875,-0.1875,-1.4375,-1.4375,-1.4375,3.333394,4.150462,9.695713,6.858276,4.073167,3.778432,-0.1160393,-0.1982645,1.277127,0.2292331,-0.1948696,1.260972,0.08935457,0.4399293,1.498633,-0.1012413,-0.1671,1.252332,0.1984026,-0.1685964,1.258173,0.08221281,-0.01573941,1.525334,0.08295254,-0.3327054,1.506116,-0.09458216,0.1750599,1.515728,-0.0001198392,-0.3253487,1.474218,-0.1383188,-0.04920904,1.531321,0.3055181,-0.05161109,1.516833,NA,NA,Closed,Closed,
0.5107422,-0.7626953,0.4560547,0.5595703,0.7641602,0.3203125,2,-3,7,-8,-15,-1,6,1,3,1,-1,-4,-8,-5,-4,-4,-1.9375,-1.9375,-1.9375,0.3125,0.3125,0.3125,3.33147,4.150611,9.69795,6.858811,4.071926,3.778248,-0.1161353,-0.1986814,1.27653,0.2295862,-0.1950477,1.261272,0.08930193,0.4399131,1.498666,-0.1039608,-0.167742,1.25075,0.1969712,-0.1678301,1.259173,0.08217282,-0.01573683,1.525311,0.0829168,-0.3327135,1.506097,-0.09466401,0.1749905,1.515731,-0.0001475447,-0.325358,1.474195,-0.1382913,-0.04926708,1.531291,0.3054576,-0.05163682,1.516849,NA,NA,Closed,Closed,
0.5136719,-0.7685547,0.4458008,0.5576172,0.769043,0.324707,5,4,11,3,3,0,-5,-4,1,-2,-5,1,-11,-5,-9,-2,2.1875,2.1875,2.1875,0.25,0.25,0.25,3.328854,4.150747,9.703191,6.857818,4.071274,3.778529,-0.1165007,-0.1984524,1.276194,0.229696,-0.1951279,1.261835,0.08924658,0.4399409,1.49868,-0.1034074,-0.1672085,1.250597,0.1969621,-0.1678234,1.259218,0.08212684,-0.01572238,1.525281,0.0828554,-0.3326869,1.506048,-0.0946914,0.174984,1.515733,-0.0001879091,-0.3253437,1.474158,-0.1382422,-0.04923274,1.531343,0.3053938,-0.05156278,1.516838,NA,NA,Closed,Closed,
0.5078125,-0.7514648,0.4584961,0.5517578,0.7709961,0.3242188,-4,-5,4,1,-6,-16,-2,-2,-10,-14,-8,-3,-1,-1,-3,2,-0.3125,-0.3125,-0.3125,1.0625,1.0625,1.0625,3.330551,4.151433,9.705522,6.858632,4.071105,3.778507,-0.1172037,-0.1977705,1.276036,0.229075,-0.1951481,1.260876,0.08920225,0.4400269,1.498674,-0.1040566,-0.1675722,1.249409,0.1983496,-0.1680807,1.257843,0.08210962,-0.01570236,1.525247,0.08284359,-0.3326843,1.50604,-0.09471655,0.174977,1.515734,-0.0001910718,-0.3253423,1.474155,-0.1382464,-0.04912718,1.531305,0.3052,-0.05163109,1.516804,NA,NA,Closed,Unknown,
0.5126953,-0.762207,0.4614258,0.5473633,0.7573242,0.3242188,3,2,11,4,7,15,13,6,7,12,10,-1,4,3,3,6,0.625,0.625,0.625,-1.25,-1.25,-1.25,3.329526,4.152657,9.708384,6.858117,4.070586,3.778174,-0.1191255,-0.1968926,1.275925,0.228811,-0.195132,1.26199,0.08914571,0.4400987,1.498623,-0.1053679,-0.1664397,1.252867,0.1963721,-0.1690668,1.260988,0.08205014,-0.01566116,1.525163,0.08281533,-0.3326551,1.505985,-0.09483967,0.1749227,1.515776,-0.0002126745,-0.3253013,1.474088,-0.1384079,-0.04939284,1.531292,0.30509,-0.05139835,1.516893,NA,NA,Unknown,Closed,
0.5126953,-0.7573242,0.4614258,0.5600586,0.7670898,0.3325195,-2,-4,-16,-7,-1,-1,4,3,0,-16,-8,-5,-4,3,5,6,-0.4375,-0.4375,-0.4375,-0.8125,-0.8125,-0.8125,3.331364,4.153052,9.708696,6.857888,4.070386,3.77743,-0.1188248,-0.1967821,1.273867,0.228857,-0.1951729,1.261672,0.08911231,0.4401029,1.498623,-0.1042311,-0.1663757,1.249006,0.1978446,-0.1687726,1.259295,0.08198577,-0.01565581,1.525096,0.082784,-0.3326686,1.505932,-0.09487533,0.1748971,1.515776,-0.0002287289,-0.3253108,1.474072,-0.1384379,-0.04941158,1.53127,0.3050697,-0.0513669,1.516903,NA,NA,Closed,Closed,
0.5083008,-0.7626953,0.4521484,0.5551758,0.7666016,0.3320313,-2,1,-1,2,2,-1,7,1,-3,-2,2,-8,-16,-2,0,-2,2.1875,2.1875,2.1875,-2.3125,-2.3125,-2.3125,3.333163,4.15413,9.710536,6.855297,4.070033,3.777255,-0.1170166,-0.1982909,1.277575,0.2295751,-0.1957288,1.261906,0.08910561,0.4401326,1.498633,-0.102974,-0.1659036,1.249296,0.199195,-0.1675959,1.257607,0.08194768,-0.0156211,1.525079,0.08276041,-0.3326395,1.505921,-0.09489378,0.1749111,1.515776,-0.0002446015,-0.325287,1.474068,-0.1383975,-0.04937503,1.531277,0.3050349,-0.05138262,1.516886,NA,NA,Closed,Closed,
0.5209961,-0.7456055,0.4589844,0.5512695,0.7583008,0.3359375,0,-8,-35,-7,-5,-7,11,6,6,10,1,9,5,2,-2,4,2.4375,2.4375,2.4375,-1.125,-1.125,-1.125,3.338291,4.153689,9.709636,6.854236,4.069783,3.777663,-0.1165207,-0.1979863,1.275545,0.2286566,-0.1949858,1.261142,0.08909968,0.4401271,1.49864,-0.1068312,-0.1669921,1.249077,0.1985753,-0.1679801,1.257692,0.08191417,-0.0156123,1.525057,0.08270627,-0.3326375,1.505829,-0.0948973,0.1749005,1.515754,-0.0003065353,-0.3252815,1.473992,-0.1383963,-0.0493677,1.531264,0.3049999,-0.05140495,1.516868,NA,NA,Closed,Closed,
0.5151367,-0.7558594,0.4550781,0.5439453,0.7709961,0.331543,-4,-5,-3,-17,-17,-6,-5,-7,-11,-4,-9,-9,-14,-1,-5,-10,0.5,0.5,0.5,-0.6875,-0.6875,-0.6875,3.338291,4.153689,9.709636,6.854042,4.06997,3.777866,-0.1158072,-0.198288,1.274315,0.2293489,-0.1958852,1.26224,0.08908725,0.4401511,1.49868,-0.1030942,-0.1662209,1.250448,0.1979469,-0.1686099,1.258659,0.08187721,-0.01561859,1.525023,0.08267282,-0.3326514,1.505755,-0.094919,0.1748768,1.515733,-0.0003335394,-0.3252931,1.473905,-0.1384071,-0.04925221,1.53117,0.3048062,-0.05160576,1.516911,NA,NA,Closed,Closed,
0.5126953,-0.7788086,0.4501953,0.5400391,0.7573242,0.3271484,2,0,-4,3,10,-1,9,5,-8,-2,-2,13,27,0,-2,-9,0.9375,0.9375,0.9375,-0.5,-0.5,-0.5,3.339071,4.15349,9.709341,6.853287,4.070107,3.778651,-0.1154238,-0.1976987,1.274285,0.2285931,-0.1957007,1.261602,0.0890622,0.4401946,1.498676,-0.1001698,-0.1663865,1.248487,0.198365,-0.1683574,1.258107,0.08186359,-0.01561505,1.525002,0.08266933,-0.3326507,1.505725,-0.09496297,0.1748506,1.515734,-0.0003331469,-0.325307,1.473827,-0.1384172,-0.04926214,1.531115,0.3047483,-0.05160452,1.516923,NA,NA,Closed,Closed,
0.5048828,-0.7548828,0.4487305,0.5444336,0.765625,0.3339844,1,-2,-6,4,-7,-4,-2,14,1,-1,3,8,6,-1,-6,-5,1.625,1.625,1.625,0.5,0.5,0.5,3.341758,4.152091,9.708576,6.85117,4.070139,3.782202,-0.1151308,-0.196933,1.275026,0.228352,-0.1957153,1.261573,0.08902102,0.4402488,1.49869,-0.1016284,-0.1665094,1.250231,0.1978952,-0.1684645,1.25779,0.08182169,-0.01557297,1.524935,0.08265673,-0.3326261,1.505666,-0.09496736,0.1748573,1.515715,-0.0003352032,-0.3252722,1.473751,-0.1384124,-0.04917648,1.530966,0.3046174,-0.05130964,1.516874,NA,NA,Closed,Closed,
0.5097656,-0.7749023,0.4477539,0.5625,0.7675781,0.3291016,-1,1,-4,3,7,14,6,1,10,13,8,11,-5,-3,2,0,0.9375,0.9375,0.9375,1,1,1,3.340546,4.151413,9.710647,6.851282,4.069221,3.784371,-0.115072,-0.1976789,1.27519,0.2276443,-0.1963757,1.26288,0.08900902,0.4403136,1.498685,-0.1034231,-0.1664237,1.249953,0.195946,-0.1678575,1.259978,0.08179045,-0.01555086,1.524901,0.08264614,-0.3326235,1.505655,-0.09498578,0.1748654,1.515742,-0.0003435717,-0.3252657,1.473735,-0.138275,-0.04925492,1.530941,0.3044909,-0.05133058,1.516894,NA,NA,Closed,Closed,
0.5136719,-0.762207,0.4516602,0.565918,0.7578125,0.3256836,4,7,20,9,1,-4,-8,1,1,-4,-3,-17,-14,-7,-4,0,2.75,2.75,2.75,-1.25,-1.25,-1.25,3.343583,4.150627,9.711582,6.847362,4.069424,3.787507,-0.1153197,-0.2006504,1.271481,0.2258341,-0.1967444,1.261457,0.08900011,0.4403285,1.498696,-0.102254,-0.1683595,1.248474,0.1953156,-0.1667262,1.259237,0.08179277,-0.01556345,1.524804,0.08262847,-0.3326287,1.505595,-0.09498946,0.1748449,1.515719,-0.0003502421,-0.3252702,1.473719,-0.1382046,-0.04915296,1.530827,0.3044058,-0.05135612,1.516881,NA,NA,Closed,Closed,
0.5200195,-0.7685547,0.4584961,0.5629883,0.7563477,0.3256836,4,2,9,-2,-3,-6,6,9,-9,-4,-1,1,-10,-9,-5,2,-1.4375,-1.4375,-1.4375,-0.8125,-0.8125,-0.8125,3.340788,4.150461,9.714426,6.84643,4.06988,3.788807,-0.1152134,-0.1979753,1.273371,0.2254363,-0.1965965,1.260923,0.0889977,0.440353,1.498704,-0.101933,-0.1669666,1.249722,0.194116,-0.1665193,1.258492,0.08177123,-0.01556182,1.524758,0.08261326,-0.3326236,1.505543,-0.09500263,0.1748241,1.515696,-0.0003600731,-0.3252576,1.473651,-0.1381316,-0.0491774,1.530707,0.3043664,-0.05136659,1.516822,NA,NA,Closed,Closed,
0.5112305,-0.762207,0.4492188,0.5512695,0.7563477,0.3266602,6,5,3,-2,3,9,8,10,-3,-8,-5,-4,-12,-12,-11,-1,2.4375,2.4375,2.4375,1.75,1.75,1.75,3.342067,4.150222,9.716174,6.847307,4.071112,3.790928,-0.1142079,-0.2000135,1.272853,0.2255496,-0.1955867,1.261352,0.08899716,0.4403533,1.498707,-0.1008599,-0.1665881,1.247826,0.1960669,-0.1682853,1.258907,0.08176715,-0.01556741,1.52474,0.0825985,-0.3326323,1.505495,-0.09500187,0.1748254,1.515696,-0.0003749703,-0.3252748,1.473589,-0.1380298,-0.04931965,1.530636,0.3043152,-0.05138941,1.516804,NA,NA,Closed,Closed,
0.5126953,-0.7524414,0.4516602,0.5585938,0.7602539,0.3295898,5,12,21,10,3,7,4,4,-3,-2,-9,-1,-5,6,2,-3,1.6875,1.6875,1.6875,-1.3125,-1.3125,-1.3125,3.342747,4.150102,9.717266,6.846516,4.069754,3.792043,-0.1148745,-0.2008429,1.271979,0.2248148,-0.1954837,1.26051,0.08899095,0.4403571,1.498712,-0.1039151,-0.1677783,1.248128,0.1950806,-0.1684569,1.258096,0.08174775,-0.01557393,1.52471,0.08259059,-0.3326359,1.505475,-0.09499232,0.174833,1.515677,-0.0003751957,-0.3252749,1.473588,-0.1378881,-0.04925645,1.53063,0.3041855,-0.05130803,1.516717,NA,NA,Unknown,Closed,
0.5126953,-0.7524414,0.4516602,0.5585938,0.7602539,0.3295898,5,12,21,10,3,7,4,4,-3,-2,-9,-1,-5,6,2,-3,1.6875,1.6875,1.6875,-1.3125,-1.3125,-1.3125,3.342747,4.150102,9.717266,6.846516,4.069754,3.792043,-0.115327,-0.2006792,1.271656,0.2247339,-0.1954058,1.260054,0.08898599,0.4403575,1.498711,-0.1047643,-0.167732,1.249048,0.1958655,-0.168216,1.258214,0.08175486,-0.01556166,1.524671,0.08258558,-0.3326156,1.505429,-0.09494346,0.1748235,1.515648,-0.0003779712,-0.3252516,1.473527,-0.1378199,-0.04927718,1.530586,0.304097,-0.0512646,1.516649,NA,NA,Unknown,Closed,
0.5117188,-0.7597656,0.4560547,0.5634766,0.7568359,0.328125,-7,-9,-20,-5,3,1,-7,-12,-9,-7,-7,-9,-15,-4,-5,-4,1.1875,1.1875,1.1875,1,1,1,3.341782,4.150629,9.721682,6.846951,4.068951,3.792488,-0.1154499,-0.2001589,1.271161,0.2246841,-0.195355,1.259762,0.08897985,0.4403839,1.498695,-0.1175772,-0.1696596,1.246174,0.1957445,-0.1682054,1.257979,0.08174662,-0.01555394,1.524636,0.08256736,-0.3326048,1.505386,-0.09497938,0.174809,1.515652,-0.0003869008,-0.3252493,1.473517,-0.1377682,-0.04924352,1.530546,0.3038888,-0.05123401,1.516627,NA,NA,Closed,Closed,
0.5048828,-0.7617188,0.4472656,0.546875,0.7636719,0.3256836,-13,-4,-7,-8,-9,-6,0,-8,-1,-6,-5,-5,-2,0,-5,4,0.5625,0.5625,0.5625,1.5625,1.5625,1.5625,3.34175,4.151233,9.723939,6.849056,4.069035,3.792958,-0.1157284,-0.1995981,1.273026,0.2247553,-0.1954185,1.260101,0.08896436,0.4404145,1.498705,-0.1015013,-0.1678406,1.248068,0.1931277,-0.1668038,1.258177,0.08173082,-0.01553734,1.524586,0.08255332,-0.3325845,1.505366,-0.0949796,0.1748068,1.515637,-0.0003952759,-0.3252188,1.473486,-0.1376846,-0.0491359,1.530492,0.3038243,-0.05124847,1.516615,NA,NA,Closed,Unknown,
0.5063477,-0.7700195,0.4580078,0.5561523,0.7646484,0.3300781,6,2,-14,-6,5,3,10,2,-5,-6,-5,-8,-3,-4,-2,-1,-0.3125,-0.3125,-0.3125,0.3125,0.3125,0.3125,3.340652,4.152228,9.72719,6.848811,4.069,3.793029,-0.1160517,-0.1996319,1.272326,0.2248418,-0.1950266,1.259825,0.08896119,0.440431,1.498711,-0.1018353,-0.167014,1.247615,0.1955192,-0.1681211,1.257782,0.0817235,-0.01551528,1.524543,0.08253209,-0.3325468,1.505301,-0.09501038,0.1748141,1.515671,-0.0004054222,-0.3251593,1.473361,-0.1376072,-0.04918804,1.53045,0.3037282,-0.05117392,1.5166,NA,NA,Closed,Unknown,
0.5083008,-0.7563477,0.4594727,0.5576172,0.7548828,0.3354492,1,-1,17,4,3,4,-6,6,-7,-8,-6,1,2,-4,-3,2,2.3125,2.3125,2.3125,-0.1875,-0.1875,-0.1875,3.342358,4.1531,9.73033,6.849664,4.069113,3.792665,-0.1169538,-0.1993393,1.271718,0.2248037,-0.1950104,1.25969,0.08893861,0.4404423,1.498737,-0.1062943,-0.1679949,1.248385,0.1955844,-0.1680471,1.257744,0.0816541,-0.01549543,1.524491,0.08252331,-0.3325436,1.505278,-0.09500603,0.174815,1.515674,-0.000402892,-0.325155,1.473345,-0.1371891,-0.04912133,1.530459,0.3036812,-0.05113336,1.516518,NA,NA,Closed,Closed,
0.5126953,-0.7636719,0.4628906,0.5498047,0.7602539,0.3393555,-7,-5,13,-3,-13,-4,-5,-6,-3,-2,-2,-13,-18,-4,-1,-4,-0.9375,-0.9375,-0.9375,-0.125,-0.125,-0.125,3.342006,4.153593,9.733216,6.84942,4.069078,3.792736,-0.1168353,-0.1997244,1.271282,0.2250002,-0.1950457,1.259068,0.08893468,0.4404707,1.498721,-0.104233,-0.1676002,1.248522,0.1952663,-0.1680433,1.257136,0.08166157,-0.01549276,1.524464,0.08251232,-0.3325489,1.505244,-0.09498604,0.1747796,1.515647,-0.0004161255,-0.3251695,1.473301,-0.1371085,-0.04923614,1.530346,0.3035615,-0.05114952,1.516456,NA,NA,Closed,Unknown,
0.5029297,-0.765625,0.4624023,0.5537109,0.7573242,0.3369141,3,1,-3,2,-5,-10,3,4,7,-2,-3,-11,1,2,-2,-4,0.875,0.875,0.875,1.125,1.125,1.125,3.342283,4.154229,9.734208,6.850441,4.069039,3.792669,-0.1172591,-0.1994066,1.271702,0.2246783,-0.1953689,1.259755,0.08888403,0.4405046,1.498839,-0.1044278,-0.1678331,1.249615,0.1955702,-0.1680527,1.257747,0.08164065,-0.01548688,1.524457,0.08250579,-0.3325463,1.505234,-0.09499393,0.1747674,1.515674,-0.0004178934,-0.3251643,1.473287,-0.1370887,-0.04927888,1.530352,0.3034665,-0.05120064,1.516401,NA,NA,Closed,Unknown,
0.5043945,-0.7553711,0.4570313,0.5527344,0.7607422,0.3334961,-4,-8,-21,1,2,-4,-2,-14,-2,2,0,-15,-7,-4,-2,-3,0.625,0.625,0.625,-1.1875,-1.1875,-1.1875,3.345476,4.154085,9.736621,6.849418,4.068887,3.792895,-0.1173286,-0.2007681,1.271581,0.2254762,-0.1955147,1.260507,0.0888745,0.4405192,1.498844,-0.1055515,-0.1689723,1.24721,0.1955182,-0.1680524,1.25765,0.08161691,-0.01549792,1.524435,0.0824969,-0.3325621,1.505218,-0.09498738,0.1747664,1.515676,-0.0004223821,-0.3251705,1.473281,-0.1370032,-0.04924706,1.530404,0.303463,-0.05120397,1.5164,NA,NA,Closed,Unknown,
0.5043945,-0.7553711,0.4570313,0.5527344,0.7607422,0.3334961,-4,-8,-21,1,2,-4,-2,-14,-9,7,6,9,8,0,-2,-1,0.625,0.625,0.625,-1.1875,-1.1875,-1.1875,3.345476,4.154085,9.736621,6.849418,4.068887,3.792895,-0.1170157,-0.2008639,1.271499,0.2248587,-0.1953783,1.259028,0.08886911,0.4405063,1.49884,-0.1056835,-0.1688759,1.248235,0.1951418,-0.168045,1.256922,0.08157654,-0.01550798,1.524364,0.08249167,-0.3325492,1.505166,-0.09497754,0.1747632,1.515677,-0.0004179893,-0.3251569,1.473246,-0.1369168,-0.04933226,1.530301,0.3033617,-0.05119155,1.516287,NA,NA,Closed,Unknown,
0.5068359,-0.7558594,0.4536133,0.5576172,0.7509766,0.3286133,5,-2,-25,-6,-1,8,3,4,-10,-3,-7,1,-9,3,-5,-11,-1.4375,-1.4375,-1.4375,0.125,0.125,0.125,3.34465,4.154104,9.737022,6.848577,4.068149,3.793004,-0.1166468,-0.201517,1.272014,0.2247415,-0.1954156,1.260077,0.08883001,0.4404929,1.498942,-0.1060746,-0.1682483,1.248154,0.1950009,-0.1683009,1.257927,0.08157988,-0.01550769,1.524364,0.0824961,-0.33255,1.505165,-0.09497086,0.1747398,1.515707,-0.0004070171,-0.3251632,1.473248,-0.1368408,-0.04933685,1.530414,0.3033818,-0.05120774,1.516314,NA,NA,Closed,Closed,
0.5136719,-0.7714844,0.4614258,0.5605469,0.7607422,0.3300781,-9,-3,-2,-12,-12,-11,-15,-8,6,11,9,9,14,5,4,6,-0.4375,-0.4375,-0.4375,-0.5,-0.5,-0.5,3.343557,4.154202,9.737947,6.847992,4.067384,3.793515,-0.1167218,-0.2008826,1.271724,0.2228401,-0.1953972,1.261161,0.08882178,0.4405212,1.498945,-0.1051452,-0.1686602,1.248505,0.1956897,-0.1665509,1.258467,0.08157973,-0.0155073,1.524346,0.08249025,-0.3325472,1.505141,-0.09497982,0.174744,1.515731,-0.0004099802,-0.3251643,1.473235,-0.1367713,-0.04922817,1.53042,0.3033343,-0.05122296,1.516314,NA,NA,Closed,Closed,
0.515625,-0.7617188,0.4570313,0.5556641,0.7597656,0.3266602,-3,-4,4,0,-8,-7,4,1,-8,-2,-4,4,2,-5,-3,-5,0.4375,0.4375,0.4375,-0.5625,-0.5625,-0.5625,3.346449,4.154332,9.738617,6.847579,4.066848,3.794006,-0.1162024,-0.201369,1.270293,0.2233453,-0.1952974,1.260763,0.08881187,0.4405152,1.49894,-0.1035866,-0.1692621,1.246563,0.1932222,-0.1652523,1.260301,0.08155616,-0.01550303,1.52434,0.08248304,-0.3325385,1.50513,-0.0950326,0.1746163,1.515734,-0.0004177089,-0.3251523,1.473218,-0.1368462,-0.04933687,1.530476,0.30326,-0.05111594,1.516313,NA,NA,Closed,Unknown,
0.5112305,-0.7680664,0.4501953,0.5537109,0.7509766,0.3305664,-2,-5,-12,0,10,9,9,4,-4,-5,-2,-1,0,-3,0,0,-0.5,-0.5,-0.5,0.9375,0.9375,0.9375,3.346406,4.154556,9.738984,6.84777,4.066471,3.793963,-0.1161183,-0.2011151,1.271022,0.2229243,-0.1955646,1.26141,0.08880927,0.4405179,1.498936,-0.1065406,-0.1683749,1.247899,0.1958248,-0.167346,1.258684,0.08155408,-0.0154993,1.524328,0.08248284,-0.3325381,1.505121,-0.09503606,0.1746026,1.515734,-0.0004185678,-0.3251557,1.473203,-0.1367752,-0.0493706,1.530439,0.3031693,-0.05117217,1.516266,NA,NA,Closed,Unknown,
0.5039063,-0.7504883,0.4584961,0.5449219,0.7666016,0.3222656,-1,1,6,3,-3,-5,-4,-4,5,11,0,-12,-31,-1,5,4,0.375,0.375,0.375,-2,-2,-2,3.347031,4.154346,9.739185,6.847099,4.066423,3.793494,-0.1163535,-0.2012485,1.271814,0.2245443,-0.1966678,1.261655,0.08878861,0.4405735,1.498968,-0.1016995,-0.1698771,1.250363,0.19542,-0.1678519,1.258089,0.08152422,-0.01549547,1.524294,0.08246823,-0.3325335,1.505065,-0.09506836,0.1745467,1.515794,-0.0004185263,-0.3251594,1.47307,-0.1367766,-0.04943271,1.53049,0.3031434,-0.0509077,1.516325,NA,NA,Closed,Unknown,
0.519043,-0.7758789,0.4599609,0.5639648,0.7607422,0.3349609,0,3,3,5,10,11,3,6,2,12,6,-4,-9,-4,-6,-1,-0.5,-0.5,-0.5,0.75,0.75,0.75,3.344448,4.153164,9.740915,6.847892,4.063727,3.791132,-0.1158518,-0.2007765,1.272188,0.2246801,-0.1960177,1.262083,0.08874322,0.4405692,1.499062,-0.1055336,-0.1686074,1.248196,0.1954604,-0.1678587,1.258225,0.08151864,-0.01549341,1.524301,0.08246833,-0.3325331,1.505065,-0.09506415,0.1745416,1.515814,-0.0004180774,-0.3251587,1.47307,-0.1366717,-0.04945353,1.530533,0.3031355,-0.05091565,1.516325,NA,NA,Closed,Closed,
0.5112305,-0.7543945,0.4501953,0.5541992,0.7543945,0.3310547,0,8,21,12,19,13,5,1,-3,3,0,-2,6,-3,-1,-3,2.625,2.625,2.625,0.375,0.375,0.375,3.347189,4.152036,9.741848,6.84762,4.063243,3.790731,-0.1164127,-0.2013587,1.272462,0.2246919,-0.1967751,1.26258,0.08873816,0.4406204,1.49913,-0.1028133,-0.1698863,1.248333,0.1961219,-0.1674819,1.25819,0.08149846,-0.01548805,1.524296,0.08244845,-0.332556,1.505032,-0.09504005,0.1745245,1.515887,-0.0004320735,-0.3251701,1.47305,-0.13665,-0.04948312,1.530519,0.3031451,-0.05085938,1.516416,NA,NA,Closed,Closed,
0.5073242,-0.753418,0.4521484,0.5493164,0.7490234,0.331543,-1,-5,-1,-5,-6,-4,-1,2,-2,3,4,8,0,5,-1,-3,-0.25,-0.25,-0.25,-0.5625,-0.5625,-0.5625,3.347074,4.152185,9.742509,6.846928,4.062936,3.789631,-0.1162169,-0.2017044,1.271646,0.224723,-0.1965853,1.261347,0.08873287,0.4406206,1.499148,-0.1054375,-0.1690111,1.24812,0.1952251,-0.1666959,1.258198,0.08145574,-0.01548265,1.524297,0.08242876,-0.3325632,1.505005,-0.09502496,0.1745277,1.515907,-0.0004536931,-0.3251714,1.473035,-0.1366198,-0.04949044,1.530488,0.3031442,-0.05084114,1.516436,NA,NA,Closed,Closed,
0.5092773,-0.7519531,0.4580078,0.5512695,0.7578125,0.3330078,-6,-2,-1,-5,-3,-4,0,-5,1,-3,-5,4,1,-1,-1,-1,-0.4375,-0.4375,-0.4375,-1.1875,-1.1875,-1.1875,3.344792,4.150753,9.745708,6.846323,4.0621,3.789354,-0.1159928,-0.2016453,1.272512,0.2250612,-0.196729,1.261586,0.0887066,0.4406373,1.499158,-0.1052583,-0.169158,1.248511,0.1949083,-0.1681011,1.258418,0.08143686,-0.01548135,1.524302,0.08241909,-0.3325864,1.504994,-0.09506267,0.1744332,1.515901,-0.0004627266,-0.3251987,1.47302,-0.1365798,-0.04959033,1.530537,0.303151,-0.05084954,1.516433,NA,NA,Closed,Closed,
0.5141602,-0.7573242,0.4619141,0.5620117,0.7421875,0.3320313,4,-3,-15,-1,14,8,8,4,-7,-22,-15,-19,-19,-8,-8,-19,-1.5,-1.5,-1.5,-2,-2,-2,3.344267,4.148023,9.747123,6.844891,4.059515,3.789247,-0.1165502,-0.2024564,1.273834,0.2247514,-0.1971029,1.262674,0.08870001,0.4406621,1.49916,-0.1050688,-0.1693709,1.248963,0.1959715,-0.1675522,1.258243,0.08138507,-0.01546135,1.52427,0.08239335,-0.332615,1.504967,-0.09506094,0.1744498,1.515936,-0.0004983115,-0.3252241,1.472993,-0.1364979,-0.04959482,1.530536,0.3028912,-0.05120346,1.516543,NA,NA,Closed,Closed,
0.5126953,-0.7607422,0.4521484,0.5581055,0.7475586,0.3310547,-7,-2,-15,-5,8,5,1,-5,1,10,6,-13,15,5,0,-6,-2.4375,-2.4375,-2.4375,4.3125,4.3125,4.3125,3.342388,4.146595,9.748588,6.846056,4.056356,3.790421,-0.1162751,-0.2026402,1.273942,0.2241614,-0.1978755,1.263391,0.08867924,0.4407248,1.499215,-0.1027593,-0.1702108,1.249939,0.193705,-0.1676683,1.261902,0.0813538,-0.01544427,1.524279,0.0823902,-0.3326151,1.504963,-0.09507556,0.1744464,1.515954,-0.0005020272,-0.3252256,1.472986,-0.1363921,-0.04960623,1.530651,0.3027867,-0.05129967,1.516643,NA,NA,Closed,Closed,
0.5249023,-0.7480469,0.4560547,0.5605469,0.7475586,0.3344727,-4,8,37,18,14,16,7,2,0,-3,5,17,5,0,-2,8,-0.5,-0.5,-0.5,0.25,0.25,0.25,3.341309,4.142602,9.750836,6.8502,4.053287,3.790391,-0.115623,-0.1999068,1.278575,0.2248231,-0.1981293,1.263656,0.08867032,0.440776,1.499293,-0.1029117,-0.1679403,1.252005,0.1943014,-0.1678912,1.260027,0.08136844,-0.01543153,1.52429,0.0823938,-0.3326043,1.504964,-0.09509644,0.1744256,1.516023,-0.0004940297,-0.3252063,1.473007,-0.1362492,-0.04964867,1.530779,0.302813,-0.05140182,1.516672,NA,NA,Closed,Unknown,
0.5214844,-0.7597656,0.4516602,0.5507813,0.7397461,0.3271484,-5,-1,7,4,-8,-4,-5,-4,-3,-5,-4,3,-11,-4,2,-3,1.6875,1.6875,1.6875,2.3125,2.3125,2.3125,3.341652,4.139037,9.75323,6.84922,4.0496,3.79336,-0.1157099,-0.2022178,1.274108,0.2240115,-0.1988,1.263475,0.08866846,0.4407781,1.499295,-0.1048145,-0.1695634,1.249725,0.1950988,-0.1686851,1.259159,0.08135,-0.01541463,1.524291,0.08239467,-0.3326041,1.504964,-0.09512188,0.1743376,1.516055,-0.000490643,-0.3252096,1.473011,-0.1362054,-0.04974805,1.530815,0.3026845,-0.05154593,1.516777,NA,NA,Closed,Unknown,
0.5029297,-0.7558594,0.4526367,0.5488281,0.7822266,0.3125,-3,-1,1,5,6,2,3,-4,-4,-8,-4,-2,-16,4,0,-7,-0.375,-0.375,-0.375,-0.25,-0.25,-0.25,3.341501,4.137195,9.755242,6.851318,4.048011,3.793323,-0.1150095,-0.2014212,1.278553,0.2237329,-0.1999835,1.26615,0.08866919,0.4407829,1.499366,-0.103569,-0.1704189,1.249747,0.1957724,-0.1685362,1.262002,0.08126815,-0.0154134,1.524404,0.08238338,-0.332624,1.50498,-0.09516542,0.174298,1.516266,-0.0005009493,-0.3252436,1.473046,-0.1361445,-0.0498249,1.530902,0.3026899,-0.0517661,1.517163,NA,NA,Closed,Closed,
0.512207,-0.7802734,0.4545898,0.5698242,0.7280273,0.3295898,-10,-7,-10,-14,-1,5,-8,-8,-9,-11,-8,-1,-5,-5,-4,-10,-1.375,-1.375,-1.375,-2.25,-2.25,-2.25,3.340206,4.133524,9.757364,6.849159,4.042633,3.792994,-0.1163951,-0.2059861,1.275507,0.2245765,-0.2012636,1.265717,0.08863666,0.4407558,1.499406,-0.106357,-0.172049,1.250907,0.195591,-0.1706551,1.260292,0.0812653,-0.01541217,1.524409,0.08237675,-0.3326262,1.504981,-0.09516094,0.1742491,1.516322,-0.000509628,-0.3252454,1.473052,-0.1358934,-0.04991142,1.531012,0.3026443,-0.05194214,1.517396,NA,NA,Closed,Closed,
0.5092773,-0.7431641,0.4477539,0.5639648,0.7739258,0.3212891,4,3,9,0,4,0,-5,-6,-2,1,1,18,13,5,-3,1,-1.5,-1.5,-1.5,2.9375,2.9375,2.9375,3.339604,4.127534,9.761559,6.850935,4.03741,3.792868,-0.1166621,-0.206144,1.275347,0.2240128,-0.2017269,1.264464,0.08862772,0.4407562,1.499402,-0.1048727,-0.1712709,1.250413,0.196069,-0.170306,1.260444,0.08121213,-0.01540527,1.524391,0.08236725,-0.3326381,1.504961,-0.09516308,0.1742469,1.516327,-0.0005176012,-0.325252,1.473025,-0.1358992,-0.05004217,1.530981,0.3025965,-0.05212417,1.517389,NA,NA,Closed,Closed,
0.5283203,-0.7675781,0.4501953,0.5756836,0.7451172,0.3266602,-3,-4,-7,-2,3,7,2,-1,-4,-1,-3,-9,-2,-6,-4,-1,-4.6875,-4.6875,-4.6875,1.5,1.5,1.5,3.334545,4.122046,9.763996,6.854638,4.030347,3.790145,-0.117106,-0.2066964,1.27719,0.2249606,-0.2025909,1.266185,0.08857654,0.4408589,1.499521,-0.1056018,-0.1729335,1.251828,0.1961343,-0.1721844,1.262807,0.08120914,-0.01540495,1.524389,0.08235887,-0.3326479,1.504954,-0.09515829,0.1741798,1.516386,-0.0005272692,-0.325269,1.473013,-0.1358985,-0.0500425,1.530977,0.3025967,-0.05219165,1.517422,NA,NA,Closed,Closed,
0.5444336,-0.7602539,0.4492188,0.5883789,0.7558594,0.324707,-6,-8,-15,-8,0,4,-4,-2,0,-4,0,-3,-10,-6,0,-1,2.5625,2.5625,2.5625,1.0625,1.0625,1.0625,3.331555,4.116286,9.769146,6.856548,4.02362,3.789096,-0.1172934,-0.2074921,1.278308,0.2259376,-0.2050509,1.266842,0.08853209,0.4409173,1.499635,-0.105317,-0.1740891,1.251761,0.1968775,-0.1734732,1.262467,0.08119024,-0.01537041,1.524438,0.08235347,-0.3326573,1.504971,-0.09513837,0.1741485,1.516535,-0.0005355362,-0.3252751,1.473069,-0.1358898,-0.05001678,1.531155,0.3024413,-0.05247526,1.517799,NA,NA,Closed,Closed,
0.5419922,-0.7421875,0.4472656,0.5766602,0.7387695,0.3100586,2,2,-7,-5,-4,-3,1,-1,-2,1,-2,2,-3,-1,3,-1,0.5,0.5,0.5,-2.1875,-2.1875,-2.1875,3.334091,4.110982,9.771278,6.855971,4.01916,3.787148,-0.1168515,-0.2078472,1.279299,0.2254217,-0.2055243,1.266842,0.0885039,0.4409378,1.499682,-0.106275,-0.1745449,1.252618,0.194356,-0.1785244,1.264025,0.08117668,-0.01536197,1.524493,0.08235379,-0.332658,1.504977,-0.09516796,0.1740993,1.516642,-0.0005348424,-0.3252748,1.473072,-0.1357934,-0.05014028,1.531309,0.3023806,-0.0527115,1.517902,NA,NA,Closed,Closed,
0.5249023,-0.7509766,0.4482422,0.5678711,0.7114258,0.3154297,0,1,-2,0,-4,-3,3,1,-3,-1,-2,-4,-1,0,-6,-12,-3.5625,-3.5625,-3.5625,-0.5625,-0.5625,-0.5625,3.330629,4.108992,9.773975,6.854785,4.014019,3.785734,-0.1175942,-0.2087327,1.278872,0.2260129,-0.2071201,1.266772,0.08850311,0.4409534,1.499688,-0.1043873,-0.1735687,1.25074,0.1950312,-0.1808441,1.263445,0.0811598,-0.01537392,1.524523,0.08234414,-0.332665,1.504988,-0.09515408,0.1740946,1.516669,-0.0005439912,-0.3252795,1.473089,-0.1358566,-0.05032495,1.531458,0.3022346,-0.05302298,1.517932,NA,NA,Closed,Closed,
0.5048828,-0.7441406,0.4287109,0.5541992,0.7207031,0.309082,2,1,-6,1,0,5,2,2,-1,-2,-2,-9,-1,-6,-4,0,0.8125,0.8125,0.8125,1.5,1.5,1.5,3.329958,4.106134,9.776463,6.857097,4.008544,3.783158,-0.1192664,-0.2091664,1.28023,0.2272567,-0.2083261,1.267519,0.08841091,0.4409477,1.499818,-0.106361,-0.1767754,1.253229,0.1957395,-0.1773449,1.263231,0.08114185,-0.01536803,1.524627,0.08232584,-0.3326724,1.505013,-0.09518754,0.1740501,1.516765,-0.0005665032,-0.3252865,1.473129,-0.1358407,-0.05033032,1.531483,0.3022273,-0.05314768,1.518001,NA,NA,Closed,Closed,
0.512207,-0.7949219,0.4321289,0.6074219,0.7060547,0.2871094,-6,-6,-11,2,3,1,5,1,2,0,-1,-11,1,-1,0,5,-6.1875,-6.1875,-6.1875,-3.0625,-3.0625,-3.0625,3.322601,4.095026,9.784127,6.865378,3.990731,3.767854,-0.1210618,-0.2122506,1.28135,0.2289933,-0.2120074,1.267742,0.08835867,0.4409256,1.499889,-0.1083826,-0.1819021,1.253864,0.1983133,-0.184384,1.261,0.08105888,-0.01534575,1.524699,0.08229424,-0.3326809,1.505026,-0.09526399,0.1739751,1.517024,-0.0006003368,-0.3252844,1.473153,-0.1358274,-0.05070895,1.531832,0.3018092,-0.05434502,1.51809,NA,NA,Unknown,Closed,
0.5654297,-0.7241211,0.4453125,0.6264648,0.6958008,0.3188477,-5,-5,-4,-3,-2,-4,-5,-5,1,-1,-2,-4,-2,-1,-1,1,2.9375,2.9375,2.9375,3.625,3.625,3.625,3.322813,4.082434,9.789363,6.865308,3.971694,3.764911,-0.1209674,-0.2137845,1.281757,0.2289351,-0.2142776,1.269157,0.08832636,0.4409281,1.499984,-0.1071258,-0.1838261,1.255609,0.1988936,-0.1885421,1.263524,0.08102299,-0.01533709,1.524813,0.08223224,-0.3326856,1.505086,-0.09528937,0.1739692,1.517291,-0.000666748,-0.3252878,1.473232,-0.1359162,-0.05080146,1.532,0.3016993,-0.05462661,1.51837,NA,NA,Unknown,Closed,
0.5722656,-0.6958008,0.434082,0.5957031,0.7861328,0.3120117,-2,-3,-4,-4,3,2,-1,-2,-3,0,3,16,4,0,-2,-3,-6.625,-6.625,-6.625,5.375,5.375,5.375,3.319143,4.067642,9.792557,6.87629,3.956837,3.758542,-0.1214016,-0.2156749,1.281787,0.2305415,-0.2177749,1.26811,0.0883112,0.440933,1.500009,-0.1074038,-0.1854352,1.255185,0.2008629,-0.1903325,1.261631,0.08096395,-0.01533796,1.524875,0.08219791,-0.3327006,1.505115,-0.09529714,0.1739598,1.517333,-0.0006979269,-0.3252932,1.473267,-0.1359438,-0.05091075,1.532075,0.3017831,-0.05484877,1.518504,NA,NA,Closed,Closed,
0.5693359,-0.7993164,0.440918,0.6582031,0.7016602,0.2963867,1,-1,-4,-6,-4,-5,-5,-3,2,0,0,-2,-2,0,0,1,-11.875,-11.875,-11.875,-2.1875,-2.1875,-2.1875,3.311504,4.061332,9.794403,6.882419,3.936774,3.749967,-0.1222612,-0.2176054,1.282014,0.2317491,-0.2201464,1.268618,0.08827578,0.4409653,1.500067,-0.1093582,-0.1875454,1.256875,0.1970938,-0.1969058,1.262357,0.08093416,-0.0153191,1.524956,0.08215974,-0.3327025,1.505196,-0.09528808,0.1739449,1.517445,-0.0007367671,-0.3252872,1.473409,-0.1359028,-0.05096143,1.532132,0.301876,-0.05548768,1.5187,NA,NA,Closed,Closed,
0.5541992,-0.7128906,0.421875,0.6376953,0.7480469,0.3242188,1,1,-10,-9,-7,-6,-8,-5,-5,-4,-3,-3,-14,0,-6,-6,5.75,5.75,5.75,6.0625,6.0625,6.0625,3.30879,4.040317,9.804832,6.885917,3.924092,3.748025,-0.1227579,-0.2219592,1.285013,0.2337059,-0.2256521,1.271422,0.08812097,0.4410855,1.500488,-0.11068,-0.1904177,1.259182,0.1986151,-0.2018665,1.265929,0.08079494,-0.01532686,1.525093,0.08207543,-0.332742,1.505247,-0.09539855,0.1738829,1.517767,-0.0008377538,-0.3253308,1.473501,-0.1360717,-0.0512087,1.532361,0.302052,-0.05605384,1.518929,NA,NA,Unknown,Closed,
0.5854492,-0.7246094,0.4194336,0.6533203,0.737793,0.2822266,17,16,19,4,1,1,-4,3,0,2,-1,2,2,0,-1,-4,-0.4375,-0.4375,-0.4375,-0.9375,-0.9375,-0.9375,3.307618,4.032021,9.807066,6.892686,3.913299,3.74101,-0.123318,-0.2228873,1.286638,0.2344292,-0.2279063,1.272418,0.08808529,0.4410093,1.500559,-0.109715,-0.1889664,1.257817,0.200124,-0.2028697,1.266143,0.08078337,-0.01535495,1.525157,0.0820248,-0.332792,1.505325,-0.09538212,0.1738786,1.517843,-0.0008940307,-0.3253697,1.473588,-0.1361201,-0.05146096,1.53252,0.3021337,-0.05624014,1.518948,NA,NA,Closed,Closed,
