ALX,ALY,ALZ,ARX,ARY,ARZ,EMG0L,EMG1L,EMG2L,EMG3L,EMG4L,EMG5L,EMG6L,EMG7L,EMG0R,EMG1R,EMG2R,EMG3R,EMG4R,EMG5R,EMG6R,EMG7R,GLX,GLY,GLZ,GRX,GRY,GRZ,ORL,OPL,OYL,ORR,OPR,OYR,LHNX,LHNY,LHNZ,RHNX,RHNY,RHNZ,HX,HY,HZ,LTX,LTY,LTZ,RTX,RTY,RTZ,SpineMidX,SpineMidY,SpineMidZ,SpineBaseX,SpineBaseY,SpineBaseZ,ShoulderLeftX,ShoulderLeftY,ShoulderLeftZ,ShoulderRightX,ShoulderRightY,ShoulderRightZ,ElbowLeftX,ElbowLeftY,ElbowLeftZ,ElbowRightX,ElbowRightY,ElbowRightZ,Myo_Pose_left,Myo_Pose_Right,Kinect_pose_left,Kinect_pose_right
0.8935547,-0.4135742,-0.015625,-0.8754883,0.2851563,-0.253418,1,1,-1,1,-2,-1,-1,-2,0,0,2,-3,-3,-1,-3,1,1.125,1.125,1.125,31.3125,31.3125,31.3125,2.364717,3.185314,9.480122,8.651547,6.747612,7.459775,-0.1488606,-0.3672667,1.409855,0.1781463,0.2714329,1.439232,0.05002565,0.4453503,1.51441,-0.1955032,-0.3693801,1.401615,0.183043,0.2232738,1.485808,0.06251024,-0.006617142,1.520253,0.05652445,-0.3292578,1.49249,-0.1235373,0.1732325,1.51004,-0.02788133,-0.3233195,1.461287,-0.1658369,-0.08276913,1.501274,0.3495618,0.02342806,1.377599,NA,NA,NotTracked,NotTracked,
0.8935547,-0.4135742,-0.015625,-0.8378906,0.2841797,-0.2841797,1,1,-1,1,-2,-1,-1,-2,-2,0,2,4,-1,-2,-3,-1,1.125,1.125,1.125,27.1875,27.1875,27.1875,2.364717,3.185314,9.480122,8.729533,6.744737,7.51086,-0.1483026,-0.3676645,1.411626,0.1781342,0.2728289,1.439179,0.05043396,0.444707,1.516077,-0.196085,-0.3680835,1.405875,0.1829274,0.2227924,1.485892,0.06310347,-0.006002063,1.522158,0.05681085,-0.3276279,1.495245,-0.1232436,0.1730163,1.51105,-0.02755376,-0.3217466,1.462548,-0.1649009,-0.08131383,1.503166,0.3528306,0.02961386,1.376953,NA,NA,NotTracked,NotTracked,
0.8935547,-0.4135742,-0.015625,-0.8193359,0.2993164,-0.3198242,1,1,-1,1,-2,-1,-1,-2,-2,-5,-3,-7,-1,0,0,0,1.125,1.125,1.125,1.3125,1.3125,1.3125,2.364717,3.185314,9.480122,8.796394,6.726257,7.557353,-0.1483081,-0.3683249,1.414945,0.1092909,0.3672613,1.44085,0.05080887,0.4441894,1.517468,-0.1964755,-0.380464,1.41008,0.1270424,0.3603289,1.477474,0.06371902,-0.005385032,1.524251,0.05759988,-0.3258705,1.498128,-0.1227961,0.1726926,1.512617,-0.02679775,-0.3201172,1.464607,-0.164445,-0.08077139,1.505052,0.3488717,0.04074958,1.381291,NA,NA,NotTracked,NotTracked,
0.8935547,-0.4135742,-0.015625,-0.8334961,0.3012695,-0.3232422,1,1,-1,1,-2,-1,-1,-2,-3,-3,-3,-2,0,0,-1,-2,1.125,1.125,1.125,-2,-2,-2,2.364717,3.185314,9.480122,8.793758,6.717478,7.555892,-0.1461137,-0.3683967,1.418738,0.1086704,0.3675322,1.440593,0.0511649,0.4434887,1.518703,-0.1940316,-0.3719782,1.411636,0.1256886,0.3595402,1.475161,0.06394168,-0.005458623,1.526516,0.05785442,-0.3254169,1.500796,-0.1227141,0.1724543,1.513748,-0.02656486,-0.3194945,1.466606,-0.1638004,-0.0800513,1.507048,0.3509639,0.04165847,1.381563,NA,NA,NotTracked,NotTracked,
0.8935547,-0.4135742,-0.015625,-0.8334961,0.3012695,-0.3232422,1,1,-1,1,-2,-1,-1,-2,1,-1,-2,5,0,-1,-2,1,1.125,1.125,1.125,-2,-2,-2,2.364717,3.185314,9.480122,8.793758,6.717478,7.555892,-0.1463661,-0.3687531,1.423405,0.1077942,0.3692702,1.442549,0.05132559,0.4426901,1.521003,-0.1930301,-0.3689768,1.413362,0.1261656,0.3605308,1.474333,0.06403764,-0.005380267,1.529534,0.05805544,-0.324848,1.5047,-0.1228024,0.1721356,1.516024,-0.02636854,-0.3188839,1.470815,-0.1635093,-0.07969731,1.509338,0.349594,0.04489523,1.384486,NA,NA,NotTracked,NotTracked,
0.8935547,-0.4135742,-0.015625,-0.8891602,0.3183594,-0.34375,1,1,-1,1,-2,-1,-1,-2,-1,-4,-2,-3,-2,-2,-1,-1,1.125,1.125,1.125,2.375,2.375,2.375,2.364717,3.185314,9.480122,8.781404,6.727917,7.539015,-0.1466815,-0.370226,1.426846,0.1051187,0.3528093,1.452198,0.05130078,0.4420822,1.521965,-0.1957959,-0.3861883,1.425318,0.1299802,0.3744342,1.485222,0.06421658,-0.005525282,1.532052,0.05791166,-0.3246125,1.50832,-0.1229972,0.171951,1.517918,-0.0264771,-0.318611,1.473872,-0.1634419,-0.07947474,1.512401,0.349025,0.04643963,1.385884,NA,NA,NotTracked,NotTracked,
0.8935547,-0.4135742,-0.015625,-0.8642578,0.3120117,-0.3569336,1,1,-1,1,-2,-1,-1,-2,0,1,-1,-2,-3,-2,1,-2,1.125,1.125,1.125,0.125,0.125,0.125,2.364717,3.185314,9.480122,8.784537,6.727623,7.541614,-0.1470144,-0.370078,1.43117,0.1048618,0.3631912,1.447857,0.05118686,0.4411224,1.522972,-0.1950825,-0.3684373,1.425305,0.1273841,0.366539,1.4816,0.06384273,-0.005977022,1.534964,0.05742024,-0.324971,1.512151,-0.1231549,0.1717795,1.520322,-0.02691848,-0.3187711,1.477184,-0.1633583,-0.07973465,1.515363,0.3500872,0.0462893,1.387169,NA,NA,NotTracked,NotTracked,
0.8935547,-0.4135742,-0.015625,-0.8642578,0.3266602,-0.3266602,1,1,-1,1,-2,-1,-1,-2,-2,-2,0,0,0,0,-2,0,1.125,1.125,1.125,0.6875,0.6875,0.6875,2.364717,3.185314,9.480122,8.77928,6.722698,7.53195,-0.1475448,-0.3692102,1.433548,0.106192,0.3615455,1.447087,0.05081032,0.4403368,1.523468,-0.1983118,-0.3719597,1.431793,0.1255076,0.3605164,1.482966,0.06336283,-0.00669872,1.537154,0.0569224,-0.3255545,1.515105,-0.1238258,0.1714619,1.522384,-0.02755846,-0.3194355,1.480823,-0.163345,-0.0804714,1.517626,0.3489113,0.04765833,1.389155,NA,NA,NotTracked,NotTracked,
0.8935547,-0.4135742,-0.015625,-0.8876953,0.3051758,-0.3525391,1,1,-1,1,-2,-1,-1,-2,1,4,2,1,-1,-4,-1,-1,1.125,1.125,1.125,-3.875,-3.875,-3.875,2.364717,3.185314,9.480122,8.774313,6.717741,7.534445,-0.1482349,-0.3700846,1.437971,0.1061432,0.3470911,1.45507,0.0503675,0.4396517,1.52395,-0.1960471,-0.3956273,1.43205,0.1266501,0.3684222,1.487943,0.06299338,-0.007129182,1.539141,0.05636758,-0.3257387,1.518296,-0.1239773,0.1711841,1.524543,-0.02816091,-0.3195713,1.483958,-0.1638752,-0.08096746,1.52037,0.3482501,0.04858113,1.390925,NA,NA,NotTracked,NotTracked,
0.8935547,-0.4135742,-0.015625,-0.8671875,0.328125,-0.3417969,1,1,-1,1,-2,-1,-1,-2,-2,-1,1,0,1,0,0,0,1.125,1.125,1.125,-2.875,-2.875,-2.875,2.364717,3.185314,9.480122,8.776016,6.717817,7.540868,-0.1483674,-0.3698795,1.440793,0.106855,0.3458591,1.455851,0.04966779,0.4390216,1.524362,-0.1959895,-0.3689225,1.432492,0.1275195,0.3654339,1.486876,0.0624928,-0.007432342,1.540979,0.0558629,-0.3257957,1.521227,-0.1244192,0.1706379,1.526934,-0.02868106,-0.3197335,1.487261,-0.1639816,-0.08091035,1.523343,0.347738,0.04944257,1.392145,NA,NA,NotTracked,NotTracked,
0.8935547,-0.4135742,-0.015625,-0.8554688,0.3276367,-0.3491211,1,1,-1,1,-2,-1,-1,-2,-1,0,0,1,-1,0,-2,-1,1.125,1.125,1.125,-5.25,-5.25,-5.25,2.364717,3.185314,9.480122,8.776257,6.716287,7.546577,-0.1487782,-0.3699776,1.44204,0.1030095,0.3500658,1.453929,0.04897767,0.4384521,1.524565,-0.1999724,-0.386444,1.443333,0.1268215,0.3668295,1.484145,0.06214068,-0.007728702,1.542152,0.05561791,-0.325937,1.523165,-0.1247245,0.1703299,1.528612,-0.02899604,-0.3199445,1.489462,-0.1640629,-0.08110519,1.525452,0.3469166,0.05002505,1.393114,NA,NA,NotTracked,NotTracked,
0.8935547,-0.4135742,-0.015625,-0.8686523,0.328125,-0.3388672,1,1,-1,1,-2,-1,-1,-2,-2,-3,1,0,-2,0,-3,-2,1.125,1.125,1.125,-3.9375,-3.9375,-3.9375,2.364717,3.185314,9.480122,8.766579,6.713476,7.544,-0.1486132,-0.3700185,1.444082,0.1064676,0.3541926,1.450982,0.04848579,0.4378104,1.524763,-0.1966558,-0.3672194,1.435934,0.1360683,0.3824464,1.415714,0.06165284,-0.008352413,1.543719,0.05487585,-0.3267885,1.525501,-0.125119,0.1702605,1.530584,-0.02971453,-0.3206735,1.492433,-0.164243,-0.07952483,1.528551,0.3520809,0.04547052,1.39082,NA,NA,NotTracked,NotTracked,
0.8935547,-0.4135742,-0.015625,-0.8984375,0.3344727,-0.3461914,1,1,-1,1,-2,-1,-1,-2,-4,-3,-3,-3,0,-1,-2,-4,1.125,1.125,1.125,-5.0625,-5.0625,-5.0625,2.364717,3.185314,9.480122,8.753703,6.710405,7.540617,-0.1484053,-0.3680938,1.444647,0.1058296,0.3556485,1.449186,0.04810467,0.4374407,1.524784,-0.1976629,-0.3712548,1.437346,0.1253668,0.3646963,1.485862,0.06115638,-0.008664131,1.54418,0.05461402,-0.3270546,1.526878,-0.1250654,0.1701458,1.531545,-0.02985882,-0.3208039,1.493549,-0.1644577,-0.07914859,1.529836,0.3541812,0.04369613,1.390009,NA,NA,NotTracked,NotTracked,
0.8935547,-0.4135742,-0.015625,-0.8818359,0.3339844,-0.3530273,1,1,-1,1,-2,-1,-1,-2,-1,-2,-3,-1,0,0,2,0,1.125,1.125,1.125,-2.125,-2.125,-2.125,2.364717,3.185314,9.480122,8.752062,6.709929,7.545711,-0.1481126,-0.3686811,1.444319,0.1065982,0.3475844,1.452621,0.04794638,0.4371414,1.524772,-0.1983645,-0.378447,1.440759,0.125201,0.3652464,1.486082,0.06123243,-0.008845717,1.544802,0.05474735,-0.3271907,1.527529,-0.1252183,0.1700077,1.532528,-0.02967319,-0.3209313,1.494317,-0.1643228,-0.07848361,1.531166,0.3551951,0.04305316,1.389565,NA,NA,NotTracked,NotTracked,
0.8935547,-0.4135742,-0.015625,-0.8564453,0.3398438,-0.3378906,1,1,-1,1,-2,-1,-1,-2,-1,2,1,-1,0,-2,-2,0,1.125,1.125,1.125,0.4375,0.4375,0.4375,2.364717,3.185314,9.480122,8.766399,6.708338,7.56032,-0.1475437,-0.3683054,1.444607,0.1067646,0.3536447,1.451235,0.04784442,0.4369271,1.524823,-0.1972821,-0.3737283,1.438908,0.1439566,0.3550778,1.4064,0.06137552,-0.008881966,1.545227,0.05483337,-0.3271593,1.527823,-0.1250373,0.1700529,1.533643,-0.02957458,-0.32087,1.494618,-0.1639911,-0.07908779,1.532023,0.3560605,0.04259218,1.389185,NA,NA,NotTracked,NotTracked,
0.8935547,-0.4135742,-0.015625,-0.8623047,0.328125,-0.3256836,1,1,-1,1,-2,-1,-1,-2,0,-1,-1,-1,0,0,-2,0,1.125,1.125,1.125,-0.25,-0.25,-0.25,2.364717,3.185314,9.480122,8.772935,6.707085,7.568069,-0.147197,-0.3680603,1.443938,0.1066696,0.3564544,1.450452,0.04780767,0.4367946,1.524915,-0.1953543,-0.3720353,1.435709,0.1275067,0.370636,1.486562,0.06116155,-0.009006815,1.54512,0.05489967,-0.3271388,1.527898,-0.1248124,0.1701027,1.534235,-0.02946596,-0.3208266,1.494721,-0.1635123,-0.07934533,1.532665,0.3567006,0.0422193,1.388879,NA,NA,NotTracked,NotTracked,
0.8935547,-0.4135742,-0.015625,-0.8623047,0.328125,-0.3256836,1,1,-1,1,-2,-1,-1,-2,-1,-2,-3,-1,0,-1,-1,0,1.125,1.125,1.125,-0.25,-0.25,-0.25,2.364717,3.185314,9.480122,8.772935,6.707085,7.568069,-0.1465593,-0.3680279,1.441914,0.1081437,0.3575934,1.448925,0.04784911,0.4366558,1.524977,-0.1970935,-0.373424,1.438572,0.127051,0.3676412,1.484567,0.06132206,-0.008966364,1.54523,0.05497053,-0.3271449,1.527849,-0.1244246,0.1701283,1.534643,-0.02933561,-0.3207819,1.494738,-0.1632893,-0.07959411,1.532973,0.3573025,0.04206468,1.388247,NA,NA,NotTracked,NotTracked,
0.8935547,-0.4135742,-0.015625,-0.8623047,0.328125,-0.3256836,1,1,-1,1,-2,-1,-1,-2,-1,-1,0,-1,-1,-2,-2,-3,1.125,1.125,1.125,-0.25,-0.25,-0.25,2.364717,3.185314,9.480122,8.772935,6.707085,7.568069,-0.1463133,-0.3685139,1.440537,0.1124366,0.3608188,1.445678,0.04788691,0.4365756,1.525112,-0.1945066,-0.3892282,1.439143,0.1050953,0.3144142,1.4592,0.0616886,-0.008951132,1.545334,0.05550908,-0.3270513,1.52737,-0.1240509,0.1701074,1.535161,-0.02883861,-0.3206937,1.494406,-0.1625978,-0.07901069,1.53334,0.3578419,0.04215514,1.387554,NA,NA,NotTracked,NotTracked,
0.8935547,-0.4135742,-0.015625,-0.8623047,0.328125,-0.3256836,1,1,-1,1,-2,-1,-1,-2,0,-3,-2,-2,-2,1,-2,0,1.125,1.125,1.125,-0.25,-0.25,-0.25,2.364717,3.185314,9.480122,8.772935,6.707085,7.568069,-0.1460876,-0.3673558,1.437541,0.112733,0.3604055,1.446056,0.04801062,0.4363939,1.525187,-0.1945886,-0.3725539,1.435852,0.125184,0.3551976,1.478384,0.06235631,-0.008796487,1.545005,0.05652611,-0.3267785,1.525869,-0.123582,0.1700587,1.535729,-0.02788477,-0.3204186,1.493275,-0.1613937,-0.07870468,1.533394,0.3585202,0.04213972,1.38619,NA,NA,NotTracked,NotTracked,
0.8935547,-0.4135742,-0.015625,-0.8623047,0.328125,-0.3256836,1,1,-1,1,-2,-1,-1,-2,-1,3,1,1,-3,-4,-2,-1,1.125,1.125,1.125,-0.25,-0.25,-0.25,2.364717,3.185314,9.480122,8.772935,6.707085,7.568069,-0.1454017,-0.367854,1.434536,0.1127285,0.3615961,1.445963,0.04824211,0.4363457,1.525199,-0.1896613,-0.365206,1.425372,0.1238193,0.3546028,1.478126,0.06231002,-0.00878812,1.5429,0.05734697,-0.3265745,1.523479,-0.1232735,0.1699644,1.535758,-0.02702979,-0.3201915,1.491336,-0.1607826,-0.07947062,1.532971,0.358886,0.04294286,1.384147,NA,NA,NotTracked,NotTracked,
0.8935547,-0.4135742,-0.015625,-0.8623047,0.328125,-0.3256836,1,1,-1,1,-2,-1,-1,-2,-2,-1,-1,-1,0,-1,-3,2,1.125,1.125,1.125,-0.25,-0.25,-0.25,2.364717,3.185314,9.480122,8.772935,6.707085,7.568069,-0.1452328,-0.3670862,1.431219,0.1127491,0.3611113,1.445981,0.04846742,0.4363164,1.525215,-0.1936731,-0.3754697,1.431685,0.1280837,0.3643565,1.481647,0.06235059,-0.00879066,1.540833,0.05809353,-0.3266786,1.520358,-0.1227774,0.1698293,1.535597,-0.02638178,-0.3202356,1.489178,-0.1602017,-0.07988888,1.532079,0.3594214,0.04442086,1.381499,NA,NA,NotTracked,NotTracked,
0.8935547,-0.4135742,-0.015625,-0.8862305,0.3100586,-0.3637695,1,1,-1,1,-2,-1,-1,-2,-3,-5,-8,-1,0,0,0,1,1.125,1.125,1.125,1.1875,1.1875,1.1875,2.364717,3.185314,9.480122,8.867106,6.71753,7.669007,-0.1453139,-0.3659917,1.426235,0.1135631,0.3595855,1.443995,0.04885966,0.4362585,1.525023,-0.1919796,-0.3782782,1.419806,0.1291329,0.3628857,1.478065,0.06246776,-0.008693291,1.538355,0.05861693,-0.3265869,1.516266,-0.1221104,0.1697807,1.534717,-0.02569104,-0.3201028,1.485381,-0.1596628,-0.08080713,1.529955,0.3596717,0.04573759,1.378467,NA,NA,NotTracked,NotTracked,
0.8935547,-0.4135742,-0.015625,-0.8764648,0.2919922,-0.3564453,1,1,-1,1,-2,-1,-1,-2,-1,-1,-1,-2,-3,0,1,0,1.125,1.125,1.125,0.625,0.625,0.625,2.364717,3.185314,9.480122,8.876861,6.716631,7.67784,-0.1458731,-0.3650813,1.421362,0.1140192,0.3608201,1.443947,0.04912218,0.4362752,1.52482,-0.1930765,-0.3867571,1.420783,0.1279522,0.3629931,1.478698,0.06204851,-0.008798705,1.535064,0.05899576,-0.32663,1.511947,-0.1216584,0.1697298,1.533549,-0.0253543,-0.3201307,1.481474,-0.1595834,-0.08161449,1.52717,0.359982,0.04655442,1.37692,NA,NA,NotTracked,NotTracked,
0.8935547,-0.4135742,-0.015625,-0.8745117,0.3120117,-0.3535156,1,1,-1,1,-2,-1,-1,-2,0,-4,0,0,-1,-1,-1,-1,1.125,1.125,1.125,4.0625,4.0625,4.0625,2.364717,3.185314,9.480122,8.901081,6.714813,7.69516,-0.146338,-0.3664249,1.415559,0.1229054,0.3420587,1.442163,0.04938746,0.4362257,1.524443,-0.1961481,-0.3660711,1.415429,0.09964576,0.2888228,1.498095,0.06244493,-0.008643956,1.532946,0.05906976,-0.3264043,1.507704,-0.1210261,0.1696513,1.531617,-0.02513031,-0.319717,1.476507,-0.1597365,-0.08295772,1.523129,0.3602643,0.04756932,1.375237,NA,NA,NotTracked,NotTracked,
0.8935547,-0.4135742,-0.015625,-0.8647461,0.3037109,-0.3374023,1,1,-1,1,-2,-1,-1,-2,-1,0,0,1,-1,-1,-1,0,1.125,1.125,1.125,1.5,1.5,1.5,2.364717,3.185314,9.480122,8.908768,6.715546,7.699302,-0.1460021,-0.3645586,1.410034,0.1071775,0.3661203,1.438926,0.04949418,0.4361446,1.523697,-0.1953548,-0.3679544,1.407973,0.1258503,0.3686531,1.474091,0.06176711,-0.008713371,1.529229,0.05907889,-0.3262542,1.502477,-0.1208862,0.1695487,1.528955,-0.02521226,-0.3196273,1.471437,-0.160289,-0.08356263,1.518381,0.3602085,0.04891364,1.372161,NA,NA,NotTracked,NotTracked,
0.8935547,-0.4135742,-0.015625,-0.8647461,0.3037109,-0.3374023,1,1,-1,1,-2,-1,-1,-2,-3,-1,-1,-1,0,-1,-1,-2,1.125,1.125,1.125,1.5,1.5,1.5,2.364717,3.185314,9.480122,8.908768,6.715546,7.699302,-0.1473829,-0.3608121,1.408655,0.1053704,0.3704066,1.438212,0.04952896,0.4361955,1.522985,-0.1967769,-0.358321,1.405472,0.123424,0.3708912,1.472538,0.06189109,-0.008419788,1.527336,0.05900445,-0.3262063,1.499367,-0.120899,0.1695263,1.526467,-0.02532799,-0.3196042,1.467904,-0.1607454,-0.08418395,1.515633,0.3602905,0.05030309,1.369976,NA,NA,NotTracked,NotTracked,
0.8935547,-0.4135742,-0.015625,-0.8701172,0.3071289,-0.3618164,1,1,-1,1,-2,-1,-1,-2,-2,-1,1,0,-1,-3,1,-2,1.125,1.125,1.125,2,2,2,2.364717,3.185314,9.480122,8.916156,6.710804,7.700191,-0.1476979,-0.3639836,1.406632,0.105424,0.3632034,1.43576,0.04936725,0.436142,1.522312,-0.1977184,-0.3714649,1.40524,0.08945998,0.3084931,1.4705,0.06246084,-0.008072367,1.526304,0.05887938,-0.3259876,1.497206,-0.1213749,0.1698077,1.524441,-0.02545924,-0.3193933,1.46563,-0.1612846,-0.08396811,1.513636,0.3602091,0.05199301,1.367424,NA,NA,NotTracked,NotTracked,
0.8935547,-0.4135742,-0.015625,-0.8847656,0.3100586,-0.3637695,1,1,-1,1,-2,-1,-1,-2,-3,-4,0,0,0,-2,-1,-1,1.125,1.125,1.125,-0.625,-0.625,-0.625,2.364717,3.185314,9.480122,8.911129,6.707868,7.694375,-0.1495561,-0.3638708,1.405908,0.1166142,0.3598211,1.434992,0.04890081,0.4359972,1.521407,-0.2018362,-0.3923474,1.414572,0.131307,0.3285604,1.461464,0.06276032,-0.007769026,1.525331,0.05869792,-0.3255813,1.495678,-0.1217689,0.1699968,1.522905,-0.02560605,-0.3189394,1.463723,-0.1620043,-0.08175588,1.512001,0.3599208,0.05261046,1.366035,NA,NA,NotTracked,NotTracked,
0.8935547,-0.4135742,-0.015625,-0.8867188,0.3164063,-0.3676758,1,1,-1,1,-2,-1,-1,-2,-1,-1,-2,-3,-1,0,-2,-5,1.125,1.125,1.125,0.4375,0.4375,0.4375,2.364717,3.185314,9.480122,8.911267,6.706359,7.694635,-0.1498483,-0.363843,1.405355,0.1131271,0.3624212,1.435409,0.04833059,0.4361036,1.520838,-0.2001078,-0.3741725,1.405183,0.1212929,0.3264915,1.460397,0.0628068,-0.007470753,1.524619,0.05850501,-0.3253133,1.494882,-0.1224791,0.1701315,1.521535,-0.02573869,-0.3186415,1.462655,-0.1624766,-0.08174112,1.510666,0.360025,0.05577202,1.36252,NA,NA,NotTracked,NotTracked,
0.8935547,-0.4135742,-0.015625,-0.8740234,0.3251953,-0.359375,1,1,-1,1,-2,-1,-1,-2,-2,-5,-5,-2,1,-3,-3,-3,1.125,1.125,1.125,0.25,0.25,0.25,2.364717,3.185314,9.480122,8.911133,6.697657,7.690486,-0.1498463,-0.3642291,1.407499,0.1029743,0.3740986,1.437777,0.04762585,0.4362767,1.520535,-0.2003318,-0.4066644,1.412,0.06547154,0.337868,1.415279,0.06274556,-0.007269766,1.524443,0.05839543,-0.3251601,1.494751,-0.1230698,0.1702605,1.521017,-0.0258047,-0.318483,1.462486,-0.1627594,-0.08175434,1.510247,0.3600257,0.05578193,1.362552,NA,NA,NotTracked,NotTracked,
0.8935547,-0.4135742,-0.015625,-0.8745117,0.3325195,-0.355957,1,1,-1,1,-2,-1,-1,-2,-4,-1,-2,-3,-1,-1,1,0,1.125,1.125,1.125,0.5625,0.5625,0.5625,2.364717,3.185314,9.480122,8.899652,6.693279,7.678451,-0.1503703,-0.3633389,1.408966,0.1348573,0.3255472,1.443491,0.04690378,0.4364329,1.520611,-0.203818,-0.3607433,1.417533,0.1079671,0.3833542,1.381167,0.06263813,-0.007135149,1.524485,0.05828847,-0.3250596,1.494826,-0.1235601,0.1704581,1.52071,-0.02590286,-0.3184153,1.462594,-0.1629493,-0.0816642,1.510192,0.3602333,0.05602219,1.362675,NA,NA,NotTracked,NotTracked,
0.8935547,-0.4135742,-0.015625,-0.8696289,0.3203125,-0.3671875,1,1,-1,1,-2,-1,-1,-2,-2,3,0,0,0,0,-2,1,1.125,1.125,1.125,-1.5625,-1.5625,-1.5625,2.364717,3.185314,9.480122,8.895869,6.689664,7.676661,-0.150581,-0.3631113,1.412279,0.1045954,0.376591,1.440113,0.04559916,0.4369074,1.521362,-0.2016806,-0.3722426,1.413301,0.05311346,0.4288525,1.388761,0.06229792,-0.006793338,1.525151,0.0579638,-0.3247229,1.495695,-0.124263,0.1706997,1.520933,-0.02627421,-0.318106,1.463681,-0.1632839,-0.0811928,1.510397,0.3611863,0.0572536,1.363021,NA,NA,NotTracked,NotTracked,
0.8935547,-0.4135742,-0.015625,-0.8564453,0.309082,-0.3706055,1,1,-1,1,-2,-1,-1,-2,2,0,0,-1,-1,-1,-2,-2,1.125,1.125,1.125,1.125,1.125,1.125,2.364717,3.185314,9.480122,8.895925,6.6863,7.675874,-0.1506529,-0.3612793,1.416564,0.1035117,0.3779529,1.44252,0.04423317,0.4369909,1.52267,-0.2011482,-0.3838991,1.41725,0.05027643,0.4310367,1.391276,0.06133823,-0.006365551,1.526526,0.05727318,-0.3237483,1.498953,-0.1250956,0.1710717,1.521697,-0.02668064,-0.3172105,1.466421,-0.1637038,-0.08057906,1.511122,0.3629271,0.05822691,1.364825,NA,NA,NotTracked,NotTracked,
0.8935547,-0.4135742,-0.015625,-0.8603516,0.324707,-0.3686523,1,1,-1,1,-2,-1,-1,-2,-2,-2,-2,-3,-1,0,1,-1,1.125,1.125,1.125,-1.625,-1.625,-1.625,2.364717,3.185314,9.480122,8.887444,6.68235,7.667644,-0.1505981,-0.361303,1.420524,0.1027073,0.377971,1.444975,0.04289655,0.4372988,1.524934,-0.1981467,-0.3590483,1.411396,0.106701,0.342363,1.466036,0.06025415,-0.006031141,1.52914,0.05649121,-0.3235506,1.502784,-0.1261697,0.1714348,1.523308,-0.0273706,-0.3170799,1.470347,-0.1644505,-0.07914601,1.513452,0.3637668,0.05786395,1.367493,NA,NA,NotTracked,NotTracked,
0.8935547,-0.4135742,-0.015625,-0.8447266,0.3256836,-0.3662109,1,1,-1,1,-2,-1,-1,-2,1,-1,-1,-4,-1,-2,0,0,1.125,1.125,1.125,0.3125,0.3125,0.3125,2.364717,3.185314,9.480122,8.874603,6.674942,7.653625,-0.1515232,-0.3606664,1.428319,0.1029211,0.3765253,1.448872,0.04101094,0.4373989,1.528318,-0.2016064,-0.3607103,1.423614,0.1116559,0.3427059,1.4697,0.05937382,-0.005396729,1.533681,0.05600771,-0.3230491,1.508244,-0.1269919,0.17177,1.525138,-0.02799625,-0.3167208,1.475684,-0.1652745,-0.07863301,1.516056,0.3644906,0.05727234,1.371734,NA,NA,NotTracked,NotTracked,
0.8935547,-0.4135742,-0.015625,-0.8554688,0.3046875,-0.3818359,1,1,-1,1,-2,-1,-1,-2,-1,2,0,0,0,0,-1,-2,1.125,1.125,1.125,2.3125,2.3125,2.3125,2.364717,3.185314,9.480122,8.868109,6.670616,7.640863,-0.1521493,-0.3618848,1.43442,0.1365381,0.3082967,1.460029,0.03944043,0.4374028,1.532145,-0.2057128,-0.363224,1.439,0.1553655,0.2651868,1.486308,0.05919138,-0.00506367,1.538284,0.05535759,-0.3226496,1.513792,-0.127834,0.171987,1.527666,-0.02864951,-0.3164041,1.480726,-0.1662795,-0.07707502,1.519906,0.3655272,0.05546774,1.377512,NA,NA,NotTracked,NotTracked,
0.8935547,-0.4135742,-0.015625,-0.8579102,0.3061523,-0.3867188,1,1,-1,1,-2,-1,-1,-2,-1,-6,-2,-1,-1,-1,-1,-1,1.125,1.125,1.125,2,2,2,2.364717,3.185314,9.480122,8.868221,6.671324,7.633708,-0.15242,-0.3626144,1.439907,0.1052181,0.3742439,1.454689,0.03858304,0.4368206,1.534747,-0.2034328,-0.3721051,1.434564,0.1051442,0.341577,1.472434,0.05843182,-0.005092694,1.542773,0.05494186,-0.3224955,1.519116,-0.1283873,0.1720257,1.529645,-0.02894688,-0.3163976,1.485789,-0.1669322,-0.07709795,1.522556,0.3619787,0.05778052,1.382435,NA,NA,NotTracked,NotTracked,
0.8935547,-0.4135742,-0.015625,-0.8496094,0.2944336,-0.3813477,1,1,-1,1,-2,-1,-1,-2,-1,-2,-1,-2,1,0,-1,-1,1.125,1.125,1.125,3,3,3,2.364717,3.185314,9.480122,8.867198,6.671984,7.629999,-0.1526814,-0.3634966,1.445031,0.1503088,0.2986573,1.46318,0.03799254,0.4368495,1.53676,-0.2021635,-0.3616285,1.434812,0.1183901,0.2794651,1.4994,0.05772686,-0.00485878,1.54617,0.0544548,-0.3223156,1.524546,-0.1289621,0.1720745,1.531192,-0.02943886,-0.3163964,1.490939,-0.1675881,-0.0754232,1.526261,0.3596837,0.05942772,1.387008,NA,NA,NotTracked,NotTracked,
0.8935547,-0.4135742,-0.015625,-0.8569336,0.3154297,-0.375,1,1,-1,1,-2,-1,-1,-2,-1,-3,-4,-1,0,0,0,1,1.125,1.125,1.125,-2.1875,-2.1875,-2.1875,2.364717,3.185314,9.480122,8.828954,6.67734,7.589823,-0.153228,-0.3607105,1.447634,0.1027458,0.3781235,1.454552,0.03737467,0.4372387,1.538408,-0.2025905,-0.3583214,1.437604,0.08365473,0.3331144,1.450277,0.05702732,-0.004603839,1.549427,0.05373804,-0.3219761,1.529492,-0.129478,0.1727008,1.532746,-0.03002003,-0.316059,1.495646,-0.1677975,-0.07566044,1.528896,0.3592952,0.05849957,1.391349,NA,NA,NotTracked,NotTracked,
0.8935547,-0.4135742,-0.015625,-0.8310547,0.3261719,-0.3652344,1,1,-1,1,-2,-1,-1,-2,0,-2,-1,1,0,-1,1,1,1.125,1.125,1.125,-3.25,-3.25,-3.25,2.364717,3.185314,9.480122,8.812044,6.679418,7.574138,-0.154603,-0.3610175,1.450793,0.09844147,0.3768976,1.458668,0.03695235,0.437451,1.539683,-0.2042331,-0.3584067,1.440891,0.1055174,0.3510417,1.481583,0.05636542,-0.004375384,1.551229,0.05285461,-0.3217515,1.533477,-0.1299419,0.1733701,1.53428,-0.03080867,-0.3157367,1.500058,-0.1684706,-0.07464008,1.531771,0.3585538,0.05616806,1.396038,NA,NA,NotTracked,NotTracked,
0.8935547,-0.4135742,-0.015625,-0.8662109,0.359375,-0.3447266,1,1,-1,1,-2,-1,-1,-2,-1,-1,0,-1,-1,-2,-1,0,1.125,1.125,1.125,-7.1875,-7.1875,-7.1875,2.364717,3.185314,9.480122,8.774856,6.683064,7.540584,-0.15594,-0.3608644,1.451948,0.1363121,0.3056746,1.477714,0.03680389,0.4376933,1.541148,-0.2067265,-0.3674134,1.445975,0.1820068,0.259005,1.540636,0.05624679,-0.00426548,1.552512,0.05268684,-0.3217453,1.535859,-0.1301109,0.1738304,1.535703,-0.03114619,-0.3158163,1.502824,-0.168762,-0.07500187,1.533204,0.3579813,0.05471393,1.399178,NA,NA,NotTracked,NotTracked,
0.8935547,-0.4135742,-0.015625,-0.8618164,0.3364258,-0.3793945,1,1,-1,1,-2,-1,-1,-2,-2,1,1,1,0,-3,-2,0,1.125,1.125,1.125,-2.0625,-2.0625,-2.0625,2.364717,3.185314,9.480122,8.773494,6.688366,7.550862,-0.1569816,-0.3610629,1.451967,0.1419915,0.3141939,1.464607,0.03711081,0.4381122,1.542376,-0.2067566,-0.3577219,1.443232,0.1332538,0.2808012,1.490158,0.05697493,-0.003773359,1.554825,0.05281205,-0.3214281,1.537892,-0.1294856,0.1744193,1.537057,-0.03109812,-0.3155625,1.504989,-0.1691089,-0.07421608,1.534773,0.352319,0.05860629,1.402986,NA,NA,NotTracked,NotTracked,
0.8935547,-0.4135742,-0.015625,-0.8525391,0.3300781,-0.3740234,1,1,-1,1,-2,-1,-1,-2,-4,-2,-3,-3,-1,0,-1,-1,1.125,1.125,1.125,0.75,0.75,0.75,2.364717,3.185314,9.480122,8.778397,6.689395,7.555452,-0.1565282,-0.361225,1.452988,0.09989779,0.3786364,1.464691,0.03862654,0.4385033,1.543492,-0.2055133,-0.3615584,1.443147,0.1172689,0.3580748,1.496318,0.05814907,-0.003403618,1.556845,0.05342746,-0.3212005,1.539678,-0.1281878,0.1751166,1.538808,-0.03063591,-0.3152958,1.506702,-0.1686483,-0.07350112,1.536497,0.3509496,0.0594144,1.405634,NA,NA,NotTracked,NotTracked,
0.8935547,-0.4135742,-0.015625,-0.8300781,0.3540039,-0.340332,1,1,-1,1,-2,-1,-1,-2,0,-3,0,0,0,0,1,3,1.125,1.125,1.125,-2.125,-2.125,-2.125,2.364717,3.185314,9.480122,8.771963,6.694114,7.55021,-0.1538921,-0.3605566,1.45338,0.142009,0.3233553,1.465729,0.041821,0.438822,1.545259,-0.2005834,-0.3468051,1.43875,0.1384096,0.2834008,1.487101,0.06027928,-0.003156926,1.558891,0.05438422,-0.3210414,1.541085,-0.125641,0.1761257,1.541223,-0.0296256,-0.3151135,1.508512,-0.1672572,-0.07197141,1.538408,0.3511212,0.05880112,1.408776,NA,NA,NotTracked,NotTracked,
0.8935547,-0.4135742,-0.015625,-0.8491211,0.3334961,-0.3564453,1,1,-1,1,-2,-1,-1,-2,-1,-1,-2,0,-1,-3,-2,-2,1.125,1.125,1.125,1.0625,1.0625,1.0625,2.364717,3.185314,9.480122,8.756013,6.704048,7.536657,-0.1511445,-0.3601314,1.453329,0.1357453,0.3318391,1.471326,0.0461667,0.4391904,1.546477,-0.1994985,-0.3597701,1.440846,0.1192766,0.2758824,1.526404,0.06328414,-0.002908933,1.560113,0.0559745,-0.3207717,1.54171,-0.1216615,0.1769105,1.543201,-0.02779317,-0.314746,1.509231,-0.1651915,-0.0703156,1.539696,0.3521983,0.05714272,1.412023,NA,NA,NotTracked,NotTracked,
0.8935547,-0.4135742,-0.015625,-0.8544922,0.3388672,-0.3603516,1,1,-1,1,-2,-1,-1,-2,0,0,-3,-4,-2,0,0,-2,1.125,1.125,1.125,-0.8125,-0.8125,-0.8125,2.364717,3.185314,9.480122,8.743979,6.710474,7.522496,-0.1471465,-0.3584245,1.454871,0.1851944,0.2817138,1.471554,0.05279753,0.4404028,1.548807,-0.1925804,-0.3625233,1.442585,0.1544603,0.2236034,1.505303,0.0675453,-0.002980016,1.561273,0.05886752,-0.3210993,1.542167,-0.1164643,0.1776993,1.545305,-0.02477358,-0.3149179,1.50995,-0.1607789,-0.07025129,1.541928,0.3575379,0.05320501,1.413549,NA,NA,NotTracked,NotTracked,
