ALX,ALY,ALZ,ARX,ARY,ARZ,EMG0L,EMG1L,EMG2L,EMG3L,EMG4L,EMG5L,EMG6L,EMG7L,EMG0R,EMG1R,EMG2R,EMG3R,EMG4R,EMG5R,EMG6R,EMG7R,GLX,GLY,GLZ,GRX,GRY,GRZ,ORL,OPL,OYL,ORR,OPR,OYR,LHNX,LHNY,LHNZ,RHNX,RHNY,RHNZ,HX,HY,HZ,LTX,LTY,LTZ,RTX,RTY,RTZ,SpineMidX,SpineMidY,SpineMidZ,SpineBaseX,SpineBaseY,SpineBaseZ,ShoulderLeftX,ShoulderLeftY,ShoulderLeftZ,ShoulderRightX,ShoulderRightY,ShoulderRightZ,ElbowLeftX,ElbowLeftY,ElbowLeftZ,ElbowRightX,ElbowRightY,ElbowRightZ,Myo_Pose_left,Myo_Pose_Right,Kinect_pose_left,Kinect_pose_right
0.8916016,-0.3828125,-0.009277344,-0.5576172,0.2836914,0.05273438,1,0,1,0,-3,1,1,0,-17,-3,-3,-1,-9,-9,-3,-9,6,6,6,63.125,63.125,63.125,2.404905,3.181618,2.593184,7.777878,6.717333,8.006944,-0.1581292,-0.3731116,1.453783,0.1797303,0.333858,1.364738,0.06847103,0.4364325,1.522524,-0.1070446,-0.3700803,1.429522,0.1784193,0.3331548,1.306629,0.05527773,-0.01879716,1.552212,0.05394123,-0.3364283,1.535877,-0.1159274,0.1704698,1.538705,-0.03224181,-0.3269533,1.499807,-0.1705155,-0.07922748,1.547398,0.3552729,0.02567804,1.383387,NA,NA,NotTracked,Unknown,
0.9082031,-0.4375,-0.01025391,-0.5244141,0.2446289,-0.09228516,1,1,-1,0,1,0,-1,-1,-2,-3,-1,-5,3,10,4,2,6.4375,6.4375,6.4375,22.3125,22.3125,22.3125,2.404111,3.176265,2.604341,8.226918,6.828252,8.432561,-0.1577111,-0.3734245,1.455398,0.162775,0.3583087,1.397121,0.06887019,0.4354203,1.522342,-0.1067685,-0.3671874,1.429938,0.1880971,0.3584782,1.336922,0.05521569,-0.01860882,1.552067,0.05355446,-0.335747,1.535464,-0.1146483,0.1703874,1.538918,-0.03267458,-0.3262194,1.49955,-0.1705704,-0.07872449,1.547711,0.3602948,0.09751198,1.337312,NA,NA,NotTracked,Unknown,
0.9326172,-0.4775391,-0.01269531,-0.3081055,0.3481445,-0.4931641,-2,1,-1,1,15,3,-2,0,9,-2,-3,-1,1,-1,1,4,3.25,3.25,3.25,33.1875,33.1875,33.1875,2.408286,3.177392,2.610786,8.534771,6.852127,8.722821,-0.1574653,-0.3730471,1.456772,0.1571406,0.3648007,1.405676,0.06889355,0.4347592,1.522432,-0.1094925,-0.3777878,1.428556,0.1047959,0.3232867,1.446974,0.05515545,-0.01830229,1.551859,0.05309453,-0.3351617,1.535051,-0.1138916,0.1703995,1.539131,-0.03312834,-0.3255791,1.499402,-0.1706296,-0.0779887,1.548514,0.361569,0.09934182,1.337257,NA,NA,NotTracked,Unknown,
0.9296875,-0.7109375,-0.03564453,-0.9042969,0.2568359,-0.2626953,1,0,1,5,10,9,2,5,-2,-2,-1,-2,0,0,1,5,69.625,69.625,69.625,-4.4375,-4.4375,-4.4375,2.484665,3.221597,2.590464,8.66016,6.853577,8.863329,-0.1568914,-0.36888,1.453948,0.1356025,0.3881153,1.409861,0.0689176,0.4344019,1.522607,-0.1081085,-0.3539132,1.431919,0.1159249,0.3380843,1.447717,0.05524427,-0.01824351,1.551855,0.05293287,-0.3345818,1.534511,-0.1133784,0.1704223,1.539432,-0.03330682,-0.3250493,1.499069,-0.1706045,-0.07690687,1.549789,0.3628189,0.1007939,1.337166,NA,NA,NotTracked,Unknown,
1.344238,-1.097168,0.3432617,-0.9716797,0.3515625,-0.3012695,1,-1,-2,-4,-16,-8,-2,1,-10,3,1,-2,-1,-3,-2,-29,53.5,53.5,53.5,19,19,19,2.88581,3.540788,2.319407,8.65119,6.857042,8.829027,-0.150985,-0.344119,1.421663,0.1418538,0.3872575,1.407854,0.06895085,0.4341142,1.522538,-0.1341996,-0.3823718,1.443187,0.09842239,0.3359169,1.433069,0.05519084,-0.01788228,1.551412,0.05284666,-0.334074,1.533801,-0.1127084,0.170582,1.539477,-0.03345168,-0.3246,1.498554,-0.1719413,-0.07386271,1.55363,0.3649678,0.1069589,1.336012,NA,NA,NotTracked,Unknown,
0.6621094,-1.114258,0.512207,-0.7924805,0.2910156,-0.1230469,2,3,6,-1,13,1,-3,1,-19,-6,-5,-3,0,-2,-6,-11,101.6875,101.6875,101.6875,-8.875,-8.875,-8.875,3.181437,4.309302,2.126042,8.620233,6.849247,8.782874,-0.1467414,-0.262154,1.334668,0.1704992,0.3760129,1.400226,0.06911731,0.4339813,1.522572,-0.112797,-0.3182265,1.416333,0.1076393,0.3267207,1.4465,0.05521609,-0.01750762,1.550973,0.05318273,-0.3334931,1.533208,-0.1115984,0.1712542,1.539913,-0.03322605,-0.3240541,1.498052,-0.1732489,-0.05234031,1.566844,0.3675077,0.1080462,1.337201,NA,NA,Unknown,Unknown,
0.1992188,-0.5224609,0.2944336,-0.7924805,0.2910156,-0.1230469,-2,-3,-4,-1,5,0,-11,-4,-3,-8,-8,-4,-6,-5,-9,-20,86.9375,86.9375,86.9375,-8.875,-8.875,-8.875,3.345765,4.962421,2.099892,8.620233,6.849247,8.782874,-0.1365739,-0.1138003,1.259628,0.1464198,0.396897,1.402104,0.06870607,0.4339376,1.522752,-0.1318431,-0.0766391,1.25525,0.1004486,0.3460353,1.430021,0.05539218,-0.01703171,1.550771,0.05354451,-0.3322286,1.532939,-0.1109693,0.1737931,1.540619,-0.0330073,-0.3227346,1.497903,-0.1824317,-0.03811889,1.57813,0.3687038,0.1019391,1.346361,NA,NA,Closed,Unknown,
0.1743164,-0.1953125,0.1811523,-0.418457,0.1708984,0.05175781,-3,-2,2,-2,0,-2,-10,-6,1,-2,0,10,0,-4,-5,-7,46.5,46.5,46.5,-68.1875,-68.1875,-68.1875,3.439917,5.458567,2.053788,8.417282,6.81215,8.66718,-0.1389082,0.02802334,1.259581,0.1821266,0.3286904,1.344353,0.06650853,0.4338745,1.523058,-0.1526093,0.009882223,1.2358,0.179324,0.2926741,1.403667,0.05537975,-0.01675189,1.550611,0.05355972,-0.3319747,1.532895,-0.1113108,0.1744194,1.539472,-0.03309613,-0.322412,1.497787,-0.1567225,-0.05137573,1.483924,0.368392,0.04847604,1.38158,NA,NA,Closed,Unknown,
-0.1489258,-0.2197266,0.2299805,-0.4472656,0.04052734,0.06787109,1,1,1,-1,4,8,11,2,-9,-3,-1,-20,1,-2,-4,-5,-60.3125,-60.3125,-60.3125,-79.9375,-79.9375,-79.9375,3.374901,5.753764,1.949031,7.775175,6.564721,8.236307,-0.1307934,0.09585663,1.278052,0.1623556,0.2416709,1.316598,0.06278653,0.4349082,1.523863,-0.1091193,0.09973627,1.217857,0.1402522,0.2505111,1.348692,0.05563326,-0.01648004,1.550255,0.05372398,-0.3322449,1.53275,-0.107033,0.1794993,1.536733,-0.03280244,-0.3230468,1.498446,-0.1632058,-0.04252836,1.489165,0.3477296,-0.0005472591,1.414909,NA,NA,Closed,Closed,
-0.2856445,-0.3989258,0.215332,-0.5766602,0.543457,0.1186523,-1,-1,0,1,9,10,-8,0,-4,-3,-2,-1,-3,-1,-12,-23,-77.1875,-77.1875,-77.1875,-65.5625,-65.5625,-65.5625,3.227307,5.664903,1.909539,7.307703,6.055815,7.823936,-0.1145527,0.0896439,1.281225,0.1365522,0.1145986,1.311642,0.06136907,0.4356628,1.525103,-0.1365029,0.06474499,1.249351,0.09569594,0.1233794,1.356,0.05563652,-0.01780159,1.549911,0.05540609,-0.3370283,1.532412,-0.1099025,0.1808658,1.536099,-0.03029945,-0.3294206,1.501701,-0.1686456,-0.03864273,1.477602,0.3302636,-0.05077169,1.465321,NA,NA,Closed,Unknown,
-0.2558594,-0.7431641,0.1328125,-0.4350586,0.9794922,-0.1298828,-1,1,1,-4,3,9,-19,-8,-8,-9,-8,-18,-4,6,2,-1,-41,-41,-41,22.6875,22.6875,22.6875,3.130957,5.322702,1.912001,7.177445,5.537771,7.561569,-0.1069693,0.01811828,1.263643,0.1355373,-0.02655743,1.286768,0.06189682,0.4361066,1.526238,-0.127887,0.00678229,1.22356,0.07258494,-0.03230093,1.321429,0.0557415,-0.01812628,1.550124,0.05587704,-0.3370596,1.53217,-0.1117215,0.1802332,1.536432,-0.02839963,-0.3293653,1.499159,-0.1637035,-0.05164861,1.4587,0.3337017,-0.06342098,1.474885,NA,NA,Unknown,Open,
0.3144531,-1.158203,0.534668,0.4555664,1.753418,0.1259766,0,0,-1,6,4,0,7,3,-5,-3,-2,-10,4,-2,-4,-8,-24.375,-24.375,-24.375,-63.4375,-63.4375,-63.4375,3.091078,4.92185,1.916405,7.163029,4.754462,7.302232,-0.1082413,-0.06609075,1.233544,0.1537725,-0.1168804,1.250515,0.06306904,0.4362364,1.527586,-0.1279203,-0.0814813,1.186923,0.0937992,-0.119234,1.255,0.05623009,-0.01862557,1.550251,0.05655431,-0.3372894,1.531508,-0.1120045,0.1794171,1.537055,-0.02739343,-0.3294616,1.497095,-0.1862849,-0.0391737,1.518964,0.3218631,-0.06289066,1.477242,NA,NA,Unknown,Unknown,
0.3168945,-1.321289,0.5493164,0.5444336,1.316406,0.4091797,1,-1,1,6,1,8,13,11,28,4,1,8,1,6,4,8,58.125,58.125,58.125,-33.125,-33.125,-33.125,3.108283,4.673997,1.929593,7.066562,4.546131,7.23209,-0.1115986,-0.1159881,1.231487,0.1656547,-0.144578,1.243983,0.06461456,0.4364733,1.529261,-0.1354591,-0.1523743,1.166833,0.1100683,-0.142715,1.248,0.05640341,-0.0188049,1.550384,0.05665321,-0.337303,1.531129,-0.1124377,0.1783304,1.537854,-0.02726933,-0.3292915,1.496452,-0.2103256,-0.04235819,1.50554,0.3171554,-0.06027742,1.489732,NA,NA,Unknown,Unknown,
0.1201172,-0.9570313,0.3710938,0.4448242,1.285156,0.3066406,-2,0,1,-1,-13,-8,-12,-8,21,9,0,-11,-9,-4,4,4,8.6875,8.6875,8.6875,3,3,3,3.157999,4.661941,1.931338,7.075566,4.51924,7.212358,-0.1081444,-0.1229919,1.234312,0.1715707,-0.1424067,1.259102,0.06570441,0.4368448,1.529593,-0.1358836,-0.1603382,1.170667,0.1146243,-0.1437993,1.2492,0.05656667,-0.01892298,1.550321,0.05662686,-0.3372677,1.530878,-0.1128902,0.1774141,1.538018,-0.02732366,-0.329126,1.496082,-0.2082432,-0.04202794,1.508352,0.3103145,-0.05966555,1.492789,NA,NA,Unknown,Unknown,
0.1767578,-0.9018555,0.3955078,0.1342773,0.8554688,0.2460938,-2,-3,-3,-8,-2,0,-3,-3,-3,8,1,-19,1,14,2,6,4.25,4.25,4.25,-24.625,-24.625,-24.625,3.150711,4.687061,1.933769,7.072244,4.546736,7.183379,-0.104564,-0.1179793,1.236927,0.1775925,-0.1367055,1.263532,0.06662761,0.4369582,1.529296,-0.0557689,-0.105335,1.24178,0.1227324,-0.1346512,1.243636,0.05666962,-0.01892763,1.550294,0.05659201,-0.3371672,1.530557,-0.1131618,0.1769581,1.538052,-0.02743159,-0.3288921,1.495663,-0.1998461,-0.04741261,1.498224,0.3184112,-0.04982209,1.512275,NA,NA,Unknown,Unknown,
0.2333984,-0.949707,0.425293,0.2680664,0.9379883,0.265625,-1,-1,-1,3,-4,-9,-1,0,3,2,0,1,0,-2,-3,-3,-5.3125,-5.3125,-5.3125,15.3125,15.3125,15.3125,3.148361,4.693589,1.937093,7.087063,4.576239,7.164245,-0.1080017,-0.1184972,1.23446,0.1806712,-0.1355476,1.251032,0.06730653,0.4370752,1.529039,-0.05879554,-0.1011872,1.233,0.1218045,-0.134634,1.245659,0.05673828,-0.01897878,1.550266,0.05657655,-0.3371454,1.530349,-0.1137987,0.1763132,1.537337,-0.02751314,-0.3287361,1.495181,-0.1967586,-0.04969312,1.493647,0.3107291,-0.0558192,1.499572,NA,NA,Unknown,Unknown,
0.2265625,-0.9140625,0.4384766,0.3369141,0.9433594,0.2709961,-3,-3,-1,-4,-3,-5,12,-9,17,7,4,8,1,5,5,5,3.9375,3.9375,3.9375,-5.75,-5.75,-5.75,3.153713,4.698806,1.939201,7.08557,4.576242,7.157543,-0.1061089,-0.1151722,1.23625,0.1849408,-0.1350045,1.251319,0.06783479,0.4369906,1.528997,-0.05866042,-0.1013426,1.235341,0.1203655,-0.1338878,1.244816,0.05681783,-0.01905374,1.550258,0.05659932,-0.337184,1.530172,-0.1138787,0.1758431,1.537437,-0.02751832,-0.3286907,1.494887,-0.1987891,-0.04247357,1.506301,0.3098457,-0.05646135,1.498642,NA,NA,Unknown,Unknown,
0.199707,-0.902832,0.4248047,0.315918,0.9267578,0.2626953,-2,-3,-1,-1,-5,-11,-16,-9,-10,-3,-2,1,5,19,-3,-3,0.4375,0.4375,0.4375,-7.125,-7.125,-7.125,3.159879,4.707444,1.941149,7.077305,4.578358,7.155777,-0.106592,-0.1134928,1.23296,0.1867435,-0.1331339,1.250728,0.06819367,0.4372081,1.529063,-0.057973,-0.09858427,1.236014,0.1286788,-0.1251079,1.2398,0.05688905,-0.01909384,1.550251,0.05664466,-0.3372311,1.530052,-0.1138326,0.1756671,1.537421,-0.02749941,-0.328699,1.494774,-0.1988013,-0.04527375,1.501383,0.3093537,-0.0567985,1.498053,NA,NA,Unknown,Unknown,
0.1938477,-0.90625,0.4204102,0.2578125,0.8999023,0.2412109,-1,-1,-1,-6,-1,-5,-19,-6,1,-2,-1,-5,-2,4,-1,-3,-1.1875,-1.1875,-1.1875,-4.6875,-4.6875,-4.6875,3.164282,4.707704,1.944353,7.065445,4.588027,7.148561,-0.1066854,-0.1135681,1.23495,0.1885809,-0.1322674,1.24989,0.06845648,0.4372507,1.528999,-0.06009304,-0.09499013,1.233564,0.1288183,-0.1218267,1.24575,0.0569848,-0.01912421,1.550144,0.05672127,-0.3372094,1.529781,-0.1138331,0.1756149,1.537443,-0.02744645,-0.3285698,1.494265,-0.1983839,-0.04606932,1.499008,0.3094941,-0.05726759,1.496402,NA,NA,Unknown,Unknown,
0.1938477,-0.9267578,0.4223633,0.284668,0.8979492,0.2485352,-2,-1,-2,-6,-1,-2,3,-5,2,-1,-4,0,-7,-6,-2,-4,0.8125,0.8125,0.8125,0.9375,0.9375,0.9375,3.165381,4.701521,1.945194,7.063649,4.585684,7.143912,-0.1078175,-0.114157,1.233613,0.1904123,-0.1326763,1.250654,0.06863989,0.4373065,1.528951,-0.05800669,-0.09902993,1.234956,0.1333187,-0.1227072,1.233829,0.05703415,-0.01915759,1.550066,0.05679776,-0.3372309,1.529478,-0.1138358,0.1754598,1.537429,-0.02739117,-0.3285478,1.493904,-0.2009547,-0.04382962,1.502638,0.3096989,-0.05769654,1.495717,NA,NA,Unknown,Unknown,
0.1870117,-0.9326172,0.4174805,0.2817383,0.9350586,0.2558594,-1,-4,-4,-3,-10,-8,-9,-3,-2,-5,-6,-6,-8,-2,5,12,0.8125,0.8125,0.8125,1.5,1.5,1.5,3.167459,4.697037,1.947417,7.071423,4.58089,7.142129,-0.1069277,-0.1140872,1.234071,0.1900173,-0.1338859,1.25343,0.06887736,0.4374563,1.528913,-0.05833638,-0.09881213,1.232362,0.1304436,-0.1253019,1.236613,0.0572158,-0.01926002,1.549924,0.05687753,-0.3372675,1.529232,-0.1143238,0.1749342,1.536949,-0.02732562,-0.328576,1.493622,-0.2035609,-0.040115,1.510542,0.3102379,-0.05692674,1.496588,NA,NA,Unknown,Unknown,
0.1977539,-0.9394531,0.4331055,0.2700195,0.9169922,0.2646484,2,0,1,0,0,7,17,9,-10,-2,0,5,1,-9,-2,-8,0.25,0.25,0.25,1.9375,1.9375,1.9375,3.168613,4.694893,1.952451,7.067585,4.570876,7.144711,-0.1059078,-0.1150935,1.234519,0.1902905,-0.1348493,1.250925,0.06904752,0.4375263,1.528802,-0.05787833,-0.09935569,1.235571,0.1307237,-0.126054,1.238087,0.0573832,-0.01932455,1.549643,0.05694274,-0.3373107,1.528936,-0.1146748,0.1746254,1.536562,-0.0272851,-0.3285942,1.493338,-0.1986123,-0.04508082,1.502205,0.3103516,-0.05673312,1.496796,NA,NA,Unknown,Unknown,
0.1962891,-0.909668,0.421875,0.2788086,0.9467773,0.2626953,1,2,0,4,10,11,10,2,-7,1,-1,2,3,-1,-5,-6,0.1875,0.1875,0.1875,0.75,0.75,0.75,3.171768,4.69435,1.954604,7.071736,4.56748,7.145788,-0.1080827,-0.1160089,1.232384,0.1901496,-0.1355872,1.252739,0.06923354,0.4376678,1.528521,-0.05609925,-0.1001635,1.230203,0.1308913,-0.1285843,1.232443,0.0574686,-0.01939056,1.549413,0.05695948,-0.3373482,1.528609,-0.1146332,0.1745731,1.536602,-0.02730064,-0.3285877,1.492899,-0.2037547,-0.03975558,1.510111,0.3101327,-0.05720527,1.496375,NA,NA,Unknown,Unknown,
0.2001953,-0.9257813,0.4248047,0.2753906,0.9345703,0.2607422,-2,-1,0,2,-5,2,0,0,-21,-9,-5,-7,2,-5,-5,-14,0.375,0.375,0.375,-0.625,-0.625,-0.625,3.168421,4.692898,1.957793,7.069661,4.56717,7.146903,-0.1081111,-0.1156322,1.233451,0.1897433,-0.1340854,1.254174,0.0693339,0.4377541,1.528376,-0.05800547,-0.09895187,1.233578,0.1314172,-0.1263781,1.234837,0.05757033,-0.01941914,1.549257,0.0570482,-0.3373522,1.528436,-0.1145919,0.1744943,1.53664,-0.02721538,-0.3285625,1.492686,-0.2018886,-0.0416832,1.507111,0.3106479,-0.05680045,1.497131,NA,NA,Unknown,Unknown,
0.1958008,-0.9199219,0.4194336,0.269043,0.9223633,0.2470703,-1,-1,-3,-1,-7,-2,-9,-1,5,-3,-2,-10,-2,2,2,8,-1.375,-1.375,-1.375,-1.25,-1.25,-1.25,3.169383,4.691943,1.959236,7.067482,4.56927,7.146926,-0.1081421,-0.1159004,1.234118,0.1890912,-0.1355547,1.258893,0.06941963,0.4378276,1.528311,-0.05800083,-0.09890599,1.233573,0.1305816,-0.1277194,1.234292,0.05765125,-0.01939606,1.549167,0.05712606,-0.3373345,1.528343,-0.1145136,0.1744242,1.536647,-0.02714414,-0.3285267,1.492587,-0.1988263,-0.04698569,1.496323,0.3120298,-0.05662016,1.496821,NA,NA,Unknown,Unknown,
0.2109375,-0.9375,0.4404297,0.2763672,0.9287109,0.2451172,-1,0,-1,-3,-2,4,10,-1,-3,-4,-3,0,-3,-2,-2,-3,2.1875,2.1875,2.1875,-0.375,-0.375,-0.375,3.171284,4.691602,1.958851,7.068337,4.570892,7.146823,-0.1055336,-0.114287,1.235994,0.1893246,-0.1345879,1.259334,0.06948714,0.4379297,1.52827,-0.05745561,-0.09739425,1.237875,0.1304845,-0.1271061,1.238927,0.05772717,-0.01940339,1.549117,0.05716155,-0.337332,1.528291,-0.1145186,0.1744034,1.536721,-0.0271172,-0.3285179,1.492551,-0.205648,-0.0428573,1.507664,0.3223378,-0.05158253,1.510059,NA,NA,Unknown,Unknown,
0.1899414,-0.9204102,0.4355469,0.2856445,0.9277344,0.2558594,-2,1,-1,-2,-6,2,10,3,-8,-1,0,-2,1,7,3,4,-4.6875,-4.6875,-4.6875,-0.375,-0.375,-0.375,3.172704,4.693623,1.955899,7.068311,4.57056,7.147261,-0.1071808,-0.1134786,1.239152,0.1900233,-0.1332832,1.253151,0.06951457,0.4379739,1.528167,-0.0572581,-0.09893093,1.234343,0.1296951,-0.1276906,1.23746,0.05775755,-0.0194353,1.549058,0.05721775,-0.337358,1.528228,-0.1147762,0.1741602,1.536375,-0.02707489,-0.3285347,1.492499,-0.2108759,-0.03538569,1.523401,0.3249526,-0.05163712,1.510676,NA,NA,Unknown,Unknown,
0.1801758,-0.9233398,0.4169922,0.2578125,0.9077148,0.2592773,-3,0,-3,-4,2,-5,-19,-7,-6,-10,-6,-1,-2,-5,-3,-4,4.25,4.25,4.25,-1.125,-1.125,-1.125,3.173857,4.698022,1.955056,7.064086,4.571453,7.14845,-0.1050179,-0.1123642,1.23735,0.1892867,-0.1340226,1.260287,0.0695273,0.4379971,1.528098,-0.05614098,-0.09799013,1.236629,0.1295148,-0.1281145,1.235486,0.05777228,-0.01944445,1.548983,0.05725519,-0.3373445,1.528167,-0.1147536,0.1741697,1.536424,-0.02705084,-0.3285247,1.492482,-0.2013247,-0.04576642,1.502247,0.3230835,-0.05101555,1.511508,NA,NA,Unknown,Unknown,
0.1928711,-0.9272461,0.4272461,0.2753906,0.9125977,0.2612305,-3,-2,-2,-5,-7,-4,11,0,-14,0,1,2,1,-1,0,0,-2,-2,-2,-2.5625,-2.5625,-2.5625,3.17519,4.698329,1.956069,7.064506,4.573134,7.14813,-0.1068179,-0.1124988,1.236897,0.1870169,-0.1330189,1.258751,0.06953315,0.4379976,1.527793,-0.05588803,-0.09716585,1.233974,0.1285217,-0.127926,1.237839,0.05776321,-0.01946,1.548936,0.05724856,-0.3373664,1.52806,-0.1147643,0.1741574,1.536536,-0.02705711,-0.3285298,1.492413,-0.2016423,-0.04463227,1.502623,0.3206109,-0.05082879,1.511301,NA,NA,Unknown,Unknown,
0.2138672,-0.9228516,0.4306641,0.2646484,0.9311523,0.2666016,-1,-2,0,-1,0,1,-5,-2,4,3,1,-1,-2,-6,-4,-3,1.875,1.875,1.875,1.6875,1.6875,1.6875,3.177968,4.697862,1.955526,7.065242,4.573468,7.148402,-0.1047744,-0.1118575,1.237604,0.1889663,-0.1333805,1.259466,0.06948523,0.438041,1.527671,-0.05046215,-0.09769618,1.2418,0.1293057,-0.1267722,1.238285,0.05774323,-0.01950826,1.548883,0.05724367,-0.3373923,1.528004,-0.1147806,0.1740815,1.536624,-0.02706344,-0.3285483,1.492382,-0.2048674,-0.04137036,1.508762,0.3233622,-0.04999168,1.514421,NA,NA,Unknown,Unknown,
0.1777344,-0.9296875,0.4248047,0.2651367,0.9204102,0.2666016,1,-2,-2,-2,-2,-1,-1,-2,-10,-6,-3,-3,-1,0,-1,-1,-3.0625,-3.0625,-3.0625,0.875,0.875,0.875,3.177693,4.700969,1.95242,7.063591,4.575698,7.150526,-0.1044177,-0.1118929,1.235326,0.1857529,-0.13164,1.25847,0.0695059,0.4380452,1.527607,-0.05355392,-0.09619258,1.239535,0.127975,-0.126427,1.238759,0.0577153,-0.0195218,1.548856,0.05724943,-0.3374015,1.528005,-0.1148059,0.1739949,1.536754,-0.02705887,-0.3285599,1.492375,-0.2009819,-0.04602505,1.500749,0.3226193,-0.05018531,1.514586,NA,NA,Unknown,Unknown,
0.1884766,-0.9223633,0.434082,0.2666016,0.9306641,0.2563477,0,0,0,-3,2,4,17,5,-2,1,-1,-4,-5,-2,0,1,3.8125,3.8125,3.8125,-0.0625,-0.0625,-0.0625,3.181655,4.70211,1.953871,7.066784,4.579543,7.149737,-0.104222,-0.1104758,1.236626,0.1871441,-0.1316197,1.256705,0.06950732,0.4380173,1.52753,-0.05258221,-0.09409547,1.229648,0.1282165,-0.1251309,1.238428,0.05768275,-0.01953821,1.548827,0.05724502,-0.3374088,1.527957,-0.1147662,0.1739444,1.536864,-0.02707159,-0.3285699,1.492313,-0.1996775,-0.04925733,1.494812,0.3212998,-0.05056558,1.513695,NA,NA,Unknown,Unknown,
0.1772461,-0.9233398,0.4194336,0.2602539,0.9301758,0.2646484,1,0,0,4,8,-7,-8,-2,2,-6,-3,-4,1,6,-4,-6,-0.875,-0.875,-0.875,0.5625,0.5625,0.5625,3.183347,4.703532,1.95561,7.06516,4.583702,7.148423,-0.1020781,-0.1099418,1.236998,0.187427,-0.131867,1.256119,0.06949612,0.4380423,1.527461,-0.04856126,-0.09564307,1.245625,0.1295518,-0.1256747,1.236923,0.05771022,-0.0195995,1.54882,0.05727026,-0.3374553,1.527923,-0.1150642,0.173738,1.536636,-0.02705571,-0.3286078,1.492277,-0.1999848,-0.04992799,1.494377,0.3108702,-0.0544038,1.501432,NA,NA,Unknown,Unknown,
0.1826172,-0.9223633,0.4243164,0.2626953,0.9277344,0.2485352,0,-1,-2,-4,-3,-3,-24,-6,-16,-2,3,0,-2,-1,2,-6,-2.3125,-2.3125,-2.3125,1.3125,1.3125,1.3125,3.180753,4.700955,1.954798,7.067088,4.585591,7.148032,-0.103538,-0.1096792,1.238512,0.1884969,-0.1331816,1.254089,0.06950191,0.4379871,1.527346,-0.0536761,-0.09353572,1.239197,0.1300864,-0.1215792,1.23475,0.05771733,-0.01964434,1.548841,0.05727777,-0.3374634,1.527918,-0.1150804,0.1736596,1.536832,-0.02704899,-0.3286126,1.492273,-0.2002358,-0.04907259,1.496773,0.3096441,-0.05568378,1.499122,NA,NA,Unknown,Unknown,
0.1894531,-0.9360352,0.4301758,0.262207,0.9257813,0.2578125,2,-3,-1,2,-1,1,4,2,-17,-7,-3,7,-2,-4,-3,-2,-3.125,-3.125,-3.125,2.25,2.25,2.25,3.175639,4.698593,1.953598,7.070394,4.587607,7.150143,-0.1035075,-0.1101144,1.237542,0.1877862,-0.1314125,1.255579,0.06949831,0.4379868,1.527352,-0.05140762,-0.0949533,1.237085,0.1349339,-0.1189362,1.229187,0.05771363,-0.01968726,1.548917,0.05728869,-0.3374754,1.527924,-0.1150384,0.1735454,1.537277,-0.02703718,-0.3286228,1.492286,-0.1995688,-0.05165507,1.491189,0.3085852,-0.05586876,1.499025,NA,NA,Unknown,Unknown,
0.1826172,-0.9233398,0.4238281,0.2631836,0.9394531,0.2514648,-1,-3,1,-4,-1,4,14,4,-11,-11,-2,-2,1,3,-1,-1,-0.8125,-0.8125,-0.8125,1.3125,1.3125,1.3125,3.17468,4.698359,1.95604,7.074096,4.589215,7.152219,-0.1047309,-0.1105167,1.241028,0.1883799,-0.1294729,1.255152,0.06950712,0.4379763,1.527341,-0.05961569,-0.09394771,1.213,0.1220528,-0.1227429,1.252439,0.0577041,-0.01970095,1.548936,0.05729305,-0.3374787,1.527916,-0.1152488,0.1734639,1.537073,-0.02703575,-0.3286241,1.492285,-0.1778357,-0.07249638,1.475269,0.3133967,-0.0528399,1.504421,NA,NA,Unknown,Unknown,
0.1899414,-0.934082,0.4238281,0.2597656,0.9355469,0.2504883,1,2,3,4,3,-1,-18,-4,-10,-9,-3,-12,-2,-2,-5,-1,-2,-2,-2,2.6875,2.6875,2.6875,3.169559,4.69846,1.960895,7.079161,4.59265,7.153577,-0.1043529,-0.1094206,1.238589,0.1847723,-0.1279617,1.254907,0.06952249,0.4379945,1.527508,-0.05440155,-0.09019034,1.24087,0.1259269,-0.1218086,1.242783,0.05771355,-0.01970848,1.549048,0.05728314,-0.3374669,1.527929,-0.1152006,0.17355,1.537533,-0.02704764,-0.3286113,1.492298,-0.1769793,-0.07383294,1.474442,0.3101076,-0.05623791,1.495674,NA,NA,Unknown,Unknown,
0.1889648,-0.9267578,0.4155273,0.2485352,0.9238281,0.2456055,-1,0,-2,-3,-3,-6,-20,-7,-4,-2,-2,-1,-2,1,0,-7,-4.875,-4.875,-4.875,2,2,2,3.164165,4.698337,1.962464,7.080962,4.594881,7.154412,-0.1037209,-0.1086687,1.23914,0.1862881,-0.1272217,1.260182,0.06955075,0.4379999,1.527701,-0.05431945,-0.09232698,1.235353,0.1282823,-0.119727,1.243176,0.05764303,-0.01972497,1.549181,0.05730895,-0.337487,1.527949,-0.1151707,0.1734857,1.537762,-0.0270275,-0.3286222,1.492314,-0.1911813,-0.06050937,1.479906,0.3101145,-0.05602105,1.495258,NA,NA,Unknown,Unknown,
0.1865234,-0.9174805,0.4160156,0.2514648,0.9355469,0.2485352,-2,-2,-2,-3,-8,-6,1,0,4,0,-2,-1,0,3,6,9,-2.625,-2.625,-2.625,1.25,1.25,1.25,3.159448,4.698487,1.964793,7.085916,4.596055,7.153041,-0.1032908,-0.1075358,1.239376,0.1876794,-0.1271767,1.260097,0.06967163,0.4378981,1.528113,-0.05317241,-0.09196514,1.244454,0.1260399,-0.1218041,1.245932,0.05771003,-0.01978279,1.549345,0.0573413,-0.3374916,1.528,-0.1151295,0.1734742,1.538002,-0.0269927,-0.3286214,1.492396,-0.2095828,-0.04308742,1.508042,0.3108106,-0.0547018,1.496767,NA,NA,Unknown,Unknown,
0.1918945,-0.9267578,0.421875,0.2568359,0.9282227,0.2524414,-3,-1,-4,-3,-10,-10,-6,-4,9,1,2,11,5,1,2,0,-2.625,-2.625,-2.625,2.25,2.25,2.25,3.156429,4.697499,1.969153,7.086881,4.595591,7.152897,-0.103613,-0.1070858,1.238517,0.1884755,-0.1270328,1.259194,0.06974561,0.4378559,1.528282,-0.05272183,-0.09190867,1.246089,0.1295632,-0.1216273,1.229,0.05780224,-0.01980906,1.549589,0.05734753,-0.3374812,1.52811,-0.1150491,0.1735735,1.538095,-0.02697723,-0.3285777,1.492593,-0.2016459,-0.04876872,1.492246,0.3107416,-0.05471403,1.496435,NA,NA,Unknown,Unknown,
0.1855469,-0.9223633,0.4194336,0.2553711,0.9301758,0.2524414,0,-2,0,3,2,1,6,1,-9,-2,-1,-2,-7,-2,-2,-1,-0.0625,-0.0625,-0.0625,1.9375,1.9375,1.9375,3.157068,4.695293,1.972183,7.091172,4.595428,7.15405,-0.105083,-0.1077592,1.241911,0.1877643,-0.1244898,1.258018,0.06985547,0.4377887,1.528999,-0.0509834,-0.09359103,1.243956,0.1288037,-0.1185835,1.247549,0.05787832,-0.01982389,1.550296,0.05740859,-0.3374909,1.528384,-0.1152882,0.1735854,1.538098,-0.02693075,-0.3285936,1.492861,-0.2013285,-0.04868292,1.49168,0.3218846,-0.04979666,1.512244,NA,NA,Unknown,Unknown,
0.2011719,-0.9287109,0.4228516,0.2617188,0.9248047,0.2504883,0,-1,1,0,0,4,0,0,-8,-1,-1,-4,-6,-7,-5,-3,0.125,0.125,0.125,1.6875,1.6875,1.6875,3.157884,4.691177,1.97521,7.093662,4.593825,7.154558,-0.1056259,-0.1080189,1.238826,0.1898427,-0.1248788,1.257162,0.06992228,0.4377063,1.52938,-0.0551145,-0.09213318,1.239344,0.1256209,-0.1209209,1.247497,0.05787489,-0.01982798,1.55048,0.05745493,-0.3374681,1.528536,-0.1152625,0.1737088,1.538305,-0.02688858,-0.3285794,1.492955,-0.2027069,-0.04718391,1.494539,0.3148904,-0.05116724,1.502762,NA,NA,Unknown,Unknown,
0.1923828,-0.9272461,0.4155273,0.2475586,0.9189453,0.2451172,0,-3,1,6,12,-1,-13,-4,-5,-7,-3,-3,-11,3,1,-5,0.3125,0.3125,0.3125,1.125,1.125,1.125,3.160425,4.687933,1.978104,7.094704,4.592464,7.155859,-0.1054816,-0.1081973,1.238952,0.1875557,-0.1250561,1.257741,0.06999622,0.437665,1.529992,-0.05494174,-0.09245595,1.238006,0.1285199,-0.1195838,1.245117,0.05786692,-0.01982004,1.550629,0.0574624,-0.3374316,1.528707,-0.1152209,0.1739032,1.538568,-0.02687805,-0.3285035,1.493124,-0.2020241,-0.04725608,1.494007,0.312409,-0.05179938,1.496729,NA,NA,Unknown,Unknown,
0.1826172,-0.9291992,0.4135742,0.2607422,0.9443359,0.246582,-1,0,2,-2,10,7,3,-5,3,1,4,11,4,-2,-1,7,-0.8125,-0.8125,-0.8125,1.125,1.125,1.125,3.1606,4.686029,1.978578,7.097501,4.590463,7.156229,-0.1052862,-0.1082484,1.241202,0.1891398,-0.1247057,1.258523,0.07002088,0.4375944,1.530619,-0.05380898,-0.09260879,1.240726,0.126337,-0.1202937,1.250671,0.05783452,-0.01975028,1.551182,0.05755581,-0.3373454,1.52924,-0.1151037,0.1740562,1.539013,-0.02676169,-0.3283859,1.493685,-0.2020439,-0.04717465,1.494857,0.3111223,-0.05284565,1.494283,NA,NA,Unknown,Unknown,
0.1855469,-0.934082,0.4135742,0.2592773,0.9301758,0.2539063,-1,1,-1,-3,-1,-3,-12,-7,-5,0,-2,-1,13,-1,0,1,0.0625,0.0625,0.0625,1.9375,1.9375,1.9375,3.160772,4.686636,1.979878,7.094994,4.589265,7.157803,-0.1046968,-0.1072823,1.241224,0.1893552,-0.1245644,1.257874,0.07002785,0.4375607,1.531064,-0.05427537,-0.09220068,1.239361,0.1264066,-0.1203305,1.249953,0.05782734,-0.01972627,1.551364,0.05757216,-0.3373104,1.529435,-0.1150013,0.174215,1.539247,-0.02675118,-0.3283565,1.493836,-0.2027855,-0.05000009,1.490576,0.3109273,-0.05277751,1.49404,NA,NA,Unknown,Unknown,
