ALX,ALY,ALZ,ARX,ARY,ARZ,EMG0L,EMG1L,EMG2L,EMG3L,EMG4L,EMG5L,EMG6L,EMG7L,EMG0R,EMG1R,EMG2R,EMG3R,EMG4R,EMG5R,EMG6R,EMG7R,GLX,GLY,GLZ,GRX,GRY,GRZ,ORL,OPL,OYL,ORR,OPR,OYR,LHNX,LHNY,LHNZ,RHNX,RHNY,RHNZ,HX,HY,HZ,LTX,LTY,LTZ,RTX,RTY,RTZ,SpineMidX,SpineMidY,SpineMidZ,SpineBaseX,SpineBaseY,SpineBaseZ,ShoulderLeftX,ShoulderLeftY,ShoulderLeftZ,ShoulderRightX,ShoulderRightY,ShoulderRightZ,ElbowLeftX,ElbowLeftY,ElbowLeftZ,ElbowRightX,ElbowRightY,ElbowRightZ,Myo_Pose_left,Myo_Pose_Right,Kinect_pose_left,Kinect_pose_right
0.8745117,-0.4375,-0.004394531,-0.2836914,0.840332,0.5561523,0,-2,0,0,-1,-3,1,-1,-1,4,1,-3,-7,0,-1,5,-2.0625,-2.0625,-2.0625,-19.4375,-19.4375,-19.4375,2.501088,3.2539,3.572828,6.610251,5.418193,7.684857,-0.1368774,-0.3762385,1.454984,0.2879016,0.2619292,1.084502,0.09289744,0.4397886,1.569384,-0.08840369,-0.363745,1.455305,0.2447069,0.3377576,1.126691,0.08298776,-0.02235384,1.569852,0.08040749,-0.3429507,1.544191,-0.08777735,0.1680868,1.563242,-0.005419929,-0.336675,1.515266,-0.1380378,-0.09976418,1.557459,0.3475236,0.116253,1.325253,NA,NA,NotTracked,Unknown,
0.8793945,-0.4487305,-0.008300781,-0.3071289,0.8173828,0.5273438,0,0,-2,0,-2,-2,0,0,0,-2,0,2,2,5,4,7,-0.375,-0.375,-0.375,-4.6875,-4.6875,-4.6875,2.481433,3.246356,3.59124,6.593279,5.447385,7.695699,-0.137604,-0.376412,1.458472,0.2869672,0.2634187,1.087906,0.09301752,0.4397997,1.569921,-0.1019985,-0.3945701,1.423223,0.2430619,0.3309609,1.115519,0.08297469,-0.02246899,1.570284,0.08039138,-0.3431082,1.544324,-0.08783091,0.1679757,1.563868,-0.00537546,-0.3368464,1.515513,-0.1377845,-0.09992856,1.55836,0.3468626,0.1160161,1.325143,NA,NA,NotTracked,Unknown,
0.8823242,-0.4404297,0,-0.3012695,0.8095703,0.5112305,-1,-2,0,-1,-1,1,1,-1,-7,-3,-1,-1,-3,-5,-5,-8,-0.3125,-0.3125,-0.3125,2.5625,2.5625,2.5625,2.466717,3.239094,3.608886,6.600114,5.481692,7.710591,-0.1371795,-0.3779837,1.460826,0.2847925,0.2674648,1.091351,0.09317365,0.4399267,1.570497,-0.08323814,-0.3423826,1.457429,0.2412279,0.3350442,1.116462,0.08307147,-0.02264519,1.570875,0.08038721,-0.3433482,1.544623,-0.08784524,0.1677627,1.564741,-0.005248775,-0.337097,1.51611,-0.1372136,-0.1001597,1.559616,0.3470117,0.115618,1.325452,NA,NA,NotTracked,Unknown,
0.890625,-0.4487305,0.0004882813,-0.3466797,0.7802734,0.4921875,-1,-1,-1,-2,-3,0,1,-1,3,0,-2,1,7,1,-2,-3,-1.5,-1.5,-1.5,-3,-3,-3,2.455657,3.233085,3.621064,6.601661,5.501448,7.717013,-0.1372918,-0.3778484,1.463617,0.2837642,0.2687266,1.094113,0.09338368,0.4399159,1.571047,-0.08477598,-0.3553611,1.45785,0.2402038,0.3345677,1.118951,0.08316364,-0.02267547,1.571198,0.08038637,-0.3434474,1.544762,-0.0877336,0.16754,1.565352,-0.005227973,-0.3371959,1.516385,-0.1373149,-0.1002599,1.56051,0.3472236,0.1154537,1.325652,NA,NA,NotTracked,Unknown,
0.8798828,-0.4550781,0.0009765625,-0.3212891,0.7817383,0.5073242,2,-1,-1,0,-1,0,-2,-1,-2,-2,-3,-9,0,-4,0,-5,-0.6875,-0.6875,-0.6875,2.125,2.125,2.125,2.451246,3.230338,3.624069,6.603322,5.513244,7.717728,-0.1372576,-0.3782998,1.465228,0.2839022,0.2714968,1.09559,0.09369913,0.4401554,1.572076,-0.08426809,-0.3571849,1.45478,0.2393458,0.3402325,1.125222,0.08322319,-0.02259407,1.571565,0.08035661,-0.3434488,1.544887,-0.08781634,0.1674482,1.566202,-0.005242004,-0.3372103,1.516642,-0.1369925,-0.1007325,1.562057,0.3475306,0.1149476,1.326244,NA,NA,NotTracked,Unknown,
0.8901367,-0.4487305,0,-0.3442383,0.7739258,0.5053711,0,-1,1,-1,0,-1,0,2,-2,-1,-2,-1,-4,-3,-4,-3,0.4375,0.4375,0.4375,0.4375,0.4375,0.4375,2.45187,3.230563,3.623879,6.602989,5.520889,7.719534,-0.137419,-0.3774002,1.467071,0.2844277,0.2718417,1.096905,0.09372758,0.4402848,1.572794,-0.08374202,-0.3418102,1.458795,0.2392982,0.3434515,1.125375,0.08333914,-0.02260152,1.571891,0.08037431,-0.34352,1.545032,-0.08792499,0.1674019,1.566768,-0.005156864,-0.337294,1.5169,-0.1368772,-0.1014539,1.562956,0.3474615,0.1147833,1.326362,NA,NA,NotTracked,Unknown,
0.8852539,-0.4487305,-0.004394531,-0.3393555,0.7890625,0.5029297,0,0,-2,0,-2,0,-1,-2,0,-2,-4,-4,-12,-5,-2,-1,1.0625,1.0625,1.0625,1,1,1,2.461176,3.234979,3.616345,6.60845,5.526006,7.721316,-0.137789,-0.3774334,1.466864,0.2828988,0.2720552,1.097184,0.09378776,0.4402765,1.573662,-0.08478569,-0.3532415,1.455607,0.2395775,0.3385601,1.124148,0.08335351,-0.02278706,1.572367,0.08027917,-0.3437651,1.545331,-0.08795664,0.1671693,1.567362,-0.005148001,-0.3374791,1.517238,-0.13687,-0.1015086,1.563628,0.3480431,0.1154902,1.326625,NA,NA,NotTracked,Unknown,
0.8891602,-0.4477539,-0.004882813,-0.3520508,0.8032227,0.5063477,-1,0,0,-1,-3,-2,-1,-2,5,-2,-2,-2,3,1,0,4,-2.4375,-2.4375,-2.4375,2.6875,2.6875,2.6875,2.466159,3.238795,3.608756,6.610606,5.52844,7.721399,-0.1372696,-0.3777103,1.465914,0.2834224,0.2712539,1.098744,0.0938917,0.4402471,1.574428,-0.08626659,-0.375971,1.456824,0.2402016,0.3375041,1.121967,0.08333794,-0.0229013,1.572697,0.08023795,-0.343875,1.54542,-0.087897,0.1669803,1.567896,-0.005146954,-0.3375802,1.517396,-0.1367814,-0.1014906,1.564197,0.3486967,0.1153176,1.327185,NA,NA,NotTracked,Unknown,
0.878418,-0.440918,-0.004882813,-0.3349609,0.7954102,0.5039063,-1,-1,0,-2,-1,0,-1,0,-6,0,-3,-7,-5,-4,-1,-1,0.0625,0.0625,0.0625,0.25,0.25,0.25,2.472424,3.242364,3.601852,6.608587,5.528727,7.71985,-0.1368168,-0.3769485,1.465731,0.2833574,0.2721001,1.09868,0.09397979,0.4402952,1.57509,-0.08532239,-0.3585314,1.458089,0.2379942,0.332397,1.133111,0.08338519,-0.02287734,1.573032,0.08026075,-0.3439243,1.545583,-0.08778517,0.1669929,1.568465,-0.005086576,-0.3375953,1.517622,-0.1366301,-0.1018242,1.564641,0.3484646,0.1154964,1.327214,NA,NA,NotTracked,Unknown,
0.8798828,-0.434082,-0.008789063,-0.3388672,0.8007813,0.5117188,0,0,-1,1,-2,0,-3,-1,-5,-5,0,-3,-5,-1,-2,-3,-2.5,-2.5,-2.5,1.3125,1.3125,1.3125,2.476429,3.245788,3.595634,6.610063,5.531131,7.718188,-0.1367127,-0.3766978,1.46462,0.2834101,0.2718174,1.098637,0.09403948,0.4403394,1.575368,-0.08350624,-0.3541782,1.455927,0.2394471,0.3345469,1.130356,0.0834445,-0.02283675,1.573232,0.08031256,-0.3439524,1.545672,-0.08778973,0.1670179,1.568828,-0.005004511,-0.3376232,1.517789,-0.1365727,-0.1017675,1.564865,0.3488577,0.1157813,1.327604,NA,NA,NotTracked,Unknown,
0.8886719,-0.4316406,-0.008300781,-0.3540039,0.7900391,0.5102539,-1,-2,-1,1,0,1,0,-2,-2,-7,-2,-5,5,5,2,2,0.875,0.875,0.875,0.875,0.875,0.875,2.477836,3.247643,3.593063,6.609111,5.533403,7.717191,-0.1362921,-0.3760889,1.462881,0.2833951,0.2708199,1.097762,0.09403118,0.440324,1.575578,-0.0844698,-0.3597483,1.456003,0.2344682,0.3421227,1.125528,0.0834418,-0.0228473,1.573278,0.08029462,-0.3439782,1.545685,-0.08775942,0.1670337,1.568871,-0.005025712,-0.337654,1.517832,-0.1365094,-0.1017574,1.564875,0.3491633,0.1157386,1.327878,NA,NA,NotTracked,Unknown,
0.8837891,-0.4399414,-0.008300781,-0.3486328,0.8012695,0.5039063,-1,-3,-1,-3,-1,-4,0,0,-8,-7,-2,-2,2,11,0,-6,-0.4375,-0.4375,-0.4375,-0.375,-0.375,-0.375,2.47481,3.245482,3.592951,6.607994,5.536696,7.71612,-0.1364324,-0.3758353,1.462876,0.2834361,0.2707984,1.098648,0.0941956,0.4403122,1.575815,-0.08441517,-0.3586831,1.456156,0.2358296,0.3309381,1.130695,0.08341328,-0.02283633,1.573465,0.08032317,-0.3440282,1.545737,-0.08777417,0.1668989,1.569024,-0.004998301,-0.3377021,1.517864,-0.1365155,-0.1017769,1.564878,0.3488995,0.1156723,1.327843,NA,NA,NotTracked,Unknown,
0.8837891,-0.4414063,-0.008300781,-0.340332,0.7919922,0.5161133,0,0,0,-1,-2,-1,-1,0,-14,-5,-4,2,7,0,-1,6,-0.4375,-0.4375,-0.4375,-0.5625,-0.5625,-0.5625,2.473574,3.243636,3.594747,6.607404,5.538212,7.715135,-0.1362001,-0.3765054,1.463362,0.2833127,0.2719748,1.09796,0.09428163,0.4402597,1.575978,-0.08311043,-0.3703302,1.452619,0.2385244,0.3354967,1.126841,0.08346145,-0.02287726,1.573542,0.0803332,-0.3441159,1.545779,-0.08774016,0.1668227,1.56909,-0.004973462,-0.3377799,1.517903,-0.1364686,-0.1017526,1.564943,0.3485244,0.115157,1.327866,NA,NA,NotTracked,Unknown,
0.8828125,-0.4477539,-0.008300781,-0.3378906,0.7983398,0.5185547,-1,0,-2,-2,-2,0,0,-1,-6,-8,-2,0,2,-5,-1,-2,-0.4375,-0.4375,-0.4375,0,0,0,2.469713,3.240687,3.598226,6.607608,5.538907,7.714798,-0.1365376,-0.3769714,1.464467,0.283262,0.2731707,1.098341,0.09426443,0.4403316,1.576236,-0.0840335,-0.3594007,1.455377,0.2374447,0.3396054,1.1288,0.08348998,-0.02284477,1.573642,0.08030155,-0.34411,1.545814,-0.08771476,0.1668463,1.569242,-0.005005226,-0.3377712,1.517957,-0.1363931,-0.1016372,1.56508,0.3486336,0.1155968,1.327909,NA,NA,NotTracked,Unknown,
0.8813477,-0.4487305,-0.006835938,-0.3496094,0.7958984,0.5092773,1,0,0,0,-3,0,-1,0,-10,4,-2,0,8,0,-2,-17,-0.6875,-0.6875,-0.6875,3.0625,3.0625,3.0625,2.465904,3.237804,3.60109,6.609456,5.541197,7.714266,-0.136187,-0.3767299,1.464615,0.284245,0.2721418,1.098489,0.09426805,0.4403246,1.576246,-0.0839319,-0.371493,1.453976,0.2378129,0.3362836,1.127878,0.08350305,-0.02283226,1.573682,0.08031756,-0.3441108,1.545825,-0.08767658,0.1668418,1.56928,-0.004982881,-0.3377671,1.517966,-0.1363496,-0.1016696,1.565133,0.3486734,0.1154555,1.328034,NA,NA,NotTracked,Unknown,
0.8857422,-0.4482422,-0.006347656,-0.3608398,0.7993164,0.5102539,-1,-1,-1,-4,-3,-1,-1,0,-2,-1,-2,-1,1,-2,1,4,-0.0625,-0.0625,-0.0625,-1.25,-1.25,-1.25,2.466241,3.237371,3.60149,6.609241,5.542261,7.713968,-0.1365246,-0.3772222,1.46484,0.2841057,0.2709841,1.0982,0.09430382,0.4403389,1.576269,-0.08248754,-0.3373072,1.456813,0.2363491,0.3321772,1.131011,0.08351277,-0.02282267,1.573704,0.08032334,-0.3441042,1.545818,-0.08762655,0.1668863,1.569372,-0.004978776,-0.3377552,1.517969,-0.1362701,-0.1016345,1.565239,0.3417689,0.1364724,1.307118,NA,NA,NotTracked,Unknown,
0.8847656,-0.4516602,-0.0078125,-0.3432617,0.8066406,0.5175781,0,0,-1,0,-1,1,0,0,-2,-5,-1,-4,-12,-3,-4,-10,0,0,0,-0.625,-0.625,-0.625,2.465217,3.237721,3.601923,6.607429,5.543877,7.713182,-0.136574,-0.3772407,1.465252,0.2838587,0.2722845,1.098638,0.0943602,0.4403374,1.576327,-0.08428665,-0.3640293,1.454471,0.2380996,0.3376795,1.128793,0.0835538,-0.02285353,1.573717,0.08030541,-0.3441681,1.54582,-0.08763472,0.1667908,1.569418,-0.004984504,-0.3377908,1.51798,-0.1362405,-0.1018041,1.565339,0.3469843,0.1197852,1.325933,NA,NA,NotTracked,Unknown,
0.8769531,-0.4482422,-0.008300781,-0.3554688,0.7973633,0.5053711,0,-1,-2,-1,-2,-1,-1,0,1,-3,0,2,5,-1,-4,1,-0.5625,-0.5625,-0.5625,-1.4375,-1.4375,-1.4375,2.464972,3.238835,3.601886,6.605593,5.546935,7.714125,-0.1360326,-0.3777648,1.463852,0.2835211,0.2729663,1.097299,0.09442466,0.440374,1.576318,-0.08254733,-0.3655142,1.451318,0.2365879,0.3411246,1.12506,0.08359735,-0.02283112,1.573699,0.08031716,-0.3441672,1.545803,-0.08761394,0.1667839,1.56942,-0.004966817,-0.3377857,1.517969,-0.1362308,-0.1018095,1.565315,0.3472172,0.1187679,1.326318,NA,NA,NotTracked,Unknown,
0.8876953,-0.4482422,-0.006347656,-0.3603516,0.8017578,0.5004883,-1,-1,1,-1,-4,-1,0,1,-4,-5,-3,-9,-3,2,0,-3,-1.75,-1.75,-1.75,0.1875,0.1875,0.1875,2.465248,3.242493,3.599372,6.606378,5.547873,7.714141,-0.1367396,-0.3769581,1.462818,0.2838588,0.2724071,1.096608,0.09442054,0.4404027,1.576314,-0.08330517,-0.3588519,1.453847,0.2354057,0.3390905,1.127542,0.08360774,-0.02282137,1.57367,0.08033437,-0.3441894,1.545749,-0.08760436,0.166745,1.569373,-0.004944926,-0.3377996,1.517917,-0.1362361,-0.1018016,1.565307,0.348041,0.1176656,1.326947,NA,NA,NotTracked,Unknown,
0.8901367,-0.4291992,-0.009765625,-0.3452148,0.8081055,0.5019531,1,-2,-2,0,0,0,-1,-1,-5,-4,-2,2,2,0,-1,-3,1.0625,1.0625,1.0625,0,0,0,2.469624,3.243829,3.596958,6.605437,5.548388,7.713779,-0.1373078,-0.3769768,1.463203,0.2838582,0.2729049,1.09707,0.09441273,0.4404527,1.576196,-0.08319752,-0.3452533,1.455422,0.2361667,0.3362223,1.129506,0.08361591,-0.02280119,1.57362,0.08032159,-0.344197,1.545701,-0.08757577,0.1667006,1.569228,-0.004951439,-0.3378006,1.517875,-0.1361369,-0.1016413,1.565246,0.3489078,0.1185573,1.327111,NA,NA,NotTracked,Unknown,
0.8857422,-0.4326172,-0.01318359,-0.3618164,0.7910156,0.5039063,1,0,0,-1,-1,0,-2,0,-3,0,-4,1,7,0,1,3,-1.3125,-1.3125,-1.3125,1.375,1.375,1.375,2.471875,3.243187,3.592362,6.605908,5.549277,7.713853,-0.1370926,-0.3772532,1.462701,0.2834131,0.2727943,1.097251,0.09443758,0.4404881,1.576174,-0.08305833,-0.3517747,1.45444,0.2341179,0.3402722,1.129891,0.08363128,-0.02279318,1.573605,0.0803206,-0.344214,1.545686,-0.08758342,0.1666131,1.569152,-0.004947179,-0.3378201,1.517887,-0.1361465,-0.1016876,1.56513,0.3481629,0.1178638,1.326886,NA,NA,NotTracked,Closed,
0.8842773,-0.4311523,-0.00390625,-0.3427734,0.8007813,0.5102539,-1,-2,-2,0,-2,-2,0,-3,-2,-2,1,1,-9,2,1,-1,-0.1875,-0.1875,-0.1875,-0.6875,-0.6875,-0.6875,2.475361,3.241779,3.588675,6.608508,5.549259,7.714126,-0.1366661,-0.377066,1.462687,0.2821748,0.2735105,1.097832,0.09442116,0.4404334,1.576052,-0.08270223,-0.3560963,1.453113,0.236326,0.3392811,1.128919,0.08367722,-0.02279653,1.573556,0.080415,-0.3442491,1.545574,-0.0876042,0.1666486,1.569146,-0.004777689,-0.3378702,1.51773,-0.136201,-0.1015964,1.56505,0.3476235,0.1172189,1.326543,NA,NA,NotTracked,Closed,
0.8881836,-0.4384766,-0.01416016,-0.347168,0.7949219,0.5126953,-1,-1,-1,-2,0,-1,-3,0,2,2,0,-2,1,2,3,6,-0.5,-0.5,-0.5,1.3125,1.3125,1.3125,2.473659,3.238642,3.588666,6.608727,5.550155,7.713777,-0.1367394,-0.3770047,1.462469,0.2830502,0.2732889,1.097331,0.09434972,0.4404129,1.576008,-0.08293105,-0.356327,1.453713,0.2331383,0.33936,1.130174,0.08363596,-0.02279091,1.573524,0.08041592,-0.3442596,1.54554,-0.08769767,0.1666417,1.569053,-0.004778781,-0.3378799,1.517706,-0.136112,-0.1016525,1.564978,0.3477201,0.1175629,1.326478,NA,NA,NotTracked,Unknown,
0.8867188,-0.4399414,-0.01074219,-0.3530273,0.7900391,0.5117188,0,-1,1,-1,-1,-2,-1,-2,4,3,-1,0,-1,-3,0,2,-0.8125,-0.8125,-0.8125,-0.9375,-0.9375,-0.9375,2.47244,3.235608,3.588779,6.609912,5.55173,7.714369,-0.136362,-0.3763681,1.464314,0.2825588,0.2739278,1.098963,0.09428976,0.4404311,1.575975,-0.08311737,-0.3599944,1.453646,0.2349543,0.3385283,1.128571,0.08363506,-0.02277409,1.5735,0.08040681,-0.3442296,1.545542,-0.08777695,0.1666463,1.569093,-0.00478733,-0.3378529,1.517748,-0.1361187,-0.101446,1.565097,0.3477482,0.1173667,1.326494,NA,NA,NotTracked,Unknown,
0.887207,-0.4433594,-0.002441406,-0.3505859,0.8007813,0.5063477,0,-1,-1,-1,-3,0,-1,-2,5,0,0,-5,-13,1,0,7,-0.3125,-0.3125,-0.3125,1.5,1.5,1.5,2.471302,3.233529,3.589609,6.612063,5.553978,7.713817,-0.1355507,-0.3768411,1.463809,0.2822295,0.2733907,1.097989,0.09424765,0.4405008,1.575866,-0.08373442,-0.3580092,1.454401,0.2336805,0.3377599,1.128119,0.083575,-0.02271935,1.573479,0.08042011,-0.3442132,1.545539,-0.08778726,0.1666524,1.569073,-0.004765647,-0.3378408,1.51775,-0.1360724,-0.1014117,1.565119,0.3413256,0.1237011,1.321614,NA,NA,NotTracked,Unknown,
0.8930664,-0.4487305,-0.008300781,-0.3544922,0.7958984,0.5053711,-3,0,-4,1,-1,0,0,0,-5,-5,-2,-1,-4,-2,0,1,-1,-1,-1,-0.375,-0.375,-0.375,2.469704,3.232623,3.591543,6.611431,5.554214,7.714362,-0.1359946,-0.3773284,1.464087,0.2819072,0.2739772,1.098061,0.09413457,0.4405033,1.575816,-0.0829236,-0.3580318,1.453055,0.2340831,0.3383357,1.128897,0.08356108,-0.02273743,1.573386,0.08040972,-0.3442407,1.545454,-0.08778881,0.1666889,1.568888,-0.004774853,-0.3378682,1.517696,-0.1360112,-0.1012466,1.565072,0.3450464,0.1215302,1.323962,NA,NA,NotTracked,Unknown,
0.8779297,-0.440918,-0.01025391,-0.3588867,0.7963867,0.4985352,0,-1,0,-1,-1,0,0,-1,-1,-3,-3,-6,-5,-2,1,6,-0.1875,-0.1875,-0.1875,0,0,0,2.46978,3.232755,3.591233,6.612092,5.556369,7.713596,-0.1358835,-0.3772165,1.464051,0.281804,0.2735691,1.096453,0.09406012,0.4404851,1.575783,-0.08522651,-0.3770519,1.452909,0.2327079,0.3390226,1.12743,0.08353639,-0.02277569,1.573322,0.08041357,-0.3442733,1.54543,-0.08787471,0.1666007,1.568837,-0.004778057,-0.337903,1.517677,-0.1360612,-0.1015943,1.565096,0.3388841,0.135809,1.309734,NA,NA,NotTracked,Unknown,
0.8847656,-0.434082,-0.01269531,-0.3466797,0.7919922,0.5058594,-1,-2,-1,1,0,-1,-1,-1,-2,0,0,-2,-7,-2,-3,-6,-0.375,-0.375,-0.375,0.625,0.625,0.625,2.470856,3.234671,3.590543,6.612211,5.556813,7.71307,-0.1364914,-0.3779227,1.464282,0.281844,0.2740068,1.097098,0.09394067,0.4405473,1.575702,-0.08360635,-0.3660328,1.452587,0.2334028,0.3371282,1.128257,0.08349818,-0.02277427,1.573245,0.08043028,-0.3442806,1.545396,-0.08792812,0.1665918,1.568755,-0.004753585,-0.3379257,1.517644,-0.1361614,-0.1017902,1.565113,0.3448705,0.119296,1.324333,NA,NA,NotTracked,Unknown,
0.8911133,-0.4311523,0.001953125,-0.347168,0.7851563,0.5078125,0,-1,-1,-2,-1,-1,0,-1,-3,-2,-3,1,6,1,3,15,1.375,1.375,1.375,1.125,1.125,1.125,2.473696,3.236242,3.588262,6.610999,5.554607,7.712758,-0.1368518,-0.3770759,1.46426,0.2811393,0.2756793,1.097641,0.09369398,0.4406492,1.575545,-0.08300253,-0.3470629,1.454674,0.2320537,0.3468263,1.137,0.08348888,-0.02275302,1.573217,0.08044754,-0.3442866,1.545309,-0.08797325,0.1665933,1.568712,-0.004732335,-0.3379427,1.517563,-0.1362299,-0.1019342,1.56507,0.3447422,0.1182832,1.324475,NA,NA,NotTracked,Unknown,
0.8842773,-0.4316406,0.0009765625,-0.359375,0.800293,0.5063477,-1,-1,-3,-2,0,0,-2,-2,1,-1,-2,-6,1,0,-2,-4,-1.8125,-1.8125,-1.8125,-0.375,-0.375,-0.375,2.475978,3.236484,3.584973,6.610528,5.55382,7.713371,-0.1364419,-0.3775993,1.463318,0.280756,0.2747389,1.096273,0.09354277,0.4406506,1.57551,-0.08346049,-0.3583522,1.453413,0.2333499,0.3411922,1.131692,0.08346069,-0.02273825,1.573197,0.08042487,-0.3442852,1.545296,-0.08807747,0.1665164,1.568669,-0.004755167,-0.3379486,1.517562,-0.1362356,-0.1018805,1.56509,0.3435929,0.1219784,1.322956,NA,NA,NotTracked,Unknown,
0.8920898,-0.4321289,-0.0009765625,-0.3554688,0.8120117,0.5024414,0,0,-1,1,-2,-1,0,-1,2,-4,-3,0,3,-3,1,11,0.0625,0.0625,0.0625,-0.8125,-0.8125,-0.8125,2.477468,3.236431,3.582332,6.610967,5.553421,7.713578,-0.1364626,-0.3776759,1.463337,0.2806013,0.2742976,1.09744,0.09345452,0.4406641,1.575441,-0.08406423,-0.3692242,1.452774,0.233274,0.3409288,1.130886,0.0833931,-0.02274842,1.573124,0.08040428,-0.3443234,1.545266,-0.08813018,0.1664184,1.568517,-0.004757411,-0.3379831,1.517553,-0.1362204,-0.1019992,1.56501,0.342797,0.1226286,1.322379,NA,NA,NotTracked,Unknown,
0.8916016,-0.4365234,-0.01025391,-0.3432617,0.7954102,0.5053711,0,-1,0,0,-1,0,-1,0,-3,-7,-2,2,2,0,-1,-4,-0.875,-0.875,-0.875,0.375,0.375,0.375,2.477397,3.236298,3.582639,6.610967,5.553421,7.713578,-0.135977,-0.3769339,1.461676,0.280557,0.2738597,1.095278,0.09334139,0.4406249,1.575325,-0.08194896,-0.3423377,1.452773,0.2297713,0.341789,1.130725,0.08332872,-0.02275096,1.572985,0.08042044,-0.3443584,1.545184,-0.08810505,0.1663217,1.568276,-0.004752554,-0.3380301,1.517519,-0.1362508,-0.1024397,1.564896,0.3407288,0.1261459,1.320434,NA,NA,NotTracked,Unknown,
0.8852539,-0.4384766,-0.001464844,-0.3486328,0.8022461,0.496582,-2,-2,-2,1,0,0,0,-1,-5,-3,0,1,-3,-1,-1,-9,-0.25,-0.25,-0.25,-0.4375,-0.4375,-0.4375,2.477396,3.235991,3.582132,6.611609,5.554052,7.713886,-0.1360347,-0.3770941,1.463051,0.2807625,0.2746236,1.098873,0.09326775,0.4405805,1.575226,-0.08276806,-0.3611619,1.452698,0.2341166,0.3404429,1.134911,0.08332448,-0.02273977,1.572957,0.08043273,-0.3443494,1.545167,-0.08814964,0.1662954,1.568235,-0.004737628,-0.3380295,1.517528,-0.1361903,-0.1022763,1.564861,0.3384855,0.1330165,1.313085,NA,NA,NotTracked,Unknown,
0.887207,-0.440918,-0.006835938,-0.3466797,0.7944336,0.5053711,-1,0,-2,-1,0,-1,-1,0,-7,-3,-2,-5,-3,-5,-3,-10,-1,-1,-1,-0.25,-0.25,-0.25,2.47615,3.235938,3.583494,6.611816,5.555411,7.713024,-0.1359414,-0.3769864,1.462887,0.2807547,0.2749866,1.097695,0.09321863,0.4405825,1.575188,-0.08273339,-0.3510655,1.453626,0.2332925,0.3430601,1.132437,0.08331092,-0.02272974,1.57291,0.08043912,-0.3443286,1.545154,-0.08823536,0.1664401,1.568277,-0.004732426,-0.3380102,1.517533,-0.1362131,-0.1023088,1.56477,0.3440861,0.125664,1.322267,NA,NA,NotTracked,Unknown,
0.8852539,-0.4399414,-0.006835938,-0.3505859,0.7944336,0.5024414,-3,0,0,1,0,0,1,-2,-4,-4,-3,-4,-10,-4,-2,-2,-0.9375,-0.9375,-0.9375,1.75,1.75,1.75,2.476149,3.23563,3.582988,6.613304,5.557269,7.71262,-0.1361891,-0.3775698,1.462709,0.2809579,0.2753207,1.097996,0.09316747,0.4405536,1.575138,-0.08280712,-0.3546737,1.453015,0.2326294,0.3409469,1.130768,0.0832566,-0.02272105,1.57288,0.08039519,-0.344341,1.545131,-0.08827792,0.1664127,1.568154,-0.004738637,-0.3380167,1.517527,-0.136219,-0.1020989,1.564719,0.3410596,0.1347301,1.312832,NA,NA,NotTracked,Unknown,
0.887207,-0.4414063,-0.001464844,-0.3598633,0.7841797,0.4980469,0,-2,0,-1,-2,0,-1,0,-1,5,-1,-1,-2,-1,0,-6,-0.6875,-0.6875,-0.6875,-0.4375,-0.4375,-0.4375,2.473944,3.235714,3.583812,6.610968,5.558475,7.712651,-0.136692,-0.3773319,1.46322,0.2806086,0.2762336,1.098955,0.09309962,0.4405848,1.575189,-0.08287831,-0.3575332,1.452579,0.2327656,0.3428546,1.130256,0.08329182,-0.02272698,1.572814,0.08041627,-0.3443423,1.545046,-0.08828579,0.1663903,1.568123,-0.004719309,-0.3380149,1.517477,-0.1361769,-0.1021482,1.564695,0.3432916,0.1254271,1.321854,NA,NA,NotTracked,Unknown,
0.8886719,-0.4345703,-0.002441406,-0.3515625,0.7871094,0.4956055,0,-1,0,-2,-2,-2,-2,-1,0,2,1,-3,-5,0,-1,2,-0.0625,-0.0625,-0.0625,-1.0625,-1.0625,-1.0625,2.475312,3.236191,3.58265,6.612632,5.560505,7.712208,-0.1362267,-0.3776593,1.464131,0.280928,0.2766189,1.098548,0.09308222,0.4406005,1.575237,-0.08547685,-0.3801582,1.454086,0.2325566,0.3423485,1.132314,0.08327111,-0.02274758,1.572775,0.08041581,-0.3443536,1.545016,-0.08827,0.1664062,1.568144,-0.004721055,-0.3380244,1.517462,-0.1361869,-0.1021461,1.564701,0.3425389,0.1241873,1.321747,NA,NA,NotTracked,Unknown,
0.8842773,-0.4443359,-0.001464844,-0.3535156,0.7954102,0.5087891,-1,0,0,0,0,0,0,0,-4,-2,-2,-8,-2,-3,0,-7,-2.625,-2.625,-2.625,2.3125,2.3125,2.3125,2.473557,3.236592,3.581429,6.612275,5.56006,7.7116,-0.1358664,-0.3781478,1.462718,0.2809303,0.2759578,1.098056,0.09306698,0.4406061,1.575243,-0.08408712,-0.3653172,1.453437,0.2327762,0.3437356,1.132675,0.08326954,-0.02274499,1.572768,0.08043291,-0.3443649,1.545011,-0.08829156,0.1663849,1.568116,-0.004705313,-0.3380449,1.517454,-0.1361998,-0.1021014,1.564688,0.3389049,0.1345899,1.313899,NA,NA,NotTracked,Closed,
0.890625,-0.4326172,-0.0078125,-0.3535156,0.7958984,0.5019531,0,-1,-1,1,1,-1,0,1,3,0,-3,-4,-2,0,0,3,0.625,0.625,0.625,-2.875,-2.875,-2.875,2.474046,3.236462,3.581373,6.61036,5.558362,7.710656,-0.1359423,-0.3779519,1.462555,0.2812543,0.2763483,1.098227,0.09305686,0.4406137,1.57522,-0.08353388,-0.3660298,1.452481,0.2340664,0.3422418,1.13106,0.08327317,-0.02274182,1.572743,0.08045622,-0.3443688,1.544989,-0.08828405,0.1664006,1.568039,-0.004690514,-0.3380489,1.517451,-0.1360815,-0.101523,1.564651,0.3377352,0.1365007,1.306361,NA,NA,NotTracked,Unknown,
0.8789063,-0.440918,-0.0009765625,-0.3608398,0.7915039,0.5039063,-1,0,-1,-1,-1,1,0,-1,-2,-4,-2,-9,2,-1,-2,-8,-1.3125,-1.3125,-1.3125,0,0,0,2.475105,3.237038,3.579311,6.608829,5.558306,7.7109,-0.1355794,-0.3778568,1.462802,0.2811436,0.2756636,1.098809,0.09306914,0.4406144,1.575242,-0.08236983,-0.3527256,1.4527,0.2334739,0.3400004,1.133032,0.08326967,-0.02271163,1.572804,0.08041663,-0.3443615,1.54507,-0.08830713,0.1664573,1.568099,-0.00470381,-0.3380394,1.517534,-0.1361059,-0.1016703,1.564563,0.3398239,0.1359829,1.310427,NA,NA,NotTracked,Closed,
0.8886719,-0.4365234,-0.009277344,-0.3583984,0.8046875,0.4931641,0,1,-1,-1,-2,-3,-3,0,-7,0,-2,-3,2,-1,-4,-5,-0.5,-0.5,-0.5,-0.0625,-0.0625,-0.0625,2.475039,3.236568,3.578949,6.611825,5.559257,7.710105,-0.1359144,-0.378178,1.463204,0.2824022,0.2753904,1.098921,0.09306494,0.4406132,1.575242,-0.0834503,-0.3623937,1.453339,0.2342609,0.3412703,1.127318,0.0832717,-0.0227144,1.572833,0.08043598,-0.3443716,1.545079,-0.08831169,0.1663769,1.568161,-0.004686589,-0.3380633,1.517556,-0.1360982,-0.1017088,1.564645,0.3434393,0.1207951,1.323201,NA,NA,NotTracked,Unknown,
0.8833008,-0.4375,-0.005371094,-0.3613281,0.7939453,0.5024414,-1,-2,-2,-1,-2,0,-2,-1,-4,-2,0,-3,-7,-2,-5,-4,0.25,0.25,0.25,1.0625,1.0625,1.0625,2.475039,3.236568,3.578949,6.609859,5.560463,7.708909,-0.1356565,-0.3790916,1.463063,0.2812326,0.2764856,1.099261,0.09307914,0.4406371,1.575297,-0.08331685,-0.3636786,1.453036,0.2334945,0.342,1.131636,0.08325883,-0.02272516,1.572848,0.0804347,-0.3443912,1.545111,-0.08830699,0.16632,1.568236,-0.004687209,-0.3380848,1.517583,-0.1360239,-0.1020041,1.564724,0.3393061,0.1334315,1.317164,NA,NA,NotTracked,Unknown,
0.8833008,-0.4394531,-0.0004882813,-0.3608398,0.8071289,0.5083008,-2,-1,-1,0,-1,0,-3,-1,-2,1,-1,-1,-3,-3,-1,0,0,0,0,-1.0625,-1.0625,-1.0625,2.475651,3.236827,3.57893,6.610049,5.561831,7.708756,-0.1361255,-0.3769924,1.46424,0.2815659,0.2770124,1.099859,0.09309871,0.4406781,1.575329,-0.08377532,-0.3630539,1.453514,0.2338307,0.3416471,1.132504,0.08328329,-0.02268217,1.572909,0.0804205,-0.344359,1.54517,-0.0883493,0.1664163,1.568391,-0.004711069,-0.3380486,1.517666,-0.1360393,-0.1020709,1.564867,0.3387401,0.132092,1.318407,NA,NA,NotTracked,Unknown,
0.8842773,-0.4389648,-0.006835938,-0.3540039,0.7895508,0.5102539,-2,0,-2,0,-4,0,0,-1,-5,-6,-2,0,-3,-1,-5,-3,0.875,0.875,0.875,2.6875,2.6875,2.6875,2.47565,3.23652,3.578423,6.610774,5.562614,7.708572,-0.1358173,-0.3777515,1.463673,0.2813833,0.2767164,1.098881,0.09315668,0.4406796,1.575397,-0.08269183,-0.3513195,1.45425,0.2332373,0.3428944,1.133394,0.08328988,-0.02269064,1.572935,0.08042587,-0.3443691,1.545232,-0.08839962,0.1664194,1.568469,-0.004666911,-0.338071,1.517745,-0.1360886,-0.1018827,1.5649,0.3387981,0.1354661,1.312229,NA,NA,NotTracked,Closed,
0.8857422,-0.4389648,-0.006347656,-0.3662109,0.784668,0.4931641,-2,-1,0,-1,-1,0,-1,0,-2,3,1,-4,3,0,-4,-13,-0.75,-0.75,-0.75,-0.9375,-0.9375,-0.9375,2.476262,3.236779,3.578404,6.610384,5.56318,7.709285,-0.1363235,-0.3776868,1.46435,0.2814192,0.2763237,1.099386,0.09318405,0.4406368,1.575466,-0.09245522,-0.3941184,1.441379,0.2336512,0.3415373,1.131609,0.08333258,-0.02271666,1.572961,0.08044446,-0.3443717,1.54526,-0.08846002,0.1663398,1.568629,-0.004650453,-0.3380775,1.517775,-0.1360429,-0.1019177,1.564963,0.3395961,0.1351691,1.315749,NA,NA,NotTracked,Unknown,
0.8930664,-0.4370117,-0.008789063,-0.3618164,0.7958984,0.5053711,-1,0,-1,-1,-3,1,0,-1,-1,5,-1,-2,-3,-1,-2,6,0.6875,0.6875,0.6875,1.375,1.375,1.375,2.477297,3.236437,3.577965,6.611497,5.564274,7.709951,-0.1360915,-0.3774777,1.464382,0.2805125,0.2764487,1.099998,0.09316341,0.4406064,1.575472,-0.08216925,-0.3369335,1.4557,0.2337627,0.3388806,1.134772,0.0833509,-0.02272921,1.572957,0.08047019,-0.3443788,1.545236,-0.08844919,0.1662784,1.568653,-0.004632887,-0.3380906,1.51779,-0.1360724,-0.1019378,1.565044,0.3423751,0.1243,1.321967,NA,NA,NotTracked,Unknown,
