ALX,ALY,ALZ,ARX,ARY,ARZ,EMG0L,EMG1L,EMG2L,EMG3L,EMG4L,EMG5L,EMG6L,EMG7L,EMG0R,EMG1R,EMG2R,EMG3R,EMG4R,EMG5R,EMG6R,EMG7R,GLX,GLY,GLZ,GRX,GRY,GRZ,ORL,OPL,OYL,ORR,OPR,OYR,LHNX,LHNY,LHNZ,RHNX,RHNY,RHNZ,HX,HY,HZ,LTX,LTY,LTZ,RTX,RTY,RTZ,SpineMidX,SpineMidY,SpineMidZ,SpineBaseX,SpineBaseY,SpineBaseZ,ShoulderLeftX,ShoulderLeftY,ShoulderLeftZ,ShoulderRightX,ShoulderRightY,ShoulderRightZ,ElbowLeftX,ElbowLeftY,ElbowLeftZ,ElbowRightX,ElbowRightY,ElbowRightZ,Myo_Pose_left,Myo_Pose_Right,Kinect_pose_left,Kinect_pose_right
0.9116211,-0.3496094,-0.08447266,0.9179688,0.300293,0.125,4,-3,-1,-12,-2,-1,-4,-3,0,1,0,0,0,1,-1,-1,1.375,1.375,1.375,-0.5625,-0.5625,-0.5625,2.138198,3.105723,7.32397,6.822326,3.063601,8.738639,-0.2015639,-0.4897894,1.560648,0.2382123,-0.4619261,1.462492,0.07134416,0.334046,1.619735,-0.1435896,-0.4697755,1.534152,0.2257978,-0.5065102,1.4762,0.04778866,-0.12169,1.637257,0.03878917,-0.4343391,1.625749,-0.120998,0.07317955,1.641771,-0.04451119,-0.4211192,1.592128,-0.1911883,-0.1903419,1.658084,0.2869044,-0.191284,1.639394,NA,NA,NotTracked,Lasso,
0.9116211,-0.3496094,-0.08447266,0.9179688,0.300293,0.125,4,-3,-1,-12,-2,-1,-4,-3,0,1,0,0,0,1,-1,-1,1.375,1.375,1.375,-0.5625,-0.5625,-0.5625,2.138198,3.105723,7.32397,6.822326,3.063601,8.738639,-0.2031167,-0.4904537,1.563208,0.2423207,-0.4666983,1.466692,0.07014034,0.3338288,1.619568,-0.1447725,-0.4639283,1.522555,0.2289766,-0.5166955,1.482818,0.04720915,-0.1217182,1.63738,0.03851095,-0.4343354,1.625981,-0.1221059,0.07301215,1.641776,-0.04479093,-0.4211794,1.592442,-0.1918702,-0.1911519,1.658565,0.2861496,-0.1917568,1.63954,NA,NA,NotTracked,Lasso,
0.9116211,-0.3496094,-0.08447266,0.9179688,0.300293,0.125,4,-3,-1,-12,-2,-1,-4,-3,0,1,0,0,0,1,-1,-1,1.375,1.375,1.375,-0.5625,-0.5625,-0.5625,2.138198,3.105723,7.32397,6.822326,3.063601,8.738639,-0.2038142,-0.4923935,1.565665,0.2447981,-0.4731646,1.471263,0.06934346,0.3338049,1.619692,-0.1459102,-0.4830789,1.534532,0.2255984,-0.4959058,1.490765,0.04682592,-0.121801,1.637545,0.03827327,-0.4344243,1.626379,-0.1227398,0.07284913,1.641554,-0.04501121,-0.4213447,1.592945,-0.1928693,-0.1923135,1.659648,0.2854345,-0.1920509,1.639784,NA,NA,NotTracked,Lasso,
0.9116211,-0.3496094,-0.08447266,0.9179688,0.300293,0.125,4,-3,-1,-12,-2,-1,-4,-3,0,1,0,0,0,1,-1,-1,1.375,1.375,1.375,-0.5625,-0.5625,-0.5625,2.138198,3.105723,7.32397,6.822326,3.063601,8.738639,-0.2036069,-0.4925084,1.567004,0.2470819,-0.4797952,1.47988,0.06864613,0.3338787,1.619568,-0.1467812,-0.480986,1.5275,0.2365648,-0.5212786,1.496562,0.04621553,-0.1219329,1.637915,0.03809379,-0.4345548,1.626867,-0.1235234,0.07277198,1.641706,-0.04513584,-0.4214901,1.593337,-0.193553,-0.1932101,1.660389,0.2845958,-0.1928791,1.640369,NA,NA,NotTracked,NotTracked,
0.9116211,-0.3496094,-0.08447266,0.9179688,0.300293,0.125,4,-3,-1,-12,-2,-1,-4,-3,0,1,0,0,0,1,-1,-1,1.375,1.375,1.375,-0.5625,-0.5625,-0.5625,2.138198,3.105723,7.32397,6.822326,3.063601,8.738639,-0.2024602,-0.4932211,1.566302,0.2483055,-0.4848942,1.486552,0.06783369,0.3338188,1.619512,-0.1460836,-0.476485,1.537377,0.2289682,-0.5186246,1.504667,0.04580328,-0.1220279,1.638009,0.03798627,-0.43464,1.627049,-0.124084,0.07257073,1.641612,-0.04522413,-0.4216153,1.593487,-0.1937724,-0.1937991,1.660863,0.2837511,-0.1935098,1.640828,NA,NA,NotTracked,NotTracked,
0.9116211,-0.3496094,-0.08447266,0.9179688,0.300293,0.125,4,-3,-1,-12,-2,-1,-4,-3,0,1,0,0,0,1,-1,-1,1.375,1.375,1.375,-0.5625,-0.5625,-0.5625,2.138198,3.105723,7.32397,6.822326,3.063601,8.738639,-0.2026363,-0.4935467,1.566427,0.2513684,-0.48839,1.496364,0.06720334,0.3337853,1.619576,-0.1458736,-0.4757404,1.536819,0.2102474,-0.4956003,1.504909,0.04542031,-0.1221209,1.63814,0.0376898,-0.434732,1.627391,-0.1246306,0.07245684,1.641632,-0.04545527,-0.4217371,1.593769,-0.1940398,-0.1944072,1.661428,0.2827215,-0.1946597,1.641675,NA,NA,NotTracked,NotTracked,
0.9116211,-0.3496094,-0.08447266,0.9179688,0.300293,0.125,4,-3,-1,-12,-2,-1,-4,-3,0,1,0,0,0,1,-1,-1,1.375,1.375,1.375,-0.5625,-0.5625,-0.5625,2.138198,3.105723,7.32397,6.822326,3.063601,8.738639,-0.2021396,-0.4940686,1.565904,0.2530791,-0.4931558,1.506795,0.06668534,0.3338614,1.619675,-0.1463506,-0.4816627,1.538822,0.2167045,-0.4957823,1.488334,0.04492598,-0.1223046,1.638382,0.03726598,-0.4350937,1.627896,-0.1250969,0.07213151,1.641754,-0.04584021,-0.4221519,1.594311,-0.1943201,-0.1948273,1.662012,0.2821962,-0.1955064,1.642229,NA,NA,NotTracked,NotTracked,
0.9116211,-0.3496094,-0.08447266,0.9179688,0.300293,0.125,4,-3,-1,-12,-2,-1,-4,-3,0,1,0,0,0,1,-1,-1,1.375,1.375,1.375,-0.5625,-0.5625,-0.5625,2.138198,3.105723,7.32397,6.822326,3.063601,8.738639,-0.2016608,-0.493324,1.563047,0.2559508,-0.4957027,1.511961,0.06599535,0.3337627,1.619438,-0.1459844,-0.4839607,1.536253,0.2016941,-0.4316462,1.542,0.04452546,-0.1224791,1.638482,0.03696126,-0.4352763,1.628145,-0.1256592,0.0720761,1.641759,-0.04610881,-0.4223262,1.59456,-0.1944142,-0.1949897,1.662162,0.2819173,-0.1960332,1.642473,NA,NA,NotTracked,NotTracked,
0.9116211,-0.3496094,-0.08447266,0.9179688,0.300293,0.125,4,-3,-1,-12,-2,-1,-4,-3,0,1,0,0,0,1,-1,-1,1.375,1.375,1.375,-0.5625,-0.5625,-0.5625,2.138198,3.105723,7.32397,6.822326,3.063601,8.738639,-0.2010624,-0.4920781,1.560283,0.2560152,-0.4984554,1.516637,0.065477,0.3337139,1.619256,-0.1462678,-0.4881548,1.535518,0.210523,-0.5137486,1.525938,0.04423547,-0.1225544,1.638559,0.03686301,-0.4353369,1.628299,-0.1260681,0.07214659,1.641763,-0.04618261,-0.4223892,1.594715,-0.1945169,-0.1950814,1.662219,0.2817264,-0.1972005,1.642929,NA,NA,NotTracked,NotTracked,
0.9116211,-0.3496094,-0.08447266,0.9179688,0.300293,0.125,4,-3,-1,-12,-2,-1,-4,-3,0,1,0,0,0,1,-1,-1,1.375,1.375,1.375,-0.5625,-0.5625,-0.5625,2.138198,3.105723,7.32397,6.822326,3.063601,8.738639,-0.2006031,-0.4921926,1.558995,0.2566412,-0.4991197,1.5193,0.06515922,0.3338565,1.619242,-0.1461305,-0.4780672,1.536,0.2067612,-0.486015,1.5162,0.0439937,-0.1225812,1.638747,0.03670446,-0.4353715,1.628569,-0.1263104,0.0721785,1.641765,-0.04627484,-0.422447,1.594874,-0.194565,-0.1950926,1.662219,0.281722,-0.1978965,1.643699,NA,NA,NotTracked,NotTracked,
0.9116211,-0.3496094,-0.08447266,0.9179688,0.300293,0.125,4,-3,-1,-12,-2,-1,-4,-3,0,1,0,0,0,1,-1,-1,1.375,1.375,1.375,-0.5625,-0.5625,-0.5625,2.138198,3.105723,7.32397,6.822326,3.063601,8.738639,-0.1996831,-0.4913,1.556654,0.2558434,-0.4962461,1.518361,0.06469441,0.3340539,1.619373,-0.1464406,-0.4842708,1.535384,0.2115172,-0.5052999,1.531167,0.04372532,-0.1225484,1.638926,0.03643977,-0.4354479,1.628847,-0.1268672,0.07236522,1.641984,-0.04649458,-0.4225369,1.595163,-0.1945958,-0.1950889,1.66222,0.2818068,-0.1985701,1.645271,NA,NA,NotTracked,NotTracked,
0.9116211,-0.3496094,-0.08447266,0.9179688,0.300293,0.125,4,-3,-1,-12,-2,-1,-4,-3,0,1,0,0,0,1,-1,-1,1.375,1.375,1.375,-0.5625,-0.5625,-0.5625,2.138198,3.105723,7.32397,6.822326,3.063601,8.738639,-0.1997431,-0.4897209,1.551699,0.2547039,-0.4939887,1.512421,0.06413248,0.3340279,1.619191,-0.1465686,-0.4958658,1.530285,0.205406,-0.452702,1.545294,0.04330993,-0.1224864,1.638976,0.03626593,-0.4354519,1.628895,-0.1271831,0.07241283,1.641804,-0.04664851,-0.4225341,1.595137,-0.1947146,-0.1947252,1.661939,0.2820266,-0.1985263,1.646542,NA,NA,NotTracked,NotTracked,
0.9116211,-0.3496094,-0.08447266,0.9179688,0.300293,0.125,4,-3,-1,-12,-2,-1,-4,-3,0,1,0,0,0,1,-1,-1,1.375,1.375,1.375,-0.5625,-0.5625,-0.5625,2.138198,3.105723,7.32397,6.822326,3.063601,8.738639,-0.1986489,-0.489493,1.551037,0.2545094,-0.4887679,1.501984,0.06388603,0.3339657,1.619117,-0.1491257,-0.4715686,1.546712,0.2145678,-0.4746721,1.496162,0.04298361,-0.1225058,1.639058,0.03600503,-0.4354998,1.62903,-0.127481,0.07242784,1.641803,-0.04684716,-0.4225765,1.595176,-0.1947484,-0.1947537,1.661873,0.2828975,-0.1983884,1.648911,NA,NA,NotTracked,NotTracked,
0.9116211,-0.3496094,-0.08447266,0.9179688,0.300293,0.125,4,-3,-1,-12,-2,-1,-4,-3,0,1,0,0,0,1,-1,-1,1.375,1.375,1.375,-0.5625,-0.5625,-0.5625,2.138198,3.105723,7.32397,6.822326,3.063601,8.738639,-0.1976809,-0.4878445,1.549091,0.2546926,-0.4738746,1.487429,0.06362912,0.3340275,1.619224,-0.1437807,-0.4801662,1.533305,0.2136243,-0.4754119,1.473817,0.04281367,-0.1225256,1.639155,0.03591261,-0.4355277,1.629135,-0.1276027,0.07239186,1.641753,-0.04693267,-0.422608,1.595239,-0.1949436,-0.1947703,1.661575,0.2842839,-0.1976995,1.651717,NA,NA,NotTracked,NotTracked,
0.9116211,-0.3496094,-0.08447266,0.9179688,0.300293,0.125,4,-3,-1,-12,-2,-1,-4,-3,0,1,0,0,0,1,-1,-1,1.375,1.375,1.375,-0.5625,-0.5625,-0.5625,2.138198,3.105723,7.32397,6.822326,3.063601,8.738639,-0.197669,-0.4876976,1.547352,0.2558439,-0.4498761,1.469267,0.06350736,0.3340415,1.619326,-0.1445588,-0.4807929,1.534995,0.2184,-0.4452365,1.450988,0.04239111,-0.1225646,1.639374,0.03558767,-0.4354875,1.629353,-0.127689,0.07240961,1.641712,-0.04718987,-0.4225848,1.59531,-0.1953817,-0.1946843,1.660924,0.2861263,-0.1965611,1.654045,NA,NA,NotTracked,NotTracked,
0.9116211,-0.3496094,-0.08447266,0.9179688,0.300293,0.125,4,-3,-1,-12,-2,-1,-4,-3,0,1,0,0,0,1,-1,-1,1.375,1.375,1.375,-0.5625,-0.5625,-0.5625,2.138198,3.105723,7.32397,6.822326,3.063601,8.738639,-0.197747,-0.4873147,1.546771,0.2576811,-0.4272462,1.446957,0.06343558,0.3340133,1.619379,-0.1434272,-0.4837424,1.532712,0.2599452,-0.4158713,1.398334,0.04188886,-0.1224437,1.639663,0.03500341,-0.4353628,1.629648,-0.1278533,0.07240622,1.641508,-0.04785665,-0.4224516,1.59558,-0.1958802,-0.194304,1.660485,0.2885828,-0.1894349,1.65955,NA,NA,NotTracked,Unknown,
0.9116211,-0.3496094,-0.08447266,0.9179688,0.300293,0.125,4,-3,-1,-12,-2,-1,-4,-3,0,1,0,0,0,1,-1,-1,1.375,1.375,1.375,-0.5625,-0.5625,-0.5625,2.138198,3.105723,7.32397,6.822326,3.063601,8.738639,-0.1983765,-0.4864923,1.545164,0.261851,-0.3959752,1.426227,0.06320625,0.3340137,1.619497,-0.1450627,-0.4820932,1.535829,0.2828134,-0.3784404,1.401806,0.04137429,-0.1223645,1.63988,0.03423892,-0.4351592,1.629854,-0.1280593,0.0723512,1.641394,-0.0487153,-0.4223022,1.595694,-0.1965119,-0.1935095,1.65967,0.2903402,-0.1824991,1.662405,NA,NA,NotTracked,Unknown,
0.9116211,-0.3496094,-0.08447266,0.9179688,0.300293,0.125,4,-3,-1,-12,-2,-1,-4,-3,0,1,0,0,0,1,-1,-1,1.375,1.375,1.375,-0.5625,-0.5625,-0.5625,2.138198,3.105723,7.32397,6.822326,3.063601,8.738639,-0.1984932,-0.4875409,1.546301,0.2636021,-0.3644933,1.403462,0.06304717,0.3341557,1.619795,-0.1424713,-0.5012791,1.5294,0.2993554,-0.3837657,1.3956,0.04046721,-0.1220926,1.640438,0.03270281,-0.4344521,1.630697,-0.1281278,0.07237572,1.641372,-0.05025927,-0.4217059,1.596215,-0.1971075,-0.1932385,1.659396,0.2924552,-0.1755764,1.664508,NA,NA,NotTracked,Unknown,
0.9116211,-0.3496094,-0.08447266,0.9179688,0.300293,0.125,4,-3,-1,-12,-2,-1,-4,-3,0,1,0,0,0,1,-1,-1,1.375,1.375,1.375,-0.5625,-0.5625,-0.5625,2.138198,3.105723,7.32397,6.822326,3.063601,8.738639,-0.1996794,-0.4860879,1.544697,0.2648734,-0.3319537,1.377937,0.06301535,0.3341449,1.620005,-0.1436527,-0.4870966,1.533342,0.3028997,-0.3582315,1.367,0.03997075,-0.1219287,1.640906,0.0318369,-0.4340649,1.631136,-0.1282449,0.07237828,1.641292,-0.05115962,-0.4213861,1.596541,-0.1976072,-0.1925447,1.658652,0.2935627,-0.1668449,1.666341,NA,NA,NotTracked,Unknown,
0.9116211,-0.3496094,-0.08447266,0.9179688,0.300293,0.125,4,-3,-1,-12,-2,-1,-4,-3,0,1,0,0,0,1,-1,-1,1.375,1.375,1.375,-0.5625,-0.5625,-0.5625,2.138198,3.105723,7.32397,6.822326,3.063601,8.738639,-0.2002169,-0.4860918,1.542932,0.2701872,-0.2725769,1.336533,0.06274986,0.3341601,1.620458,-0.1434648,-0.4820476,1.533692,0.3028413,-0.2952944,1.326714,0.03906906,-0.1215931,1.641619,0.03034162,-0.4335008,1.631764,-0.1285343,0.07228786,1.641055,-0.05285577,-0.4209362,1.597237,-0.1990273,-0.191069,1.656687,0.2935538,-0.1512535,1.66749,NA,NA,NotTracked,Unknown,
0.9116211,-0.3496094,-0.08447266,0.9179688,0.300293,0.125,4,-3,-1,-12,-2,-1,-4,-3,0,1,0,0,0,1,-1,-1,1.375,1.375,1.375,-0.5625,-0.5625,-0.5625,2.138198,3.105723,7.32397,6.822326,3.063601,8.738639,-0.2003299,-0.4859537,1.541917,0.2692779,-0.240568,1.341501,0.06258613,0.3341376,1.620684,-0.1448914,-0.4882956,1.534672,0.2964521,-0.2676353,1.310083,0.03856701,-0.1213542,1.641995,0.02962921,-0.4331527,1.632018,-0.1286312,0.07229719,1.640998,-0.05360137,-0.4206315,1.597534,-0.1996165,-0.1907037,1.655951,0.2933229,-0.1457513,1.668283,NA,NA,NotTracked,Unknown,
0.9116211,-0.3496094,-0.08447266,0.9179688,0.300293,0.125,4,-3,-1,-12,-2,-1,-4,-3,0,1,0,0,0,1,-1,-1,1.375,1.375,1.375,-0.5625,-0.5625,-0.5625,2.138198,3.105723,7.32397,6.822326,3.063601,8.738639,-0.2009322,-0.4855229,1.540773,0.2708538,-0.2227408,1.335897,0.06247362,0.3341366,1.620822,-0.14969,-0.4722739,1.547659,0.3003088,-0.2378434,1.312714,0.03826174,-0.1211156,1.642253,0.02912343,-0.4328804,1.632164,-0.1286777,0.07229503,1.640958,-0.05414706,-0.4203895,1.597893,-0.2000123,-0.1903373,1.655401,0.3047706,-0.1466788,1.663943,NA,NA,NotTracked,Unknown,
0.9116211,-0.3496094,-0.08447266,0.9179688,0.300293,0.125,4,-3,-1,-12,-2,-1,-4,-3,0,1,0,0,0,1,-1,-1,1.375,1.375,1.375,-0.5625,-0.5625,-0.5625,2.138198,3.105723,7.32397,6.822326,3.063601,8.738639,-0.2006287,-0.486007,1.54189,0.2706856,-0.209962,1.335319,0.06213799,0.3343222,1.621344,-0.1455297,-0.4851185,1.537739,0.2988357,-0.2311602,1.3057,0.03782293,-0.1209331,1.642765,0.02873365,-0.4326712,1.632481,-0.1287507,0.07222899,1.640952,-0.05456587,-0.4202031,1.598285,-0.200233,-0.1902514,1.655332,0.3058056,-0.146357,1.663682,NA,NA,NotTracked,Unknown,
0.9116211,-0.3496094,-0.08447266,0.9179688,0.300293,0.125,4,-3,-1,-12,-2,-1,-4,-3,0,1,0,0,0,1,-1,-1,1.375,1.375,1.375,-0.5625,-0.5625,-0.5625,2.138198,3.105723,7.32397,6.822326,3.063601,8.738639,-0.1994415,-0.485329,1.540983,0.2698185,-0.1987808,1.335732,0.06186751,0.3343369,1.621616,-0.1468247,-0.4812564,1.541177,0.3005831,-0.2152007,1.307,0.037402,-0.1208721,1.643081,0.02813823,-0.4324787,1.632738,-0.1288152,0.07222675,1.640984,-0.05526148,-0.4200626,1.598768,-0.2004539,-0.1902852,1.655196,0.3067234,-0.1450558,1.663617,NA,NA,NotTracked,Unknown,
0.9116211,-0.3496094,-0.08447266,0.9179688,0.300293,0.125,4,-3,-1,-12,-2,-1,-4,-3,0,1,0,0,0,1,-1,-1,1.375,1.375,1.375,-0.5625,-0.5625,-0.5625,2.138198,3.105723,7.32397,6.822326,3.063601,8.738639,-0.1983673,-0.4859729,1.54086,0.2685927,-0.1955726,1.337257,0.06134931,0.3342912,1.622134,-0.146554,-0.4779627,1.541458,0.2994939,-0.2205214,1.309439,0.03702538,-0.1208468,1.643347,0.02779938,-0.43243,1.63291,-0.1290311,0.07212423,1.640973,-0.05566742,-0.4200787,1.599034,-0.2005697,-0.1902614,1.6551,0.3071827,-0.1438863,1.662882,NA,NA,NotTracked,Unknown,
0.9116211,-0.3496094,-0.08447266,0.9179688,0.300293,0.125,4,-3,-1,-12,-2,-1,-4,-3,0,1,0,0,0,1,-1,-1,1.375,1.375,1.375,-0.5625,-0.5625,-0.5625,2.138198,3.105723,7.32397,6.822326,3.063601,8.738639,-0.1984686,-0.4860062,1.542767,0.2648092,-0.1933385,1.342355,0.0604062,0.3342503,1.623015,-0.1433034,-0.4859513,1.534807,0.2167951,-0.1771957,1.351433,0.03640686,-0.1205558,1.644056,0.02725818,-0.4321288,1.633305,-0.129303,0.07210194,1.64126,-0.05622184,-0.4198754,1.599658,-0.2007568,-0.1905474,1.655324,0.3078129,-0.1416669,1.662222,NA,NA,NotTracked,Unknown,
0.9116211,-0.3496094,-0.08447266,0.9179688,0.300293,0.125,4,-3,-1,-12,-2,-1,-4,-3,0,1,0,0,0,1,-1,-1,1.375,1.375,1.375,-0.5625,-0.5625,-0.5625,2.138198,3.105723,7.32397,6.822326,3.063601,8.738639,-0.1978785,-0.4857249,1.543317,0.2640078,-0.1945813,1.339621,0.0599375,0.3341616,1.623387,-0.1434553,-0.472582,1.53819,0.2308194,-0.1722542,1.311625,0.0361544,-0.1204549,1.644217,0.02712346,-0.4319888,1.633364,-0.1295662,0.07213027,1.641572,-0.05635581,-0.4197663,1.599737,-0.2009085,-0.1905579,1.65545,0.3077859,-0.1416212,1.662211,NA,NA,NotTracked,Unknown,
0.9116211,-0.3496094,-0.08447266,0.9179688,0.300293,0.125,4,-3,-1,-12,-2,-1,-4,-3,0,1,0,0,0,1,-1,-1,1.375,1.375,1.375,-0.5625,-0.5625,-0.5625,2.138198,3.105723,7.32397,6.822326,3.063601,8.738639,-0.1982651,-0.4858111,1.545048,0.2632819,-0.1985576,1.340831,0.05945807,0.3342123,1.62401,-0.1436594,-0.4726824,1.538283,0.2092413,-0.1858033,1.348667,0.03604163,-0.1204514,1.644247,0.02672812,-0.4319515,1.633523,-0.1298609,0.07205708,1.64199,-0.05679688,-0.4197409,1.599995,-0.2009793,-0.1905502,1.655755,0.3080197,-0.1417719,1.661636,NA,NA,NotTracked,Unknown,
0.9116211,-0.3496094,-0.08447266,0.9179688,0.300293,0.125,4,-3,-1,-12,-2,-1,-4,-3,0,1,0,0,0,1,-1,-1,1.375,1.375,1.375,-0.5625,-0.5625,-0.5625,2.138198,3.105723,7.32397,6.822326,3.063601,8.738639,-0.1979971,-0.4866547,1.546263,0.2610135,-0.2012759,1.337353,0.05924561,0.3342215,1.624239,-0.1432966,-0.4673373,1.538157,0.2062685,-0.1885815,1.349125,0.0357317,-0.1203436,1.644527,0.02643494,-0.4318558,1.633695,-0.1299834,0.07204758,1.64217,-0.057148,-0.4196699,1.600316,-0.2010086,-0.1905532,1.656166,0.3079974,-0.1418559,1.66158,NA,NA,NotTracked,Unknown,
0.9116211,-0.3496094,-0.08447266,0.9179688,0.300293,0.125,4,-3,-1,-12,-2,-1,-4,-3,0,1,0,0,0,1,-1,-1,1.375,1.375,1.375,-0.5625,-0.5625,-0.5625,2.138198,3.105723,7.32397,6.822326,3.063601,8.738639,-0.1985413,-0.4865584,1.546288,0.2598541,-0.2031392,1.338564,0.05905746,0.3341665,1.624393,-0.1440158,-0.4774201,1.537027,0.2069424,-0.1894449,1.346433,0.03563509,-0.120351,1.64451,0.02615031,-0.431811,1.633767,-0.1300735,0.07204722,1.642246,-0.05746056,-0.4196436,1.600484,-0.2011308,-0.1904825,1.656395,0.3076668,-0.142134,1.661451,NA,NA,NotTracked,Unknown,
0.9116211,-0.3496094,-0.08447266,0.9179688,0.300293,0.125,4,-3,-1,-12,-2,-1,-4,-3,0,1,0,0,0,1,-1,-1,1.375,1.375,1.375,-0.5625,-0.5625,-0.5625,2.138198,3.105723,7.32397,6.822326,3.063601,8.738639,-0.1997327,-0.4862527,1.547817,0.2559505,-0.2050075,1.33939,0.05882696,0.3342484,1.624703,-0.1445732,-0.4743371,1.538678,0.1987041,-0.1985539,1.3355,0.03541707,-0.1203223,1.644655,0.02590461,-0.4317981,1.633859,-0.1302506,0.07205103,1.642419,-0.05776271,-0.4196519,1.600673,-0.2012256,-0.1904906,1.65671,0.3078449,-0.1421571,1.661282,NA,NA,NotTracked,Unknown,
0.9116211,-0.3496094,-0.08447266,0.9179688,0.300293,0.125,4,-3,-1,-12,-2,-1,-4,-3,0,1,0,0,0,1,-1,-1,1.375,1.375,1.375,-0.5625,-0.5625,-0.5625,2.138198,3.105723,7.32397,6.822326,3.063601,8.738639,-0.2005875,-0.4858363,1.548878,0.2546881,-0.2079875,1.340418,0.05862669,0.3342223,1.624752,-0.1441506,-0.4767966,1.537795,0.2243763,-0.1895767,1.299273,0.03522522,-0.1202909,1.644766,0.02572509,-0.4317384,1.633977,-0.1304185,0.07208855,1.642575,-0.05792842,-0.4195884,1.600818,-0.2014645,-0.1907316,1.65739,0.3078207,-0.14238,1.661297,NA,NA,NotTracked,Unknown,
0.9116211,-0.3496094,-0.08447266,0.9179688,0.300293,0.125,4,-3,-1,-12,-2,-1,-4,-3,0,1,0,0,0,1,-1,-1,1.375,1.375,1.375,-0.5625,-0.5625,-0.5625,2.138198,3.105723,7.32397,6.822326,3.063601,8.738639,-0.2013071,-0.486912,1.550749,0.2528311,-0.212814,1.345636,0.05851037,0.3341457,1.624912,-0.1442916,-0.4711293,1.538768,0.2355181,-0.1864666,1.292111,0.03485879,-0.120232,1.644992,0.02538117,-0.4316827,1.634115,-0.1306052,0.07207872,1.642743,-0.05825986,-0.419559,1.601039,-0.2017415,-0.1905604,1.65816,0.3077603,-0.1427104,1.661512,NA,NA,NotTracked,Unknown,
0.9116211,-0.3496094,-0.08447266,0.9179688,0.300293,0.125,4,-3,-1,-12,-2,-1,-4,-3,0,1,0,0,0,1,-1,-1,1.375,1.375,1.375,-0.5625,-0.5625,-0.5625,2.138198,3.105723,7.32397,6.822326,3.063601,8.738639,-0.2027348,-0.4865128,1.551057,0.2510633,-0.2137548,1.34524,0.05845311,0.3341818,1.624979,-0.1440143,-0.4660436,1.539933,0.2184004,-0.1984334,1.3082,0.0348464,-0.1202334,1.644986,0.02524793,-0.4316579,1.6342,-0.1306229,0.07210288,1.642772,-0.05839791,-0.4195574,1.601184,-0.2018299,-0.1905619,1.658502,0.3076809,-0.1431394,1.661629,NA,NA,NotTracked,Unknown,
0.9116211,-0.3496094,-0.08447266,0.9179688,0.300293,0.125,4,-3,-1,-12,-2,-1,-4,-3,0,1,0,0,0,1,-1,-1,1.375,1.375,1.375,-0.5625,-0.5625,-0.5625,2.138198,3.105723,7.32397,6.822326,3.063601,8.738639,-0.2030348,-0.4872117,1.551521,0.2500315,-0.2164461,1.346416,0.05845145,0.3341796,1.624973,-0.1469276,-0.4976757,1.535704,0.2341091,-0.1907556,1.295875,0.03482562,-0.1202267,1.644947,0.0251837,-0.4316197,1.6342,-0.1306891,0.0721418,1.642813,-0.05845098,-0.4195223,1.601191,-0.2019211,-0.1905475,1.658674,0.3074628,-0.1436336,1.661576,NA,NA,NotTracked,Unknown,
0.9116211,-0.3496094,-0.08447266,0.9179688,0.300293,0.125,4,-3,-1,-12,-2,-1,-4,-3,0,1,0,0,0,1,-1,-1,1.375,1.375,1.375,-0.5625,-0.5625,-0.5625,2.138198,3.105723,7.32397,6.822326,3.063601,8.738639,-0.2034654,-0.4876697,1.551017,0.2496049,-0.2197818,1.348494,0.05846728,0.3341673,1.624964,-0.1478188,-0.4737725,1.542577,0.1960149,-0.2092922,1.350333,0.03468961,-0.1201898,1.645023,0.02514321,-0.4316126,1.634213,-0.1307447,0.07215525,1.642811,-0.05848965,-0.4195238,1.601181,-0.2019787,-0.1904992,1.658823,0.3074977,-0.1437887,1.661745,NA,NA,NotTracked,Unknown,
0.9116211,-0.3496094,-0.08447266,0.9179688,0.300293,0.125,4,-3,-1,-12,-2,-1,-4,-3,0,1,0,0,0,1,-1,-1,1.375,1.375,1.375,-0.5625,-0.5625,-0.5625,2.138198,3.105723,7.32397,6.822326,3.063601,8.738639,-0.2034611,-0.4880402,1.549677,0.2476911,-0.2289108,1.349048,0.05852206,0.3340905,1.624885,-0.1492563,-0.4754868,1.544948,0.1922061,-0.2190433,1.358,0.03459634,-0.1201678,1.645079,0.02508214,-0.4316037,1.634227,-0.1307926,0.0721756,1.642841,-0.05853295,-0.4195069,1.601179,-0.201982,-0.1903045,1.658893,0.3073783,-0.1454412,1.661617,NA,NA,NotTracked,Unknown,
0.9116211,-0.3496094,-0.08447266,0.9179688,0.300293,0.125,4,-3,-1,-12,-2,-1,-4,-3,0,1,0,0,0,1,-1,-1,1.375,1.375,1.375,-0.5625,-0.5625,-0.5625,2.138198,3.105723,7.32397,6.822326,3.063601,8.738639,-0.2034137,-0.4878252,1.549598,0.2461506,-0.2319978,1.352039,0.05855498,0.3340673,1.624859,-0.1476907,-0.4816998,1.541237,0.1923424,-0.2228487,1.364143,0.03458553,-0.1201688,1.645042,0.02499621,-0.4315935,1.634233,-0.1307939,0.07218084,1.642819,-0.05858584,-0.4195035,1.60116,-0.2019804,-0.1902947,1.658933,0.3066675,-0.1467727,1.661919,NA,NA,NotTracked,Unknown,
0.9116211,-0.3496094,-0.08447266,0.9179688,0.300293,0.125,4,-3,-1,-12,-2,-1,-4,-3,0,1,0,0,0,1,-1,-1,1.375,1.375,1.375,-0.5625,-0.5625,-0.5625,2.138198,3.105723,7.32397,6.822326,3.063601,8.738639,-0.2021987,-0.4887042,1.549862,0.2443868,-0.2396472,1.353921,0.05862182,0.3341324,1.624908,-0.1490568,-0.4810677,1.543638,0.2018404,-0.2240206,1.377895,0.03455738,-0.1201411,1.645045,0.02495601,-0.4315613,1.634234,-0.1307997,0.07218839,1.642818,-0.05861099,-0.4194886,1.601168,-0.2019949,-0.1902954,1.658939,0.3068828,-0.1471097,1.662169,NA,NA,NotTracked,Unknown,
0.9116211,-0.3496094,-0.08447266,0.9179688,0.300293,0.125,4,-3,-1,-12,-2,-1,-4,-3,0,1,0,0,0,1,-1,-1,1.375,1.375,1.375,-0.5625,-0.5625,-0.5625,2.138198,3.105723,7.32397,6.822326,3.063601,8.738639,-0.20264,-0.4874259,1.547567,0.2451093,-0.2455682,1.353961,0.05871679,0.33412,1.62489,-0.1606356,-0.4682412,1.573535,0.2024049,-0.2280365,1.376647,0.03457977,-0.120126,1.644972,0.02494041,-0.4315189,1.634202,-0.1308146,0.07219128,1.642817,-0.05861738,-0.4194508,1.601146,-0.2019598,-0.1903112,1.65888,0.3065999,-0.1477316,1.662544,NA,NA,NotTracked,Unknown,
0.9116211,-0.3496094,-0.08447266,0.9179688,0.300293,0.125,4,-3,-1,-12,-2,-1,-4,-3,0,1,0,0,0,1,-1,-1,1.375,1.375,1.375,-0.5625,-0.5625,-0.5625,2.138198,3.105723,7.32397,6.822326,3.063601,8.738639,-0.2013817,-0.4875189,1.547672,0.24287,-0.2488908,1.356787,0.05879159,0.3340984,1.624913,-0.1596736,-0.4727206,1.570395,0.194701,-0.2359792,1.371417,0.03454452,-0.1200955,1.644928,0.02490588,-0.4315087,1.634176,-0.1308665,0.07224653,1.642718,-0.058641,-0.4194474,1.601115,-0.201928,-0.1903167,1.658825,0.3066438,-0.147946,1.662705,NA,NA,NotTracked,Unknown,
0.9116211,-0.3496094,-0.08447266,0.9179688,0.300293,0.125,4,-3,-1,-12,-2,-1,-4,-3,0,1,0,0,0,1,-1,-1,1.375,1.375,1.375,-0.5625,-0.5625,-0.5625,2.138198,3.105723,7.32397,6.822326,3.063601,8.738639,-0.2002819,-0.4871712,1.546851,0.2397881,-0.25429,1.357246,0.05918033,0.3342147,1.624786,-0.1599623,-0.479436,1.569946,0.1970046,-0.2378694,1.377867,0.03448197,-0.1200242,1.644788,0.02478939,-0.4314252,1.634069,-0.1308442,0.07231519,1.6424,-0.05870911,-0.4193914,1.600918,-0.2018986,-0.190274,1.658583,0.3072043,-0.1487104,1.662531,NA,NA,NotTracked,Unknown,
0.9116211,-0.3496094,-0.08447266,0.9179688,0.300293,0.125,4,-3,-1,-12,-2,-1,-4,-3,0,1,0,0,0,1,-1,-1,1.375,1.375,1.375,-0.5625,-0.5625,-0.5625,2.138198,3.105723,7.32397,6.822326,3.063601,8.738639,-0.2008288,-0.4862636,1.546499,0.2383317,-0.2554512,1.362221,0.05942966,0.3342781,1.624613,-0.1600412,-0.473412,1.570672,0.1863293,-0.2483672,1.36525,0.03449711,-0.1200335,1.644719,0.02477563,-0.4314322,1.634053,-0.1308027,0.07236336,1.642257,-0.05872898,-0.4194142,1.600842,-0.2018946,-0.1902487,1.658482,0.3078371,-0.149882,1.661565,NA,NA,NotTracked,Unknown,
0.9116211,-0.3496094,-0.08447266,0.9179688,0.300293,0.125,4,-3,-1,-12,-2,-1,-4,-3,0,1,0,0,0,1,-1,-1,1.375,1.375,1.375,-0.5625,-0.5625,-0.5625,2.138198,3.105723,7.32397,6.822326,3.063601,8.738639,-0.2005685,-0.4864754,1.546293,0.2372442,-0.2593167,1.357431,0.05963578,0.3343167,1.624573,-0.1613294,-0.4689033,1.576593,0.1904985,-0.2433329,1.37561,0.03451503,-0.1199875,1.644676,0.02472713,-0.431372,1.634047,-0.1307854,0.07241988,1.64213,-0.05875604,-0.4193552,1.600833,-0.2018741,-0.1902393,1.65829,0.3079368,-0.1504585,1.661952,NA,NA,NotTracked,Unknown,
0.9116211,-0.3496094,-0.08447266,0.9179688,0.300293,0.125,4,-3,-1,-12,-2,-1,-4,-3,0,1,0,0,0,1,-1,-1,1.375,1.375,1.375,-0.5625,-0.5625,-0.5625,2.138198,3.105723,7.32397,6.822326,3.063601,8.738639,-0.201035,-0.4862404,1.544267,0.2354354,-0.2591025,1.357428,0.05982702,0.3342467,1.62439,-0.1598896,-0.4949889,1.56545,0.1900584,-0.2438984,1.375744,0.03455496,-0.1200157,1.644498,0.02472966,-0.4313932,1.633896,-0.1306807,0.07238156,1.641756,-0.05874197,-0.4193795,1.600612,-0.2017686,-0.1903128,1.657805,0.2958105,-0.1463508,1.667108,NA,NA,NotTracked,Unknown,
0.9116211,-0.3496094,-0.08447266,0.9179688,0.300293,0.125,4,-3,-1,-12,-2,-1,-4,-3,0,1,0,0,0,1,-1,-1,1.375,1.375,1.375,-0.5625,-0.5625,-0.5625,2.138198,3.105723,7.32397,6.822326,3.063601,8.738639,-0.2010666,-0.4871038,1.545124,0.2348686,-0.2596422,1.359604,0.05994323,0.3342805,1.62432,-0.1610778,-0.4731394,1.573371,0.1853438,-0.2464214,1.3767,0.03454188,-0.1200134,1.644451,0.02470742,-0.431389,1.633869,-0.1306219,0.07241134,1.641579,-0.05874982,-0.4193782,1.600604,-0.2017397,-0.1903332,1.657684,0.2937797,-0.1457234,1.668129,NA,NA,NotTracked,Unknown,
0.9116211,-0.3496094,-0.08447266,0.9179688,0.300293,0.125,4,-3,-1,-12,-2,-1,-4,-3,0,1,0,0,0,1,-1,-1,1.375,1.375,1.375,-0.5625,-0.5625,-0.5625,2.138198,3.105723,7.32397,6.822326,3.063601,8.738639,-0.2013541,-0.4868837,1.54372,0.2334793,-0.2601919,1.357141,0.06013489,0.3342974,1.624163,-0.1608395,-0.4711186,1.57126,0.1910381,-0.241091,1.378174,0.0345891,-0.1200365,1.644213,0.02469822,-0.4313708,1.633691,-0.1305737,0.07241721,1.641303,-0.0587425,-0.4193419,1.600419,-0.2016661,-0.190173,1.657291,0.2919111,-0.1448746,1.668692,NA,NA,NotTracked,Unknown,
0.9116211,-0.3496094,-0.08447266,0.9179688,0.300293,0.125,4,-3,-1,-12,-2,-1,-4,-3,0,1,0,0,0,1,-1,-1,1.375,1.375,1.375,-0.5625,-0.5625,-0.5625,2.138198,3.105723,7.32397,6.822326,3.063601,8.738639,-0.2014447,-0.4870257,1.543697,0.233756,-0.2599905,1.361303,0.06039236,0.3342236,1.623919,-0.1502172,-0.4711097,1.546418,0.1912041,-0.2420555,1.380272,0.03467772,-0.120052,1.643879,0.02472599,-0.4313525,1.63339,-0.1305719,0.07242836,1.641185,-0.05868235,-0.4193244,1.60006,-0.201575,-0.1902172,1.656943,0.2901012,-0.1443222,1.6693,NA,NA,NotTracked,Unknown,
0.9116211,-0.3496094,-0.08447266,0.9179688,0.300293,0.125,4,-3,-1,-12,-2,-1,-4,-3,0,1,0,0,0,1,-1,-1,1.375,1.375,1.375,-0.5625,-0.5625,-0.5625,2.138198,3.105723,7.32397,6.822326,3.063601,8.738639,-0.2012196,-0.4872435,1.544174,0.2307955,-0.2606693,1.358081,0.06048303,0.3342263,1.623787,-0.1622318,-0.47112,1.573515,0.1885356,-0.2445443,1.381322,0.03465605,-0.120047,1.643763,0.02469855,-0.4313274,1.633255,-0.1305489,0.07238581,1.640963,-0.05871213,-0.4192687,1.599809,-0.2015066,-0.1901841,1.656535,0.289677,-0.1444532,1.669415,NA,NA,NotTracked,Unknown,
0.9116211,-0.3496094,-0.08447266,0.9179688,0.300293,0.125,4,-3,-1,-12,-2,-1,-4,-3,0,1,0,0,0,1,-1,-1,1.375,1.375,1.375,-0.5625,-0.5625,-0.5625,2.138198,3.105723,7.32397,6.822326,3.063601,8.738639,-0.2013004,-0.4873567,1.543312,0.229946,-0.2607932,1.358196,0.06054964,0.3342281,1.62371,-0.1483399,-0.4902492,1.536474,0.1813363,-0.2487479,1.38325,0.03467135,-0.120025,1.643677,0.02471967,-0.4312895,1.633077,-0.1305541,0.07238387,1.640962,-0.05868177,-0.419222,1.599521,-0.2015347,-0.1902348,1.656337,0.2892213,-0.1446027,1.669603,NA,NA,NotTracked,Unknown,
0.9116211,-0.3496094,-0.08447266,0.9179688,0.300293,0.125,4,-3,-1,-12,-2,-1,-4,-3,0,1,0,0,0,1,-1,-1,1.375,1.375,1.375,-0.5625,-0.5625,-0.5625,2.138198,3.105723,7.32397,6.822326,3.063601,8.738639,-0.201968,-0.4864016,1.542968,0.230413,-0.260418,1.358537,0.06066141,0.3342593,1.623491,-0.1511532,-0.4707299,1.546554,0.1873427,-0.2429517,1.380082,0.03480992,-0.1200424,1.643395,0.02479786,-0.4312634,1.632875,-0.1303805,0.07242201,1.640431,-0.05856421,-0.4191986,1.599278,-0.2015279,-0.1902343,1.656037,0.2888925,-0.1447233,1.66975,NA,NA,NotTracked,Unknown,
0.9116211,-0.3496094,-0.08447266,0.9179688,0.300293,0.125,4,-3,-1,-12,-2,-1,-4,-3,0,1,0,0,0,1,-1,-1,1.375,1.375,1.375,-0.5625,-0.5625,-0.5625,2.138198,3.105723,7.32397,6.822326,3.063601,8.738639,-0.201236,-0.4860792,1.54389,0.2305113,-0.2589048,1.35925,0.06085455,0.3342347,1.623399,-0.1591655,-0.4772185,1.565865,0.1921476,-0.2396659,1.384432,0.03485981,-0.1200307,1.643223,0.02485363,-0.4311953,1.632677,-0.130324,0.07241539,1.640292,-0.05848901,-0.419114,1.598913,-0.2015301,-0.1902273,1.655902,0.2888177,-0.1447774,1.669708,NA,NA,NotTracked,Unknown,
0.9116211,-0.3496094,-0.08447266,0.9179688,0.300293,0.125,4,-3,-1,-12,-2,-1,-4,-3,0,1,0,0,0,1,-1,-1,1.375,1.375,1.375,-0.5625,-0.5625,-0.5625,2.138198,3.105723,7.32397,6.822326,3.063601,8.738639,-0.2007912,-0.4867786,1.543601,0.2287353,-0.2554839,1.359617,0.06110322,0.334169,1.622875,-0.1502271,-0.4680231,1.546403,0.1816729,-0.2424153,1.378307,0.03494295,-0.120048,1.6428,0.02498243,-0.4311957,1.632259,-0.13018,0.07229943,1.63982,-0.05831453,-0.4191676,1.598482,-0.2013191,-0.1904332,1.655592,0.2885793,-0.1449358,1.669481,NA,NA,NotTracked,Unknown,
0.9116211,-0.3496094,-0.08447266,0.9179688,0.300293,0.125,4,-3,-1,-12,-2,-1,-4,-3,0,1,0,0,0,1,-1,-1,1.375,1.375,1.375,-0.5625,-0.5625,-0.5625,2.138198,3.105723,7.32397,6.822326,3.063601,8.738639,-0.2008559,-0.4866084,1.543948,0.2276986,-0.2556528,1.35485,0.06112769,0.3341649,1.622854,-0.1609304,-0.470015,1.570367,0.183312,-0.2410916,1.376922,0.03498516,-0.1200521,1.642589,0.02500313,-0.4311377,1.631964,-0.1300653,0.07229979,1.639501,-0.05828077,-0.4190996,1.598185,-0.2012606,-0.1904948,1.655382,0.2883515,-0.1451138,1.669172,NA,NA,NotTracked,Unknown,
0.9116211,-0.3496094,-0.08447266,0.9179688,0.300293,0.125,4,-3,-1,-12,-2,-1,-4,-3,0,1,0,0,0,1,-1,-1,1.375,1.375,1.375,-0.5625,-0.5625,-0.5625,2.138198,3.105723,7.32397,6.822326,3.063601,8.738639,-0.200551,-0.4874438,1.544349,0.2273471,-0.2535448,1.35371,0.0612529,0.3341762,1.622554,-0.1486963,-0.4703317,1.541641,0.1834807,-0.2361855,1.381658,0.03508033,-0.1200879,1.642359,0.02507268,-0.4311676,1.631707,-0.1299814,0.07226617,1.639347,-0.05820105,-0.4191156,1.597924,-0.2012133,-0.1905106,1.655295,0.2883737,-0.1451768,1.669071,NA,NA,NotTracked,Unknown,
0.9116211,-0.3496094,-0.08447266,0.9179688,0.300293,0.125,4,-3,-1,-12,-2,-1,-4,-3,0,1,0,0,0,1,-1,-1,1.375,1.375,1.375,-0.5625,-0.5625,-0.5625,2.138198,3.105723,7.32397,6.822326,3.063601,8.738639,-0.1998846,-0.4866919,1.544168,0.2264605,-0.2520068,1.351189,0.06138416,0.3342363,1.622288,-0.1598768,-0.4710791,1.56931,0.1836059,-0.2326167,1.376421,0.03513431,-0.1200515,1.642134,0.02511243,-0.4311775,1.631417,-0.1299188,0.07222854,1.639105,-0.05816304,-0.41913,1.597703,-0.2011324,-0.1907855,1.655147,0.2883275,-0.1452966,1.668876,NA,NA,NotTracked,Unknown,
0.9116211,-0.3496094,-0.08447266,0.9179688,0.300293,0.125,4,-3,-1,-12,-2,-1,-4,-3,0,1,0,0,0,1,-1,-1,1.375,1.375,1.375,-0.5625,-0.5625,-0.5625,2.138198,3.105723,7.32397,6.822326,3.063601,8.738639,-0.2003822,-0.4873133,1.545778,0.2264074,-0.2496229,1.351709,0.06146004,0.3342859,1.622277,-0.1576585,-0.4686958,1.564454,0.1800939,-0.2357349,1.375319,0.03516771,-0.1200247,1.641977,0.02508592,-0.4311405,1.631247,-0.1298154,0.07229242,1.63888,-0.05817388,-0.419106,1.597584,-0.2010843,-0.1907667,1.655123,0.2882476,-0.1453249,1.668785,NA,NA,NotTracked,Unknown,
0.9116211,-0.3496094,-0.08447266,0.9179688,0.300293,0.125,4,-3,-1,-12,-2,-1,-4,-3,0,1,0,0,0,1,-1,-1,1.375,1.375,1.375,-0.5625,-0.5625,-0.5625,2.138198,3.105723,7.32397,6.822326,3.063601,8.738639,-0.2005124,-0.4872875,1.544464,0.2266516,-0.2454957,1.352223,0.06156202,0.334311,1.622111,-0.1464071,-0.4979559,1.530234,0.1728713,-0.2356441,1.361,0.03523239,-0.1199904,1.641733,0.0251227,-0.4310947,1.631011,-0.1297288,0.07229314,1.638691,-0.0581468,-0.4190654,1.597398,-0.2009943,-0.1908533,1.65495,0.2883742,-0.145456,1.668166,NA,NA,NotTracked,Unknown,
0.9116211,-0.3496094,-0.08447266,0.9179688,0.300293,0.125,4,-3,-1,-12,-2,-1,-4,-3,0,1,0,0,0,1,-1,-1,1.375,1.375,1.375,-0.5625,-0.5625,-0.5625,2.138198,3.105723,7.32397,6.822326,3.063601,8.738639,-0.2011516,-0.4867844,1.545404,0.2265967,-0.2425112,1.350605,0.06188964,0.3343848,1.621635,-0.1581688,-0.4745336,1.562104,0.1864482,-0.2238844,1.378667,0.03532967,-0.1199933,1.641192,0.02516727,-0.4310468,1.630366,-0.129596,0.07230256,1.638272,-0.05811509,-0.4190028,1.596787,-0.2008635,-0.1909684,1.654789,0.2883871,-0.1455377,1.667907,NA,NA,NotTracked,Closed,
0.9116211,-0.3496094,-0.08447266,0.9179688,0.300293,0.125,4,-3,-1,-12,-2,-1,-4,-3,0,1,0,0,0,1,-1,-1,1.375,1.375,1.375,-0.5625,-0.5625,-0.5625,2.138198,3.105723,7.32397,6.822326,3.063601,8.738639,-0.2003844,-0.4875228,1.545032,0.2253853,-0.2427519,1.349711,0.06196125,0.3343551,1.621441,-0.1499436,-0.4699146,1.544093,0.1809575,-0.2289084,1.37743,0.03538112,-0.1200079,1.641025,0.02521265,-0.4310507,1.630195,-0.1296102,0.07222337,1.638144,-0.05806447,-0.4190218,1.596647,-0.2007722,-0.1909984,1.654725,0.3023945,-0.1484722,1.658604,NA,NA,NotTracked,Unknown,
0.2963867,0.7802734,0.5961914,0.9179688,0.300293,0.125,4,-3,-1,-12,-2,-1,-4,-3,0,1,0,0,0,1,-1,-1,2.875,2.875,2.875,-0.5625,-0.5625,-0.5625,6.452304,4.537937,4.768063,6.822326,3.063601,8.738639,-0.1998324,-0.487506,1.544974,0.2266847,-0.2413895,1.351058,0.06207985,0.3343351,1.621255,-0.1604488,-0.4817419,1.566815,0.1839026,-0.2249602,1.380303,0.03532447,-0.119963,1.640811,0.0251906,-0.4310324,1.630036,-0.1296199,0.07221553,1.638112,-0.05808458,-0.4189909,1.596514,-0.2007565,-0.1910173,1.654718,0.3060328,-0.1498574,1.655812,NA,NA,NotTracked,Unknown,
0.2963867,0.7802734,0.5961914,0.9179688,0.300293,0.125,-2,-5,-3,-1,-3,1,0,-6,0,1,0,0,0,1,-1,-1,2.875,2.875,2.875,-0.5625,-0.5625,-0.5625,6.452304,4.537937,4.768063,6.822326,3.063601,8.738639,-0.2003497,-0.4869251,1.543679,0.2266155,-0.2396149,1.351104,0.06214234,0.3344594,1.621123,-0.1498579,-0.4695802,1.543053,0.1817517,-0.2277,1.373893,0.03532615,-0.1199759,1.640454,0.02516224,-0.4310627,1.62969,-0.1295769,0.07207268,1.637879,-0.05811381,-0.4189901,1.596208,-0.2006216,-0.1911048,1.65457,0.3076729,-0.1503286,1.654082,NA,NA,NotTracked,Closed,
0.293457,0.7612305,0.5986328,0.9179688,0.300293,0.125,-1,-3,-1,-1,-3,-2,-1,2,0,1,0,0,0,1,-1,-1,0.625,0.625,0.625,-0.5625,-0.5625,-0.5625,6.452496,4.538361,4.766717,6.822326,3.063601,8.738639,-0.1999937,-0.487221,1.544254,0.2276842,-0.240422,1.350938,0.0621751,0.3344471,1.621036,-0.1495645,-0.4690434,1.543626,0.1825843,-0.2271799,1.375162,0.03534041,-0.1199806,1.640263,0.02512716,-0.4310845,1.629479,-0.1296315,0.07208801,1.63801,-0.05814173,-0.4189847,1.595959,-0.2003798,-0.1910868,1.654491,0.309005,-0.1506984,1.653236,NA,NA,NotTracked,Closed,
0.2973633,0.7646484,0.6079102,0.9179688,0.300293,0.125,-3,-1,1,0,-2,-1,-1,-2,0,1,0,0,0,1,-1,-1,3.8125,3.8125,3.8125,-0.5625,-0.5625,-0.5625,6.454157,4.538305,4.765944,6.822326,3.063601,8.738639,-0.2003517,-0.4865028,1.543988,0.2277222,-0.2406077,1.350282,0.06221382,0.3344181,1.620952,-0.1439631,-0.4652923,1.534214,0.1827135,-0.2267904,1.375916,0.03537271,-0.1200156,1.640053,0.02516128,-0.4311568,1.629322,-0.1295897,0.0720332,1.637908,-0.05811967,-0.4190576,1.595777,-0.2001873,-0.1910535,1.654352,0.309865,-0.1510645,1.652305,NA,NA,NotTracked,Unknown,
0.2832031,0.7792969,0.6069336,0.9179688,0.300293,0.125,1,5,4,0,-3,0,-1,1,0,1,0,0,0,1,-1,-1,2.125,2.125,2.125,-0.5625,-0.5625,-0.5625,6.457991,4.539626,4.764159,6.822326,3.063601,8.738639,-0.1989155,-0.4867076,1.542909,0.2276221,-0.2404155,1.350072,0.06244539,0.3343073,1.620483,-0.1432163,-0.4639285,1.532192,0.1711363,-0.2337428,1.357,0.03544386,-0.1199666,1.639498,0.02533354,-0.4310779,1.628795,-0.1294807,0.07200758,1.637516,-0.05795528,-0.4190062,1.59532,-0.1999066,-0.1912021,1.654038,0.3120772,-0.1511596,1.650588,NA,NA,NotTracked,Unknown,
0.2880859,0.7626953,0.6083984,0.9179688,0.300293,0.125,6,1,-5,-2,-1,-2,0,2,0,1,0,0,0,1,-1,-1,3.0625,3.0625,3.0625,-0.5625,-0.5625,-0.5625,6.459578,4.540607,4.763054,6.822326,3.063601,8.738639,-0.1986355,-0.4862795,1.5432,0.2277377,-0.2400257,1.350507,0.06254964,0.3344179,1.620087,-0.1435319,-0.4709435,1.532435,0.1838264,-0.2234554,1.372154,0.03544366,-0.1199432,1.639359,0.02532928,-0.4310796,1.628687,-0.1293969,0.07202505,1.637255,-0.05795807,-0.4190059,1.595229,-0.1997792,-0.1912528,1.653871,0.3130617,-0.1509794,1.649554,NA,NA,NotTracked,Unknown,
0.284668,0.7729492,0.5996094,0.9179688,0.300293,0.125,2,-4,-3,-2,0,-3,-2,-3,0,1,0,0,0,1,-1,-1,-0.0625,-0.0625,-0.0625,-0.5625,-0.5625,-0.5625,6.46063,4.542258,4.763267,6.822326,3.063601,8.738639,-0.1980313,-0.4860029,1.542078,0.2266897,-0.2397681,1.350199,0.06256001,0.3344861,1.619844,-0.142827,-0.4785869,1.529017,0.1757078,-0.2292678,1.36486,0.03546088,-0.1199051,1.639112,0.02536361,-0.4310399,1.628466,-0.1293224,0.07198387,1.636886,-0.05792737,-0.4189659,1.595031,-0.1996227,-0.1913666,1.653701,0.3140078,-0.1506131,1.649426,NA,NA,NotTracked,Unknown,
0.2763672,0.7563477,0.5961914,0.9179688,0.300293,0.125,-3,0,0,-4,-2,-1,-1,1,0,1,0,0,0,1,-1,-1,-1,-1,-1,-0.5625,-0.5625,-0.5625,6.457958,4.544008,4.764632,6.822326,3.063601,8.738639,-0.1972396,-0.4882793,1.54105,0.2253515,-0.2397293,1.348742,0.06255336,0.3344759,1.619574,-0.143394,-0.4672072,1.532306,0.175411,-0.2291582,1.364014,0.0355272,-0.1199144,1.638705,0.02536968,-0.4310311,1.62821,-0.1292551,0.07194942,1.636577,-0.05792936,-0.41897,1.594915,-0.199596,-0.1913498,1.653496,0.3147711,-0.1505173,1.648599,NA,NA,NotTracked,Unknown,
0.2758789,0.762207,0.5976563,0.9179688,0.300293,0.125,-4,0,-4,-3,1,0,0,0,0,1,0,0,0,1,-1,-1,1.5,1.5,1.5,-0.5625,-0.5625,-0.5625,6.457829,4.544939,4.76685,6.822326,3.063601,8.738639,-0.1976472,-0.4882942,1.541555,0.2257966,-0.2403597,1.350238,0.06259513,0.3344679,1.619399,-0.1436207,-0.4680847,1.532913,0.1777767,-0.2288621,1.36741,0.03558607,-0.1199423,1.638446,0.02539917,-0.4310342,1.628104,-0.1292201,0.07195839,1.636439,-0.05789798,-0.4189678,1.594809,-0.1994575,-0.1914327,1.653277,0.315191,-0.1507038,1.6481,NA,NA,NotTracked,Unknown,
0.2773438,0.7763672,0.6000977,0.9179688,0.300293,0.125,2,1,-1,0,-3,1,-3,-2,0,1,0,0,0,1,-1,-1,-1.25,-1.25,-1.25,-0.5625,-0.5625,-0.5625,6.456742,4.545742,4.767451,6.822326,3.063601,8.738639,-0.1968253,-0.4882294,1.540587,0.224351,-0.2400853,1.347942,0.0626762,0.3343317,1.618843,-0.1428717,-0.4672286,1.530685,0.1772411,-0.227297,1.367235,0.03559443,-0.119962,1.638119,0.02538102,-0.431043,1.627835,-0.1291422,0.0719276,1.636043,-0.05791937,-0.4189578,1.594543,-0.1993128,-0.1915907,1.653063,0.3156983,-0.1510713,1.64737,NA,NA,NotTracked,Unknown,
0.2885742,0.7768555,0.6035156,0.9179688,0.300293,0.125,1,0,0,0,2,0,1,0,0,1,0,0,0,1,-1,-1,-1.4375,-1.4375,-1.4375,-0.5625,-0.5625,-0.5625,6.454398,4.546313,4.769019,6.822326,3.063601,8.738639,-0.1967106,-0.4880514,1.540756,0.2222326,-0.2390199,1.348328,0.0626998,0.3344667,1.618658,-0.1430428,-0.4688823,1.530757,0.1774563,-0.2248103,1.373451,0.03564676,-0.119974,1.637819,0.02542715,-0.4310097,1.627512,-0.1290827,0.07180271,1.635667,-0.0578723,-0.4189363,1.594221,-0.1989643,-0.1916977,1.652502,0.3160098,-0.1508508,1.647061,NA,NA,NotTracked,Unknown,
0.2807617,0.7988281,0.6005859,0.9179688,0.300293,0.125,-1,-2,-3,-3,-2,-1,0,-1,0,1,0,0,0,1,-1,-1,-2,-2,-2,-0.5625,-0.5625,-0.5625,6.452049,4.548876,4.77051,6.822326,3.063601,8.738639,-0.1960992,-0.4881624,1.539461,0.2210495,-0.237925,1.349375,0.06272279,0.3344678,1.618479,-0.1434358,-0.4694614,1.531965,0.1772285,-0.2233006,1.371973,0.03566787,-0.1199864,1.637743,0.02547625,-0.4310153,1.627326,-0.1290856,0.07170805,1.635233,-0.05781706,-0.4189535,1.594036,-0.1988531,-0.1917427,1.652299,0.3176753,-0.1504409,1.646721,NA,NA,NotTracked,Unknown,
0.2714844,0.7978516,0.6123047,0.9179688,0.300293,0.125,-1,1,-1,-4,-2,-1,1,-2,0,1,0,0,0,1,-1,-1,-6.6875,-6.6875,-6.6875,-0.5625,-0.5625,-0.5625,6.445871,4.554603,4.772716,6.822326,3.063601,8.738639,-0.1961375,-0.4888439,1.540295,0.2206199,-0.237224,1.350664,0.0627531,0.3344836,1.618319,-0.1432014,-0.4695538,1.531554,0.1743262,-0.2203217,1.376909,0.0357066,-0.1200032,1.637664,0.02554366,-0.4310376,1.627148,-0.1290462,0.07170206,1.635025,-0.05774529,-0.4189782,1.593799,-0.1986775,-0.1915572,1.652073,0.3183608,-0.1502019,1.645967,NA,NA,NotTracked,Unknown,
0.2670898,0.8295898,0.6132813,0.9179688,0.300293,0.125,2,-3,-7,-3,-1,-1,-1,4,0,1,0,0,0,1,-1,-1,-10.125,-10.125,-10.125,-0.5625,-0.5625,-0.5625,6.436992,4.574086,4.771889,6.822326,3.063601,8.738639,-0.1956061,-0.4891838,1.538617,0.220328,-0.2350713,1.352344,0.06279169,0.3345014,1.61822,-0.1432304,-0.4697592,1.531709,0.1757977,-0.2170169,1.37039,0.03577907,-0.1199676,1.63753,0.02565696,-0.430921,1.626934,-0.1291411,0.0717306,1.635211,-0.05760608,-0.4188714,1.593674,-0.1985923,-0.1915528,1.651925,0.3192209,-0.1497259,1.645628,NA,NA,NotTracked,Unknown,
0.2631836,0.8046875,0.6210938,0.9179688,0.300293,0.125,-3,-2,-6,-1,1,-1,-2,-4,0,1,0,0,0,1,-1,-1,-15.8125,-15.8125,-15.8125,-0.5625,-0.5625,-0.5625,6.428991,4.582364,4.771421,6.822326,3.063601,8.738639,-0.1952075,-0.4892233,1.537873,0.2168299,-0.233949,1.352622,0.06276105,0.3345891,1.618111,-0.1421325,-0.4701461,1.528393,0.1741228,-0.2099107,1.372727,0.03576989,-0.119974,1.637438,0.02561595,-0.4309296,1.626693,-0.1291936,0.07170421,1.635319,-0.05764262,-0.4188645,1.593433,-0.1984754,-0.1915018,1.651777,0.3198791,-0.1489455,1.645341,NA,NA,NotTracked,Unknown,
0.2563477,0.734375,0.6523438,0.9179688,0.300293,0.125,0,1,-1,-2,-1,-1,0,0,0,1,0,0,0,1,-1,-1,-18.375,-18.375,-18.375,-0.5625,-0.5625,-0.5625,6.405817,4.599032,4.775026,6.822326,3.063601,8.738639,-0.1949569,-0.4886374,1.536603,0.2119664,-0.2249187,1.35549,0.06281648,0.3346659,1.617957,-0.1560576,-0.4796073,1.555359,0.1771139,-0.1928434,1.378846,0.03579926,-0.1199383,1.637033,0.02559309,-0.4308804,1.626177,-0.1291078,0.07170101,1.634907,-0.05767484,-0.4187713,1.592792,-0.1982444,-0.1912634,1.651402,0.3245615,-0.14613,1.645538,NA,NA,NotTracked,Closed,
0.222168,0.7260742,0.6474609,0.9179688,0.300293,0.125,0,-2,-2,1,-1,-2,1,-9,0,1,0,0,0,1,-1,-1,-7.9375,-7.9375,-7.9375,-0.5625,-0.5625,-0.5625,6.389009,4.618068,4.78002,6.822326,3.063601,8.738639,-0.1946464,-0.4876455,1.534006,0.2106771,-0.2206863,1.354,0.06284197,0.3346892,1.617886,-0.1535807,-0.4773637,1.550274,0.1753346,-0.1900855,1.375,0.03583735,-0.1199584,1.636827,0.02563974,-0.43088,1.625716,-0.1289941,0.07159724,1.63442,-0.05765265,-0.4187063,1.592343,-0.1981514,-0.1912007,1.651093,0.3256393,-0.1454577,1.645437,NA,NA,NotTracked,Unknown,
0.199707,0.7758789,0.6381836,0.9179688,0.300293,0.125,4,2,-4,-4,0,0,-2,-6,0,1,0,0,0,1,-1,-1,-4.375,-4.375,-4.375,-0.5625,-0.5625,-0.5625,6.384701,4.640019,4.782186,6.822326,3.063601,8.738639,-0.1938176,-0.4873207,1.532905,0.2093796,-0.2172248,1.352753,0.06287155,0.3347641,1.61767,-0.141903,-0.4698634,1.527529,0.1807186,-0.1795004,1.377769,0.03581942,-0.1199326,1.636682,0.02555591,-0.4307959,1.625347,-0.1291008,0.07160745,1.63468,-0.05774311,-0.4185509,1.591887,-0.1981484,-0.1911834,1.650964,0.3278157,-0.1443731,1.64513,NA,NA,NotTracked,Unknown,
0.1875,0.7441406,0.6547852,0.9179688,0.300293,0.125,1,-2,-1,4,-2,-2,1,-5,0,1,0,0,0,1,-1,-1,-13.125,-13.125,-13.125,-0.5625,-0.5625,-0.5625,6.371053,4.66165,4.784561,6.822326,3.063601,8.738639,-0.1940893,-0.4858222,1.530806,0.2094087,-0.2132161,1.352766,0.06290738,0.3348367,1.61753,-0.1472838,-0.4730294,1.537926,0.1759724,-0.17631,1.373833,0.03578489,-0.1199263,1.636501,0.02541991,-0.4307667,1.624875,-0.1290494,0.07164953,1.634252,-0.05787522,-0.4184707,1.591441,-0.1981008,-0.1911347,1.650727,0.3299789,-0.1440087,1.644534,NA,NA,NotTracked,Unknown,
