ALX,ALY,ALZ,ARX,ARY,ARZ,EMG0L,EMG1L,EMG2L,EMG3L,EMG4L,EMG5L,EMG6L,EMG7L,EMG0R,EMG1R,EMG2R,EMG3R,EMG4R,EMG5R,EMG6R,EMG7R,GLX,GLY,GLZ,GRX,GRY,GRZ,ORL,OPL,OYL,ORR,OPR,OYR,LHNX,LHNY,LHNZ,RHNX,RHNY,RHNZ,HX,HY,HZ,LTX,LTY,LTZ,RTX,RTY,RTZ,SpineMidX,SpineMidY,SpineMidZ,SpineBaseX,SpineBaseY,SpineBaseZ,ShoulderLeftX,ShoulderLeftY,ShoulderLeftZ,ShoulderRightX,ShoulderRightY,ShoulderRightZ,ElbowLeftX,ElbowLeftY,ElbowLeftZ,ElbowRightX,ElbowRightY,ElbowRightZ,Myo_Pose_left,Myo_Pose_Right,Kinect_pose_left,Kinect_pose_right
-0.1088867,-0.9243164,0.4433594,-0.06640625,0.7807617,0.6674805,2,-2,-5,4,0,1,3,-1,3,3,-1,-6,6,-3,-7,-4,-0.5,-0.5,-0.5,-0.75,-0.75,-0.75,3.207692,5.131318,5.103149,6.380351,5.093857,1.389176,0.03119387,-0.1129687,1.545907,0.169698,-0.1260984,1.546799,0.1072794,0.3362693,1.709333,-0.004226038,-0.08810843,1.467806,0.1475028,-0.199633,1.563483,0.09315746,-0.1144225,1.724541,0.08736916,-0.4208196,1.707467,-0.07691513,0.07233796,1.733262,0.004518926,-0.4104781,1.676025,-0.2117538,-0.1683692,1.755924,0.361763,-0.139079,1.702358,NA,NA,NotTracked,NotTracked,
-0.1020508,-0.934082,0.4458008,-0.06005859,0.7695313,0.6665039,-3,-2,2,1,-5,-16,-11,-8,0,7,3,0,-2,0,1,0,0.1875,0.1875,0.1875,-1.1875,-1.1875,-1.1875,3.208647,5.130464,5.103699,6.377529,5.09034,1.387129,0.03185578,-0.1130617,1.54608,0.1691354,-0.1264114,1.546721,0.1073499,0.3362576,1.709343,-0.003133899,-0.1163773,1.47534,0.1470002,-0.1997567,1.563018,0.09311253,-0.1143929,1.724217,0.08722407,-0.4206754,1.706727,-0.07692454,0.07232103,1.733216,0.004378843,-0.4102925,1.675164,-0.2085279,-0.1671979,1.757048,0.3616572,-0.1388326,1.702306,NA,NA,NotTracked,NotTracked,
-0.1049805,-0.9101563,0.4394531,-0.06542969,0.78125,0.6567383,-1,0,-2,1,3,18,1,1,-2,-4,1,30,-9,0,1,0,0.9375,0.9375,0.9375,-1.375,-1.375,-1.375,3.208859,5.130891,5.103671,6.376756,5.087835,1.386131,0.03170416,-0.112913,1.545763,0.169254,-0.1253067,1.546723,0.1074048,0.3362834,1.709368,-0.004312532,-0.08892959,1.467753,0.1099257,-0.09156874,1.482,0.09309469,-0.1144208,1.723868,0.08726883,-0.4206276,1.706173,-0.07696442,0.07221873,1.733073,0.004429519,-0.4102627,1.67464,-0.2098076,-0.167638,1.760277,0.3615152,-0.1386686,1.702194,NA,NA,NotTracked,NotTracked,
-0.09765625,-0.909668,0.4384766,-0.06347656,0.7524414,0.6601563,0,-3,-1,0,5,12,4,4,0,7,2,-9,-2,-1,-2,0,-0.3125,-0.3125,-0.3125,-0.8125,-0.8125,-0.8125,3.208897,5.132559,5.103764,6.375138,5.08686,1.386247,0.03241123,-0.1130652,1.544861,0.1690232,-0.123665,1.54569,0.1075233,0.3362873,1.709305,-0.002187051,-0.1153411,1.471173,0.1375096,-0.1934668,1.559499,0.09307556,-0.1143952,1.723572,0.08730129,-0.4205652,1.705718,-0.07680897,0.07226244,1.732516,0.004454438,-0.4101981,1.674283,-0.2105128,-0.1679467,1.758149,0.3614359,-0.1383919,1.702005,NA,NA,NotTracked,NotTracked,
-0.09228516,-0.9169922,0.4394531,-0.05810547,0.7880859,0.6645508,0,-1,1,-2,-1,-6,2,1,-5,-3,3,-7,-4,-2,-4,-2,-1.0625,-1.0625,-1.0625,4.75,4.75,4.75,3.208199,5.135597,5.104147,6.379631,5.086842,1.385438,0.03172211,-0.1132591,1.54494,0.1691729,-0.1237731,1.545886,0.1075547,0.3362986,1.7093,0.002793985,-0.06836564,1.467854,0.1417468,-0.1913149,1.561887,0.0930665,-0.1143945,1.723207,0.0872976,-0.4206291,1.705261,-0.07662267,0.07219085,1.732203,0.004454524,-0.4102626,1.673912,-0.2123677,-0.1652884,1.763315,0.3614566,-0.1384313,1.701557,NA,NA,NotTracked,NotTracked,
-0.07470703,-0.925293,0.4541016,-0.06445313,0.7680664,0.6582031,-1,0,3,0,-6,-17,-5,2,2,4,4,8,1,0,-5,-5,-0.1875,-0.1875,-0.1875,-2.8125,-2.8125,-2.8125,3.208451,5.13608,5.103841,6.377944,5.086504,1.384673,0.03159865,-0.1114453,1.541314,0.1693316,-0.1229076,1.54559,0.1076436,0.3363447,1.709282,0.002082561,-0.06920127,1.46666,0.1443178,-0.1930545,1.56157,0.09320447,-0.1143035,1.722591,0.08736384,-0.4204773,1.704633,-0.07660157,0.07227781,1.731865,0.004528766,-0.4101233,1.673441,-0.2111965,-0.1657292,1.766524,0.3615114,-0.1381057,1.701243,NA,NA,NotTracked,NotTracked,
-0.07519531,-0.9130859,0.4375,-0.05126953,0.7504883,0.6713867,2,1,1,-2,2,11,3,-1,0,0,-1,3,2,-3,2,0,0.5,0.5,0.5,1.1875,1.1875,1.1875,3.209325,5.136952,5.102396,6.376264,5.082923,1.381247,0.03271893,-0.1123157,1.542001,0.169861,-0.1222697,1.545113,0.1076427,0.336345,1.709255,0.002753665,-0.06804273,1.468495,0.1354352,-0.1890823,1.559895,0.09324761,-0.114281,1.722371,0.08739483,-0.4204642,1.704486,-0.07639986,0.07234157,1.731339,0.004563504,-0.4101107,1.673316,-0.2110506,-0.1657698,1.766617,0.3617793,-0.1377089,1.701425,NA,NA,NotTracked,NotTracked,
-0.08007813,-0.902832,0.4389648,-0.06005859,0.7446289,0.6118164,0,-3,2,-9,0,6,-3,-2,-4,-2,-3,-3,-3,-2,-1,2,-0.0625,-0.0625,-0.0625,-3.1875,-3.1875,-3.1875,3.209577,5.136795,5.101799,6.374782,5.072678,1.373387,0.03371534,-0.1122269,1.54138,0.1692732,-0.1222668,1.544031,0.1077387,0.3363456,1.709203,0.002940706,-0.06855615,1.465896,0.1350769,-0.1909812,1.558913,0.09328279,-0.1142735,1.722143,0.08741861,-0.4204177,1.704284,-0.07635962,0.07239307,1.731094,0.004580822,-0.4100611,1.673186,-0.2111378,-0.165622,1.766558,0.3621059,-0.1374728,1.701405,NA,NA,NotTracked,NotTracked,
-0.0703125,-0.8657227,0.4111328,-0.01416016,0.6914063,0.6381836,-2,-1,19,8,-2,-1,1,-3,-2,-1,1,0,1,0,-3,-1,-1.75,-1.75,-1.75,-1.6875,-1.6875,-1.6875,3.207751,5.126738,5.095906,6.368279,5.048856,1.36047,0.03392946,-0.1112581,1.539732,0.1693725,-0.1200052,1.54277,0.1078549,0.3363305,1.708995,0.003536925,-0.07088517,1.465934,0.1434649,-0.1861214,1.561121,0.09326713,-0.1143687,1.721614,0.08748774,-0.420507,1.703787,-0.07620595,0.07225554,1.730318,0.004635749,-0.4101619,1.672621,-0.2106433,-0.1660693,1.766688,0.3622005,-0.1373123,1.701221,NA,NA,NotTracked,NotTracked,
-0.03466797,-0.8847656,0.4306641,-0.07519531,0.6650391,0.5512695,-1,1,-4,-11,-2,0,2,-1,3,4,0,-3,-2,0,0,2,-3.4375,-3.4375,-3.4375,6,6,6,3.202978,5.106492,5.092946,6.373316,5.010812,1.340503,0.03540511,-0.1130426,1.540735,0.1705,-0.1220285,1.541518,0.1079133,0.336306,1.708873,0.004872908,-0.07301569,1.465463,0.1449004,-0.187697,1.562024,0.09339216,-0.1143819,1.721145,0.08754395,-0.4204902,1.703487,-0.0762003,0.0722618,1.729745,0.004694425,-0.4101524,1.672348,-0.2105203,-0.1663273,1.766894,0.3626097,-0.1369439,1.700834,NA,NA,NotTracked,NotTracked,
-0.06738281,-0.8930664,0.4052734,-0.06005859,0.5996094,0.4902344,1,0,-6,-3,0,-1,3,0,2,2,-3,0,1,-2,-3,-1,-7.375,-7.375,-7.375,5.375,5.375,5.375,3.198505,5.096198,5.093421,6.381073,4.938671,1.317214,0.03500062,-0.1151814,1.536356,0.1762446,-0.1442855,1.533192,0.1081136,0.3361871,1.708042,-0.003543079,-0.103346,1.465789,0.14631,-0.2055066,1.558472,0.09344508,-0.1142926,1.72046,0.08769533,-0.4203996,1.703117,-0.07596276,0.07229975,1.72814,0.004784184,-0.410096,1.672152,-0.2060901,-0.164781,1.763486,0.3624981,-0.1363793,1.700679,NA,NA,NotTracked,NotTracked,
-0.04003906,-0.8237305,0.362793,0.1264648,0.6064453,0.590332,-1,0,-1,-2,-3,-5,-5,-6,0,3,1,0,-2,1,0,-1,-19.75,-19.75,-19.75,29.875,29.875,29.875,3.173075,5.041542,5.105749,6.405277,4.836252,1.286888,0.03302434,-0.1227299,1.53478,0.1794276,-0.1561577,1.527082,0.1082835,0.336291,1.707547,0.01298884,-0.07822214,1.489304,0.1574214,-0.2168295,1.561048,0.09356524,-0.1140892,1.720013,0.08779368,-0.4203227,1.702918,-0.07570524,0.07243188,1.727101,0.004848915,-0.4100227,1.671963,-0.2071425,-0.1645146,1.7626,0.422838,-0.1537397,1.714416,NA,NA,NotTracked,NotTracked,
-0.03417969,-0.7807617,0.3115234,-0.03955078,0.6640625,0.3569336,1,-1,-6,-3,1,1,0,1,16,9,9,2,3,2,0,3,-17.75,-17.75,-17.75,29,29,29,3.151341,4.973815,5.124103,6.446229,4.712656,1.24755,0.032525,-0.1354813,1.532282,0.1831651,-0.1698649,1.521148,0.1083907,0.3362995,1.707305,0.04714297,-0.06988417,1.580517,0.1562972,-0.1120393,1.57583,0.09376393,-0.1140056,1.719671,0.08782613,-0.4203016,1.702802,-0.07578528,0.0724486,1.726757,0.004856288,-0.4100001,1.671889,-0.2085971,-0.1611779,1.762722,0.4219053,-0.1524206,1.714207,NA,NA,NotTracked,NotTracked,
0.02734375,-0.7548828,0.3164063,0.1796875,0.6577148,0.4331055,0,1,11,-1,-1,-1,-3,-3,1,2,-2,-3,-3,0,0,-1,-23.75,-23.75,-23.75,50.6875,50.6875,50.6875,3.137498,4.929533,5.138303,6.50269,4.531174,1.210332,0.0307156,-0.1558383,1.526594,0.1950782,-0.2017271,1.508103,0.1083953,0.3363836,1.706881,0.05484549,-0.09785888,1.571408,0.173015,-0.2572008,1.557099,0.09377658,-0.1139658,1.719458,0.08786035,-0.42031,1.702736,-0.07580731,0.07268053,1.726419,0.004865692,-0.4099975,1.671854,-0.209402,-0.1574419,1.761018,0.4139616,-0.1429525,1.716801,NA,NA,NotTracked,NotTracked,
0.07177734,-0.7470703,0.2446289,0.4038086,0.5717773,0.4628906,-4,0,-9,0,0,-2,-1,0,4,-4,-9,-8,-3,0,-3,0,-11.5,-11.5,-11.5,19.375,19.375,19.375,3.091418,4.756846,5.191608,6.559575,4.315884,1.165347,0.02886165,-0.1793806,1.524478,0.1979507,-0.2323651,1.495352,0.108466,0.3361447,1.706315,0.06255522,-0.1223372,1.562575,0.1518884,-0.22388,1.557462,0.09382156,-0.1140468,1.719212,0.08787251,-0.4204605,1.702576,-0.07586887,0.0728102,1.726013,0.004882205,-0.4101185,1.671738,-0.2077452,-0.1479499,1.759854,0.3468552,-0.1391481,1.718214,NA,NA,NotTracked,NotTracked,
0.2866211,-0.7368164,0.2963867,0.5366211,0.6557617,0.3984375,-1,-1,-7,0,-5,2,-15,-5,-3,-2,2,2,2,1,2,-2,-21.6875,-21.6875,-21.6875,37.625,37.625,37.625,3.068679,4.592959,5.236301,6.626016,4.109381,1.09614,0.02076052,-0.2113931,1.520049,0.214028,-0.2632271,1.50186,0.1085797,0.3360312,1.706027,0.05579928,-0.1616438,1.560161,0.188144,-0.3205198,1.557,0.09376338,-0.1141214,1.718992,0.08781844,-0.4206716,1.702404,-0.0759464,0.07308869,1.725622,0.004827766,-0.4102779,1.67161,-0.2054937,-0.1455785,1.758733,0.3468542,-0.139044,1.718309,NA,NA,NotTracked,Unknown,
0.2807617,-0.8149414,0.2792969,0.7119141,0.7114258,0.4946289,-2,-3,-4,0,2,3,2,-2,-3,-4,-3,0,-1,-4,-4,-1,-46.5625,-46.5625,-46.5625,11,11,11,3.035068,4.511494,5.263748,6.69354,3.914245,1.015886,0.001809277,-0.2820768,1.520162,0.2424483,-0.3486864,1.496243,0.1087207,0.3360936,1.705582,0.05691057,-0.2477719,1.557168,0.1951725,-0.3535686,1.576988,0.09372747,-0.1143983,1.71851,0.08754436,-0.421864,1.701879,-0.07609516,0.07327459,1.725071,0.004487571,-0.4113709,1.671063,-0.150389,-0.1436521,1.741146,0.3448628,-0.1420861,1.718409,NA,NA,Unknown,Unknown,
0.6049805,-0.7861328,0.2963867,0.8022461,0.6279297,0.3662109,-1,-4,-3,-3,1,-3,4,-1,3,3,-21,-3,2,2,0,2,-7.375,-7.375,-7.375,-15,-15,-15,2.962463,4.215709,5.368217,6.738384,3.71335,0.9297957,-0.01027314,-0.3204481,1.523096,0.2472062,-0.3857193,1.521424,0.108804,0.3360902,1.705348,0.04739108,-0.2831615,1.560496,0.2014138,-0.3958255,1.574213,0.09396509,-0.114714,1.718171,0.08825652,-0.422777,1.701333,-0.07620203,0.07335389,1.724856,0.005035196,-0.4125298,1.670469,-0.1499679,-0.1437581,1.740923,0.3424802,-0.1550291,1.714952,NA,NA,Closed,Unknown,
0.5449219,-0.8041992,0.1796875,1.035645,0.5556641,0.2695313,1,0,-2,2,3,-1,0,0,1,-4,-7,-2,-3,-2,0,-2,-12.1875,-12.1875,-12.1875,0.5,0.5,0.5,2.90251,4.01081,5.449218,6.830802,3.532687,0.8136985,-0.02250235,-0.356403,1.538223,0.2761484,-0.4112665,1.504484,0.1090008,0.3361478,1.705103,0.03428768,-0.3358969,1.573,0.243182,-0.4532456,1.514429,0.09498872,-0.115148,1.717647,0.09055591,-0.4241976,1.70047,-0.07610569,0.07332058,1.724389,0.006936361,-0.4145673,1.669588,-0.147875,-0.1450237,1.739392,0.3408447,-0.1639569,1.710929,NA,NA,Closed,Unknown,
0.7724609,-0.8012695,0.2011719,1.09082,0.5678711,0.2373047,-2,0,-1,-1,-2,1,-1,-3,-2,3,10,4,-1,1,-2,0,1.4375,1.4375,1.4375,-11,-11,-11,2.87363,3.903622,5.498162,6.9148,3.380526,0.6994033,-0.03358136,-0.3800131,1.553224,0.2859069,-0.4424964,1.516669,0.1091655,0.336053,1.704891,0.01992152,-0.3831227,1.574467,0.2529806,-0.4296876,1.497645,0.0958436,-0.1156755,1.717194,0.09349053,-0.4259021,1.69986,-0.07630086,0.07285585,1.723703,0.00944509,-0.4167202,1.668951,-0.1461653,-0.1503593,1.737471,0.3389565,-0.1718495,1.707598,NA,NA,Unknown,Unknown,
0.9111328,-0.7475586,0.1381836,1.083008,0.4741211,0.1772461,1,0,0,2,-2,2,0,2,-1,-6,-2,-1,-3,-2,-2,-1,-5.5,-5.5,-5.5,-16.375,-16.375,-16.375,2.766588,3.644638,5.633601,7.002972,3.243469,0.5789905,-0.08418477,-0.426096,1.554815,0.299901,-0.483047,1.548033,0.109481,0.3361497,1.704261,-0.04707041,-0.4569305,1.5616,0.2701678,-0.472736,1.576125,0.09736631,-0.1165473,1.716644,0.09657556,-0.4278884,1.699713,-0.07611815,0.07225522,1.722269,0.01221181,-0.418833,1.668606,-0.1420837,-0.166182,1.73185,0.3369859,-0.1829867,1.701717,NA,NA,Unknown,Unknown,
0.9111328,-0.7475586,0.1381836,1.022949,0.4165039,0.1181641,-2,-1,-2,-3,-3,1,1,-3,-3,-5,1,-3,-1,-1,-1,-1,-5.5,-5.5,-5.5,-11.125,-11.125,-11.125,2.766588,3.644638,5.633601,7.093495,3.141892,0.4616951,-0.09252213,-0.4436274,1.571868,0.3032869,-0.4967222,1.563699,0.1097433,0.3361418,1.704009,-0.04976139,-0.4248687,1.586118,0.290833,-0.5340436,1.585111,0.09765661,-0.11672,1.716496,0.09684888,-0.4282354,1.699716,-0.07592811,0.07175784,1.721605,0.01246664,-0.4191416,1.668617,-0.1406913,-0.1726998,1.730754,0.3362247,-0.1842102,1.701247,NA,NA,Unknown,NotTracked,
0.8881836,-0.5712891,0.121582,1.001465,0.3808594,0.07128906,2,0,0,-2,-1,1,4,-2,-1,-1,-2,1,0,0,-3,0,25.25,25.25,25.25,-6.875,-6.875,-6.875,2.640482,3.412137,5.835843,7.186019,3.076034,0.3525776,-0.09956346,-0.4586032,1.584322,0.3030392,-0.5038739,1.578113,0.1099879,0.3360397,1.703515,-0.05022781,-0.4320366,1.58248,0.2532235,-0.463643,1.600154,0.09786189,-0.1170256,1.716063,0.09702551,-0.4285604,1.699436,-0.07586592,0.07144816,1.720954,0.0125935,-0.4193603,1.668374,-0.1399232,-0.1778336,1.728482,0.3344122,-0.1879713,1.699712,NA,NA,Unknown,NotTracked,
0.987793,-0.5058594,0.07568359,0.9956055,0.3974609,0.06298828,-2,-1,-4,-1,-2,-3,-1,-2,0,4,4,0,0,0,0,-1,36.5,36.5,36.5,-5.5625,-5.5625,-5.5625,2.427847,3.227231,6.143521,7.252895,3.036533,0.2761104,-0.1077311,-0.4749347,1.597232,0.3031524,-0.50845,1.590633,0.110166,0.3360573,1.703047,-0.05709541,-0.4539477,1.584365,0.2491493,-0.4846779,1.594645,0.09792017,-0.117265,1.7158,0.09693287,-0.4287937,1.69939,-0.07569162,0.07119684,1.720237,0.01253006,-0.4194757,1.668318,-0.1392472,-0.1813323,1.727792,0.3332252,-0.1915893,1.699243,NA,NA,Unknown,NotTracked,
1.060059,-0.3969727,-0.0234375,0.9873047,0.3867188,0.05664063,-2,-1,0,0,0,-4,-4,1,0,-2,0,-2,0,-3,0,2,39.6875,39.6875,39.6875,-12,-12,-12,2.256398,3.135791,6.383922,7.271871,3.017029,0.2431262,-0.1159439,-0.4884063,1.611066,0.3035953,-0.5112313,1.600238,0.1104754,0.3359967,1.702685,-0.06092462,-0.4771908,1.583678,0.2487994,-0.5065666,1.595214,0.09791015,-0.1174396,1.715703,0.09669807,-0.4290679,1.699477,-0.07565651,0.07087561,1.719824,0.01239008,-0.4196019,1.668357,-0.1387505,-0.1854098,1.726965,0.3325862,-0.1935539,1.699585,NA,NA,NotTracked,NotTracked,
1.071777,-0.3461914,-0.06835938,0.9306641,0.3535156,0.07128906,-1,0,-1,0,-2,0,-1,-2,3,-3,1,2,-1,3,-1,-1,28.5,28.5,28.5,-5.1875,-5.1875,-5.1875,2.163879,3.099257,6.501205,7.254333,3.011935,0.2520337,-0.1333226,-0.506144,1.632088,0.3014673,-0.5135881,1.608671,0.11085,0.3360644,1.701776,-0.07803103,-0.4854117,1.598656,0.2467452,-0.4872055,1.589741,0.09785812,-0.1177632,1.715217,0.09583531,-0.4299773,1.699446,-0.07532898,0.07026384,1.718563,0.01168842,-0.4201307,1.66818,-0.1382505,-0.1916736,1.72563,0.331423,-0.1978214,1.701246,NA,NA,NotTracked,NotTracked,
1.060059,-0.3046875,-0.1254883,0.9248047,0.3579102,0.08886719,2,0,0,0,1,0,-2,1,0,-2,-5,-3,-1,-1,1,-2,-1.0625,-1.0625,-1.0625,6.8125,6.8125,6.8125,1.997575,3.046234,6.685838,7.225532,3.015974,0.286559,-0.1376047,-0.5096775,1.640131,0.3011191,-0.5113512,1.611266,0.1111335,0.33608,1.701396,-0.08173998,-0.4876144,1.6023,0.2484569,-0.4832912,1.591999,0.09781681,-0.1179375,1.714936,0.09554792,-0.4301884,1.699357,-0.07518615,0.07003711,1.71795,0.01144466,-0.4202382,1.668161,-0.1384084,-0.194867,1.725933,0.3310965,-0.1991343,1.702748,NA,NA,NotTracked,NotTracked,
1.023926,-0.331543,-0.121582,0.8979492,0.362793,0.08935547,-6,-2,-2,0,-1,-2,9,-4,-1,-2,0,1,1,-3,-3,-2,-13.125,-13.125,-13.125,5.6875,5.6875,5.6875,1.936145,3.030611,6.743267,7.196583,3.027651,0.325204,-0.1392327,-0.5107846,1.646659,0.3002959,-0.5110465,1.612886,0.111377,0.3358979,1.700734,-0.08339591,-0.4880167,1.605211,0.2467684,-0.5011001,1.591036,0.09782048,-0.1179892,1.714849,0.09528312,-0.4302841,1.699397,-0.07519484,0.06984368,1.717628,0.01123048,-0.420249,1.668211,-0.1387063,-0.1960075,1.726556,0.3312083,-0.1994418,1.704051,NA,NA,NotTracked,NotTracked,
0.9619141,-0.3896484,-0.03955078,0.8852539,0.3496094,0.09863281,1,1,1,-1,1,-1,-1,2,-1,-3,-3,0,1,-3,-2,-1,-4.0625,-4.0625,-4.0625,0.4375,0.4375,0.4375,1.893814,3.009855,6.772964,7.165234,3.042142,0.3589398,-0.1397495,-0.5104734,1.650226,0.2994498,-0.5107126,1.611592,0.1116051,0.3359078,1.700223,-0.08605484,-0.4846913,1.608491,0.2463451,-0.5045557,1.589637,0.09769857,-0.1181814,1.714607,0.09491207,-0.4304829,1.69941,-0.07526115,0.06977248,1.717381,0.01094853,-0.4203625,1.66824,-0.1389598,-0.1968976,1.727572,0.3312633,-0.1997379,1.705561,NA,NA,NotTracked,NotTracked,
0.9140625,-0.3740234,-0.04882813,0.8789063,0.3486328,0.1098633,-1,2,-3,2,-1,-2,-5,-1,0,1,-1,1,0,0,-2,1,0.625,0.625,0.625,-1.1875,-1.1875,-1.1875,1.915092,3.009117,6.752186,7.146296,3.054797,0.377626,-0.1387119,-0.5077658,1.651642,0.298686,-0.5096262,1.610331,0.1118069,0.3359389,1.699408,-0.08639837,-0.4831156,1.607122,0.2476529,-0.5014267,1.59166,0.09768575,-0.1182481,1.714383,0.09459949,-0.4305961,1.69934,-0.07518193,0.06969431,1.717024,0.01068057,-0.4204094,1.668119,-0.1391125,-0.1971953,1.72838,0.3316402,-0.1996577,1.706915,NA,NA,NotTracked,NotTracked,
0.9072266,-0.3691406,-0.03955078,0.8886719,0.3344727,0.1108398,-2,-2,0,-1,-1,1,-1,-3,0,-3,-5,-1,-1,-1,0,-2,5.75,5.75,5.75,-4.375,-4.375,-4.375,1.935676,3.011034,6.735114,7.134485,3.064416,0.3844045,-0.1387442,-0.5089051,1.65344,0.2982762,-0.5089197,1.610024,0.1118389,0.3359576,1.699316,-0.08696105,-0.4948951,1.607,0.2498211,-0.4715671,1.594027,0.09759992,-0.1182931,1.714287,0.09440419,-0.4305755,1.699317,-0.07523578,0.06974362,1.71699,0.01046284,-0.4203644,1.668013,-0.1395519,-0.1987778,1.730193,0.3318948,-0.1997122,1.708125,NA,NA,NotTracked,NotTracked,
0.9135742,-0.3217773,-0.08007813,0.8979492,0.3300781,0.09912109,3,-1,-1,-2,-2,1,-1,13,1,0,-1,-4,0,0,2,0,4.6875,4.6875,4.6875,-4.25,-4.25,-4.25,1.980231,3.015074,6.701986,7.13347,3.06771,0.3825966,-0.137044,-0.5084878,1.652027,0.2981252,-0.5088029,1.607154,0.1121967,0.3357538,1.698644,-0.08552763,-0.4849351,1.606681,0.2477735,-0.4945307,1.591741,0.09736302,-0.1184838,1.71412,0.0936209,-0.4308905,1.699431,-0.0753529,0.06976309,1.716834,0.009800421,-0.4205205,1.667946,-0.1396015,-0.1997021,1.731651,0.3320002,-0.1998345,1.709638,NA,NA,NotTracked,NotTracked,
0.9399414,-0.3139648,-0.08789063,0.9179688,0.3295898,0.08886719,1,0,0,-1,-2,-1,-1,-3,2,2,1,2,-1,-1,-1,0,-8.0625,-8.0625,-8.0625,-5,-5,-5,2.002586,3.019004,6.673109,7.140026,3.074853,0.3661838,-0.1354592,-0.5078704,1.650017,0.298409,-0.508013,1.606773,0.1122407,0.3357781,1.698532,-0.08533035,-0.4836937,1.606373,0.2494926,-0.4726655,1.594189,0.0972477,-0.1185671,1.714064,0.09342593,-0.4309742,1.699472,-0.07539385,0.06973155,1.716767,0.009664034,-0.4205264,1.667953,-0.1395182,-0.199792,1.731989,0.3320014,-0.1999671,1.710148,NA,NA,NotTracked,NotTracked,
0.9550781,-0.3193359,-0.0859375,0.9213867,0.3242188,0.078125,-1,0,-1,-3,-4,-1,0,-3,-2,-1,-3,-3,0,-1,-1,-2,-11.875,-11.875,-11.875,-3.8125,-3.8125,-3.8125,2.032847,3.026243,6.619288,7.145042,3.075742,0.358746,-0.1344015,-0.5069125,1.648699,0.2990618,-0.5075893,1.607182,0.1122758,0.3358062,1.698525,-0.0851049,-0.4824787,1.60693,0.2482664,-0.4857606,1.593637,0.09722412,-0.1185741,1.714057,0.09319704,-0.430998,1.699535,-0.07539404,0.0697294,1.71676,0.009426786,-0.4205007,1.66799,-0.1395424,-0.1998167,1.732617,0.3320722,-0.2000752,1.710564,NA,NA,NotTracked,NotTracked,
0.9584961,-0.3125,-0.08691406,0.9228516,0.324707,0.07324219,-2,-3,-2,-1,-1,2,-3,1,-5,-3,0,-2,-1,-2,-2,2,-10.9375,-10.9375,-10.9375,-2.5,-2.5,-2.5,2.044454,3.028514,6.600621,7.153286,3.078966,0.3465396,-0.1334983,-0.503877,1.645847,0.2983018,-0.5085359,1.604062,0.1123537,0.3357686,1.698177,-0.085857,-0.4727205,1.606864,0.2717047,-0.4938993,1.633455,0.09714684,-0.1186074,1.714001,0.09290867,-0.4310323,1.699535,-0.07540915,0.06966357,1.716618,0.009166305,-0.4205089,1.667966,-0.1395302,-0.1997758,1.73262,0.3320847,-0.2000852,1.710567,NA,NA,NotTracked,NotTracked,
0.9541016,-0.3007813,-0.09619141,0.9194336,0.3291016,0.06982422,-5,0,-5,-1,-1,-2,-1,-3,-1,-2,-1,4,-2,-1,-1,-1,-9.0625,-9.0625,-9.0625,-2.375,-2.375,-2.375,2.072688,3.03448,6.55953,7.159748,3.085988,0.3362979,-0.1316286,-0.5025359,1.642711,0.2991333,-0.5090474,1.603549,0.1124256,0.3357311,1.69795,-0.08559199,-0.4709021,1.606739,0.270751,-0.495528,1.633211,0.0969524,-0.1187383,1.713974,0.09239931,-0.4312101,1.699696,-0.07542644,0.06966417,1.716575,0.008751082,-0.4205807,1.668122,-0.1393777,-0.1997399,1.732682,0.3320696,-0.2001,1.710597,NA,NA,NotTracked,NotTracked,
0.9433594,-0.3037109,-0.09130859,0.9174805,0.3276367,0.07763672,-3,1,-2,-3,0,-1,-2,-2,0,2,-3,-3,-1,-1,-1,2,-8.6875,-8.6875,-8.6875,-3.4375,-3.4375,-3.4375,2.086475,3.03742,6.539666,7.159999,3.08892,0.3336981,-0.1285537,-0.5013711,1.637016,0.2994816,-0.5087384,1.599864,0.112593,0.3357049,1.697816,-0.08197345,-0.4734503,1.60291,0.2645442,-0.5105199,1.623542,0.09673475,-0.118852,1.713948,0.09210327,-0.4312622,1.699806,-0.07547994,0.06968118,1.71647,0.008462307,-0.4205376,1.668158,-0.1391662,-0.1996892,1.732733,0.3320182,-0.2002239,1.710633,NA,NA,NotTracked,NotTracked,
0.9326172,-0.3095703,-0.09082031,0.9140625,0.3364258,0.08642578,4,-3,-2,-2,-2,-1,-3,0,-1,-4,-1,0,-3,0,1,-1,-6.75,-6.75,-6.75,-3,-3,-3,2.12185,3.047767,6.489339,7.16135,3.09381,0.3284572,-0.127283,-0.5001001,1.635536,0.2999087,-0.5088364,1.599732,0.1126857,0.3357162,1.697795,-0.0803737,-0.465134,1.601932,0.2467376,-0.490785,1.594167,0.09673083,-0.1188552,1.713933,0.09195942,-0.4312882,1.699824,-0.07553358,0.06970705,1.71646,0.008344641,-0.4205215,1.668136,-0.1391389,-0.199483,1.732668,0.3320184,-0.2002562,1.710635,NA,NA,NotTracked,NotTracked,
0.9257813,-0.3032227,-0.08691406,0.9130859,0.3320313,0.08691406,0,-3,-3,1,-1,0,-1,-1,3,5,-5,2,1,-1,0,1,-6.0625,-6.0625,-6.0625,-2.8125,-2.8125,-2.8125,2.13632,3.053592,6.466545,7.164176,3.097882,0.3214611,-0.1265554,-0.4994938,1.634156,0.3002605,-0.5082214,1.599999,0.1127431,0.3356528,1.697777,-0.07894953,-0.4715215,1.600779,0.2584111,-0.5281617,1.613544,0.09659636,-0.1189214,1.714013,0.09165284,-0.4313302,1.700068,-0.07559003,0.06977008,1.716448,0.008108813,-0.4204907,1.668288,-0.1391457,-0.1992895,1.732609,0.3320186,-0.20028,1.710663,NA,NA,NotTracked,NotTracked,
0.9204102,-0.3076172,-0.08447266,0.9194336,0.3364258,0.08154297,-2,1,-1,0,-2,1,1,-1,-2,1,0,-1,0,-1,1,-2,-6.1875,-6.1875,-6.1875,-2.875,-2.875,-2.875,2.139077,3.055861,6.459752,7.168173,3.100147,0.3134308,-0.1255586,-0.4996482,1.632023,0.3005929,-0.5075648,1.598267,0.1127718,0.335603,1.697653,-0.07818326,-0.4668961,1.598977,0.2480538,-0.4673193,1.595816,0.09652225,-0.1189676,1.713983,0.09144108,-0.4313437,1.700098,-0.07560771,0.0697576,1.716347,0.007888977,-0.4204532,1.668276,-0.1390476,-0.199175,1.73241,0.3320117,-0.200312,1.710636,NA,NA,NotTracked,NotTracked,
0.9467773,-0.3061523,-0.08642578,0.9169922,0.3310547,0.07714844,0,-3,1,0,0,-1,-2,5,0,-1,-1,-2,0,-3,1,0,-4.5625,-4.5625,-4.5625,-3.0625,-3.0625,-3.0625,2.128974,3.059117,6.460939,7.171686,3.100683,0.3059846,-0.1253379,-0.5017133,1.631454,0.3008484,-0.5079792,1.598589,0.1127712,0.3356026,1.697662,-0.07696457,-0.4710689,1.597805,0.2612995,-0.5082868,1.619453,0.0964204,-0.1190416,1.714037,0.09127441,-0.4313812,1.700222,-0.0756651,0.06979226,1.716301,0.007745702,-0.4204575,1.66835,-0.13903,-0.1987123,1.732141,0.332001,-0.2003221,1.710616,NA,NA,NotTracked,NotTracked,
0.9472656,-0.3032227,-0.0859375,0.909668,0.3310547,0.08203125,0,-1,0,1,-2,1,-3,-4,0,1,-3,-1,-1,0,0,-2,-4.0625,-4.0625,-4.0625,-1.8125,-1.8125,-1.8125,2.12104,3.059807,6.464657,7.174798,3.101055,0.2997884,-0.1253675,-0.4992677,1.631082,0.3012242,-0.508656,1.597818,0.112762,0.3356012,1.697716,-0.07501782,-0.494063,1.593162,0.2484236,-0.4709675,1.597857,0.09638081,-0.1190667,1.71408,0.09121361,-0.4313867,1.700273,-0.07565971,0.06981177,1.716213,0.007687093,-0.420454,1.668376,-0.1390288,-0.1986634,1.732089,0.3320013,-0.2003284,1.710617,NA,NA,NotTracked,NotTracked,
0.9570313,-0.3051758,-0.07373047,0.9033203,0.3417969,0.08203125,-8,-2,-1,0,0,-4,0,0,0,-3,0,1,-1,0,-1,-1,-4.3125,-4.3125,-4.3125,-0.4375,-0.4375,-0.4375,2.118495,3.059543,6.464734,7.179968,3.100588,0.2930383,-0.1258392,-0.4982983,1.630774,0.3015409,-0.5083185,1.597431,0.1127604,0.3356001,1.697814,-0.07643934,-0.4738728,1.596633,0.2606438,-0.5083393,1.617333,0.09624673,-0.1191423,1.714202,0.09100419,-0.4314614,1.700419,-0.07575502,0.0698295,1.716211,0.007510677,-0.4204888,1.668388,-0.1392198,-0.19828,1.731452,0.3319476,-0.200406,1.710558,NA,NA,NotTracked,NotTracked,
0.9414063,-0.3071289,-0.07226563,0.9018555,0.3432617,0.09130859,-2,0,-1,2,1,-1,-2,0,-2,1,-2,-5,-1,0,0,-2,-1.9375,-1.9375,-1.9375,-0.3125,-0.3125,-0.3125,2.117599,3.058911,6.461508,7.185253,3.099822,0.2863194,-0.1255615,-0.4987898,1.630013,0.3020467,-0.5077406,1.59698,0.1127595,0.3355751,1.697841,-0.07639146,-0.4697614,1.596619,0.2578678,-0.5184854,1.612191,0.09617106,-0.119105,1.714204,0.09070359,-0.4313673,1.700427,-0.07576445,0.06985278,1.716183,0.007147885,-0.4203145,1.66836,-0.1393144,-0.1980355,1.731235,0.3318951,-0.2004949,1.710564,NA,NA,NotTracked,NotTracked,
0.9418945,-0.3222656,-0.06982422,0.90625,0.347168,0.08935547,0,-2,1,-1,1,-2,2,-1,3,2,-1,2,2,-1,-3,0,-2.125,-2.125,-2.125,-0.0625,-0.0625,-0.0625,2.117659,3.057159,6.459108,7.192776,3.09806,0.2773997,-0.1257953,-0.4984563,1.629658,0.302141,-0.5074158,1.597606,0.1126931,0.3355898,1.697878,-0.07632139,-0.4734606,1.596118,0.2589053,-0.5049891,1.615053,0.09611242,-0.1191022,1.714247,0.09058122,-0.4313668,1.700491,-0.07585856,0.06989588,1.716183,0.00705377,-0.4203004,1.668377,-0.1393985,-0.1980699,1.730841,0.3318418,-0.2005916,1.710524,NA,NA,NotTracked,NotTracked,
0.9365234,-0.3154297,-0.078125,0.9130859,0.3466797,0.0859375,-4,0,1,3,0,0,6,-2,-2,-1,-3,1,-1,-3,-2,-1,-0.5625,-0.5625,-0.5625,-0.4375,-0.4375,-0.4375,2.117659,3.057159,6.459108,7.201212,3.095535,0.2672351,-0.1262678,-0.4977949,1.630222,0.3019362,-0.5082072,1.596979,0.1126444,0.3355933,1.697909,-0.07668185,-0.4723681,1.596298,0.2474954,-0.4683695,1.597179,0.09607801,-0.119103,1.714253,0.09053866,-0.431373,1.700505,-0.07595291,0.06987391,1.715991,0.006988333,-0.420312,1.668366,-0.1396149,-0.1979533,1.73059,0.3317381,-0.2006693,1.710533,NA,NA,NotTracked,NotTracked,
0.9399414,-0.3183594,-0.07275391,0.9130859,0.3461914,0.08789063,0,-1,-2,-1,1,1,2,-1,1,-4,-2,-2,-1,-1,-2,-1,-3.125,-3.125,-3.125,0.375,0.375,0.375,2.111974,3.05291,6.46116,7.20806,3.09331,0.2593388,-0.1261019,-0.4980429,1.630748,0.3018419,-0.5085425,1.598014,0.1124944,0.3355296,1.698033,-0.076442,-0.4732883,1.595874,0.247724,-0.5095562,1.599286,0.09586166,-0.1191303,1.714324,0.09035077,-0.4313789,1.700587,-0.0762614,0.06991391,1.716011,0.006755729,-0.4203002,1.668406,-0.139733,-0.1976902,1.73021,0.3316554,-0.2007662,1.710423,NA,NA,NotTracked,NotTracked,
0.9399414,-0.3183594,-0.07275391,0.9111328,0.3442383,0.07666016,-1,-2,-1,-2,0,-1,0,0,-1,-5,-3,-2,-2,0,1,-2,-3.125,-3.125,-3.125,-1.1875,-1.1875,-1.1875,2.111974,3.05291,6.46116,7.214752,3.090428,0.2508068,-0.1271242,-0.4985325,1.632029,0.3024893,-0.508638,1.599259,0.1123635,0.3355758,1.698134,-0.07646675,-0.4735599,1.596278,0.2473982,-0.4712984,1.599259,0.095691,-0.1191116,1.714411,0.09020333,-0.4312836,1.70071,-0.07650302,0.06996316,1.716022,0.006619027,-0.4202149,1.668474,-0.1397952,-0.197679,1.730152,0.3314211,-0.2008441,1.710443,NA,NA,NotTracked,NotTracked,
0.949707,-0.3286133,-0.07470703,0.9150391,0.3461914,0.08789063,0,-2,0,0,0,0,-3,3,-1,1,4,-1,-1,1,0,1,-1.1875,-1.1875,-1.1875,-0.3125,-0.3125,-0.3125,2.110466,3.049349,6.458786,7.214926,3.090085,0.2497853,-0.1267332,-0.4983417,1.632064,0.3026391,-0.5079633,1.598984,0.1121885,0.335513,1.69828,-0.07643098,-0.4719015,1.595927,0.258366,-0.5081915,1.617342,0.0955526,-0.1191041,1.714429,0.09012952,-0.4312607,1.700741,-0.07659184,0.06995651,1.715986,0.006524496,-0.4201768,1.668498,-0.1399536,-0.1975526,1.729985,0.3312565,-0.2009244,1.710521,NA,NA,NotTracked,NotTracked,
0.934082,-0.3212891,-0.07373047,0.9018555,0.3598633,0.07714844,0,1,-1,-2,-1,-3,-5,-1,-2,0,0,-2,1,-2,2,-3,-0.3125,-0.3125,-0.3125,1.3125,1.3125,1.3125,2.111063,3.048781,6.4573,7.219059,3.089881,0.2465808,-0.1266879,-0.4985954,1.632472,0.3028198,-0.5078387,1.599275,0.1119745,0.3355149,1.698514,-0.07655618,-0.4736791,1.596405,0.2518129,-0.5018504,1.607717,0.0953745,-0.1190615,1.714543,0.08994987,-0.4311993,1.700933,-0.07698452,0.06996553,1.716089,0.006357494,-0.4201249,1.668589,-0.1400964,-0.1975365,1.72985,0.331145,-0.2008598,1.710531,NA,NA,NotTracked,NotTracked,
0.9282227,-0.3208008,-0.07080078,0.9033203,0.34375,0.08056641,-3,-2,0,1,0,0,-2,-1,-2,-3,3,2,0,-1,0,1,-1.4375,-1.4375,-1.4375,0.875,0.875,0.875,2.111827,3.048698,6.455936,7.221422,3.090522,0.2438731,-0.1269262,-0.4976665,1.632015,0.3031065,-0.5080054,1.599517,0.111759,0.3355565,1.698725,-0.07643875,-0.4733481,1.596023,0.251632,-0.5026704,1.608172,0.09501407,-0.1191126,1.714647,0.08959815,-0.431177,1.701069,-0.07722543,0.0699809,1.716027,0.006017305,-0.4200662,1.668672,-0.1402101,-0.197635,1.729791,0.3307201,-0.2007527,1.71074,NA,NA,NotTracked,NotTracked,
0.9306641,-0.3251953,-0.07324219,0.9111328,0.3564453,0.08691406,-2,-1,-2,0,-2,0,-1,-2,-2,-6,1,-5,-1,1,-1,-2,-1.5625,-1.5625,-1.5625,-0.0625,-0.0625,-0.0625,2.110487,3.04883,6.456638,7.223477,3.090766,0.2420212,-0.1273668,-0.4985637,1.631948,0.3032159,-0.5078605,1.598165,0.1115843,0.3355348,1.698731,-0.07713103,-0.4638516,1.597102,0.2508079,-0.4734199,1.606314,0.09475492,-0.119077,1.714709,0.0893827,-0.4311752,1.701204,-0.0774864,0.06994104,1.715967,0.005808369,-0.4200715,1.668804,-0.1404464,-0.1976285,1.729722,0.330513,-0.200737,1.710802,NA,NA,NotTracked,NotTracked,
0.9306641,-0.3251953,-0.07324219,0.9111328,0.3564453,0.08691406,-2,-1,-2,0,-2,0,-1,-2,-2,-6,1,-5,-1,1,-1,-2,-1.5625,-1.5625,-1.5625,-0.0625,-0.0625,-0.0625,2.110487,3.04883,6.456638,7.223477,3.090766,0.2420212,-0.1274059,-0.4981681,1.632493,0.3028455,-0.5084019,1.598867,0.1112916,0.3355462,1.698853,-0.07678952,-0.470828,1.59664,0.2523797,-0.485938,1.60871,0.09456155,-0.1191138,1.714823,0.08904374,-0.4311716,1.701345,-0.07771167,0.06992386,1.71598,0.005439225,-0.4200255,1.668861,-0.1405292,-0.1976148,1.729724,0.3304225,-0.2006401,1.710849,NA,NA,NotTracked,NotTracked,
0.9394531,-0.324707,-0.07226563,0.9082031,0.3413086,0.07324219,0,0,-3,0,-2,-2,-1,0,-2,-3,1,-4,-1,-3,-1,-2,-0.0625,-0.0625,-0.0625,-0.6875,-0.6875,-0.6875,2.108978,3.048477,6.45722,7.222819,3.091158,0.2417199,-0.1285155,-0.4988361,1.631146,0.3020494,-0.5078447,1.598041,0.111151,0.3355817,1.698903,-0.07715479,-0.4721792,1.596498,0.2560494,-0.5125742,1.612167,0.09421801,-0.119165,1.714781,0.08867314,-0.431222,1.701281,-0.07790624,0.06986432,1.71593,0.005063496,-0.4200358,1.668754,-0.1409111,-0.1974682,1.729546,0.3302283,-0.2006091,1.710841,NA,NA,NotTracked,NotTracked,
0.9394531,-0.324707,-0.07226563,0.9077148,0.3417969,0.078125,1,-1,-2,-1,0,1,0,1,-1,2,-4,-1,-2,0,2,0,-0.0625,-0.0625,-0.0625,2.3125,2.3125,2.3125,2.108978,3.048477,6.45722,7.222782,3.091203,0.2427347,-0.1282591,-0.4986606,1.631545,0.301672,-0.5080726,1.598533,0.1108531,0.335643,1.6991,-0.0772617,-0.4750217,1.595491,0.2548147,-0.5198632,1.611122,0.09378146,-0.1191916,1.714832,0.08836855,-0.4312285,1.70131,-0.07822268,0.06993475,1.715949,0.004797848,-0.4200255,1.66875,-0.1411795,-0.1974824,1.729563,0.3299458,-0.2006876,1.710907,NA,NA,NotTracked,NotTracked,
0.9350586,-0.3168945,-0.06640625,0.9057617,0.3520508,0.07714844,-1,-4,-2,-3,-4,1,0,-2,1,1,0,-2,-1,0,-1,1,-0.5625,-0.5625,-0.5625,1.8125,1.8125,1.8125,2.108683,3.048614,6.45749,7.223705,3.091776,0.2438279,-0.1288413,-0.4981773,1.632179,0.3017488,-0.5084642,1.598115,0.110571,0.3356761,1.699273,-0.07735191,-0.471429,1.596684,0.2538899,-0.4947864,1.611637,0.09352475,-0.1191228,1.714958,0.08810221,-0.4312205,1.701439,-0.07848413,0.06986623,1.715965,0.004532203,-0.4199925,1.668888,-0.1414925,-0.1972857,1.729581,0.3298661,-0.2006646,1.71094,NA,NA,NotTracked,NotTracked,
0.9418945,-0.3237305,-0.0625,0.9111328,0.3457031,0.07714844,0,-1,1,-3,-1,-2,-2,-2,1,2,1,-3,1,2,-1,-1,-1.375,-1.375,-1.375,0.0625,0.0625,0.0625,2.109614,3.049014,6.456248,7.224032,3.091671,0.2439454,-0.1288977,-0.4986724,1.630926,0.301194,-0.5078577,1.596947,0.1102702,0.3356872,1.699277,-0.07736914,-0.4721804,1.596376,0.2565879,-0.4969991,1.615811,0.09316341,-0.1191522,1.714943,0.08792322,-0.4312279,1.701444,-0.07883672,0.06992958,1.715982,0.004328629,-0.4199893,1.668896,-0.1416974,-0.1973842,1.729455,0.3295783,-0.2007003,1.710924,NA,NA,NotTracked,NotTracked,
0.9477539,-0.3212891,-0.05810547,0.9091797,0.3432617,0.0703125,-4,-1,-1,-2,-1,1,3,2,1,-2,-6,-1,-1,1,0,-1,-0.4375,-0.4375,-0.4375,-1.5625,-1.5625,-1.5625,2.111104,3.048666,6.454939,7.223134,3.091916,0.2426307,-0.1291565,-0.4993142,1.632794,0.3021011,-0.5081636,1.598211,0.1098872,0.3357979,1.699565,-0.07728907,-0.4723724,1.596759,0.2537568,-0.4836996,1.613264,0.09303442,-0.1191123,1.715085,0.08781816,-0.4312334,1.701559,-0.07915284,0.0698944,1.716075,0.004229491,-0.4199801,1.669012,-0.1418589,-0.1975801,1.729478,0.3293613,-0.2006878,1.710975,NA,NA,NotTracked,NotTracked,
0.9477539,-0.3212891,-0.05810547,0.909668,0.3383789,0.07275391,1,2,0,-3,-3,0,-5,-5,-1,-3,-2,4,0,0,-1,-1,-0.4375,-0.4375,-0.4375,-0.4375,-0.4375,-0.4375,2.111104,3.048666,6.454939,7.22245,3.091834,0.2432466,-0.1288331,-0.4978971,1.630334,0.3002022,-0.508211,1.595967,0.1092813,0.335729,1.699739,-0.07757534,-0.4721674,1.596364,0.253811,-0.4956761,1.611745,0.09277368,-0.1190612,1.715154,0.08749317,-0.4312107,1.701623,-0.07948774,0.06988055,1.716035,0.003919785,-0.4199514,1.669063,-0.1423657,-0.1977187,1.729382,0.3288852,-0.2007632,1.710998,NA,NA,NotTracked,NotTracked,
0.9423828,-0.3271484,-0.06689453,0.9130859,0.3452148,0.0703125,-1,-3,-1,2,1,-3,-1,-2,0,-7,-3,-3,-1,-2,0,1,-3.4375,-3.4375,-3.4375,-0.3125,-0.3125,-0.3125,2.113381,3.047409,6.449177,7.222575,3.092227,0.2427282,-0.1290947,-0.4989825,1.630932,0.2991333,-0.508464,1.596896,0.1091218,0.3357787,1.699799,-0.07775144,-0.4714053,1.596578,0.2484962,-0.482426,1.605188,0.09263454,-0.1190064,1.71516,0.08738778,-0.4311973,1.701618,-0.07986832,0.06988505,1.716132,0.003794474,-0.4199325,1.669036,-0.1424296,-0.1977165,1.729315,0.3287206,-0.2007921,1.711039,NA,NA,NotTracked,NotTracked,
0.9414063,-0.3276367,-0.07666016,0.9101563,0.3452148,0.07275391,-2,-3,-2,1,0,1,-1,0,-2,-1,1,-2,-1,-1,-1,-5,-1.875,-1.875,-1.875,-1.375,-1.375,-1.375,2.113254,3.046981,6.447037,7.223011,3.09233,0.2405006,-0.1285854,-0.4986905,1.632029,0.2994192,-0.5074784,1.597485,0.1090309,0.3357855,1.69982,-0.0774876,-0.4722185,1.596601,0.2488112,-0.4737345,1.606528,0.09247211,-0.1189795,1.715198,0.08718519,-0.4312255,1.701683,-0.08004862,0.06985797,1.716134,0.003635824,-0.4199545,1.669071,-0.1425437,-0.197701,1.729237,0.3285416,-0.2007367,1.711079,NA,NA,NotTracked,NotTracked,
0.9467773,-0.3212891,-0.08203125,0.9125977,0.3413086,0.08203125,-1,-3,0,-2,-2,0,-4,0,-1,-1,-1,-3,0,-1,-1,-2,-1.875,-1.875,-1.875,-2.4375,-2.4375,-2.4375,2.110479,3.046875,6.447793,7.222208,3.092302,0.2377536,-0.1289636,-0.4983662,1.632809,0.3001324,-0.5080235,1.598154,0.1089366,0.3358038,1.699863,-0.07773496,-0.47283,1.596977,0.2510909,-0.4847481,1.609006,0.09226362,-0.1189597,1.715435,0.08697505,-0.4311245,1.701907,-0.0805235,0.06987789,1.716333,0.003424006,-0.4198249,1.669313,-0.1427501,-0.1979289,1.729358,0.3283941,-0.2007675,1.711174,NA,NA,NotTracked,NotTracked,
0.9345703,-0.3222656,-0.078125,0.90625,0.3486328,0.07421875,-1,1,0,0,0,-2,-1,-2,-1,2,-2,2,1,-2,-1,2,-2.0625,-2.0625,-2.0625,0.125,0.125,0.125,2.109241,3.047415,6.447153,7.225981,3.091203,0.2328255,-0.1283961,-0.4983396,1.632526,0.2996187,-0.5079859,1.598605,0.1088616,0.3358206,1.699924,-0.07741915,-0.4720291,1.5968,0.2473608,-0.5011772,1.605538,0.09199715,-0.1189992,1.7156,0.08683244,-0.431152,1.702046,-0.0805603,0.0698362,1.716328,0.003294758,-0.4198445,1.669458,-0.1428755,-0.1978299,1.729382,0.3281638,-0.2008654,1.71148,NA,NA,NotTracked,NotTracked,
0.9370117,-0.3154297,-0.07470703,0.9033203,0.3452148,0.07763672,0,-2,0,0,-4,1,-2,-2,-2,-3,-2,-2,-1,-1,0,-2,-2.3125,-2.3125,-2.3125,0.625,0.625,0.625,2.107168,3.047894,6.44667,7.229132,3.090164,0.229317,-0.1291769,-0.4994721,1.632802,0.2994905,-0.5076174,1.599935,0.1085009,0.3358056,1.700193,-0.07744525,-0.4723178,1.596962,0.2474443,-0.4732616,1.6066,0.09155541,-0.1189836,1.715941,0.08648729,-0.431151,1.702295,-0.08095901,0.06979021,1.716494,0.002969727,-0.4198177,1.669716,-0.1431357,-0.1977965,1.729418,0.3276809,-0.2009371,1.711827,NA,NA,NotTracked,NotTracked,
0.9389648,-0.3237305,-0.06982422,0.9072266,0.3510742,0.08203125,-2,-3,-2,-1,3,-3,2,-2,0,3,1,0,2,-1,0,0,-0.375,-0.375,-0.375,-1.375,-1.375,-1.375,2.103202,3.049943,6.447692,7.231745,3.089082,0.2251984,-0.1297196,-0.4983861,1.633207,0.3005406,-0.5074893,1.600357,0.1083698,0.3358594,1.700317,-0.07800502,-0.4732243,1.597451,0.2471451,-0.4716962,1.605085,0.09132142,-0.1189793,1.716133,0.08641595,-0.4311326,1.702372,-0.0810563,0.06980675,1.716576,0.002878648,-0.4198091,1.669806,-0.1431943,-0.1978509,1.729432,0.3275067,-0.2009511,1.712032,NA,NA,NotTracked,NotTracked,
0.9453125,-0.3164063,-0.07714844,0.9072266,0.34375,0.07421875,0,1,1,-3,-2,-3,3,0,4,-5,-4,-3,-1,1,0,-3,0.5,0.5,0.5,-1.75,-1.75,-1.75,2.103161,3.050811,6.448142,7.233861,3.088254,0.2201485,-0.1297282,-0.4982333,1.632379,0.2991134,-0.5082157,1.600765,0.108243,0.3358787,1.700467,-0.07743731,-0.4726202,1.596879,0.2549474,-0.4953594,1.61778,0.09126629,-0.1189692,1.716175,0.08629421,-0.4311634,1.702434,-0.08119419,0.06984805,1.716742,0.002762054,-0.4198365,1.669845,-0.1432184,-0.1978527,1.729473,0.327197,-0.201028,1.712377,NA,NA,NotTracked,NotTracked,
0.9414063,-0.3085938,-0.0703125,0.9091797,0.3413086,0.08203125,-7,-2,1,0,1,-3,0,-1,-1,-4,-3,-3,-1,-2,-1,-1,-1.125,-1.125,-1.125,0.6875,0.6875,0.6875,2.103863,3.051399,6.446904,7.236569,3.086791,0.2167212,-0.1295926,-0.4984699,1.632105,0.2991534,-0.5084878,1.601161,0.1081298,0.3358971,1.700645,-0.0778226,-0.472581,1.597176,0.2459602,-0.4979744,1.603686,0.09118439,-0.118976,1.716299,0.08625402,-0.4311506,1.702494,-0.08131664,0.0699005,1.71689,0.002713005,-0.4198191,1.669912,-0.1433531,-0.1977957,1.729489,0.3270008,-0.2010969,1.712641,NA,NA,NotTracked,NotTracked,
0.9370117,-0.3208008,-0.06298828,0.9072266,0.3525391,0.07861328,1,-2,-2,-3,-3,0,-4,-2,-1,-4,2,2,-1,-1,0,-1,-1.6875,-1.6875,-1.6875,0.1875,0.1875,0.1875,2.106812,3.05183,6.442211,7.238304,3.086323,0.2149493,-0.1296454,-0.4986521,1.63288,0.2991162,-0.508397,1.601737,0.1080997,0.3358837,1.700782,-0.07753441,-0.4722386,1.59699,0.2469896,-0.4854784,1.606154,0.09109899,-0.1189615,1.716415,0.08612778,-0.4311396,1.702579,-0.08141618,0.06995732,1.717018,0.002590588,-0.4197772,1.669971,-0.1434281,-0.1977846,1.729543,0.326878,-0.2011793,1.712854,NA,NA,NotTracked,NotTracked,
0.940918,-0.315918,-0.07519531,0.9111328,0.3442383,0.08398438,-2,-2,2,-1,-3,-1,-2,-1,-3,-1,-1,0,2,-1,-4,-1,-1.375,-1.375,-1.375,0.1875,0.1875,0.1875,2.107024,3.051327,6.441282,7.239664,3.085516,0.212528,-0.1290697,-0.499256,1.6331,0.2993469,-0.5092922,1.602763,0.1079596,0.335812,1.701141,-0.07783693,-0.4711971,1.597933,0.2565948,-0.5071043,1.622061,0.09065756,-0.1189734,1.716926,0.08584427,-0.4311287,1.703056,-0.08151405,0.06990591,1.717208,0.002363706,-0.4197204,1.670328,-0.1436887,-0.1974139,1.729703,0.3268046,-0.201391,1.713557,NA,NA,NotTracked,NotTracked,
0.940918,-0.3193359,-0.07275391,0.9072266,0.3496094,0.0859375,-2,-2,-3,-2,-1,1,-3,0,0,-5,-1,0,0,-2,-2,2,-1.0625,-1.0625,-1.0625,-0.8125,-0.8125,-0.8125,2.106148,3.049818,6.440868,7.241249,3.084674,0.20985,-0.1291731,-0.4984857,1.632409,0.2990679,-0.5085686,1.603095,0.1079026,0.3358868,1.701294,-0.07770385,-0.4727414,1.597179,0.2467511,-0.4973432,1.606829,0.09056723,-0.119003,1.717049,0.08584123,-0.4311535,1.703169,-0.08156135,0.06983436,1.717303,0.002352379,-0.4197367,1.670382,-0.1437113,-0.1974058,1.729705,0.3267029,-0.2015788,1.713799,NA,NA,NotTracked,NotTracked,
0.9414063,-0.3183594,-0.07617188,0.9125977,0.3432617,0.08251953,-2,-3,-4,-4,0,-1,2,-4,2,-4,-2,4,1,-1,-2,-5,-0.3125,-0.3125,-0.3125,-0.25,-0.25,-0.25,2.10575,3.049185,6.440692,7.241453,3.084181,0.2079417,-0.1293646,-0.498942,1.632814,0.29869,-0.5093832,1.60348,0.1078739,0.3358928,1.701373,-0.07789569,-0.4720995,1.597384,0.2458442,-0.5003326,1.605588,0.09053001,-0.119021,1.717103,0.08579663,-0.4311567,1.703252,-0.08157858,0.06983794,1.717321,0.002323917,-0.4197319,1.670419,-0.1437591,-0.197406,1.729741,0.3266256,-0.2016629,1.713897,NA,NA,NotTracked,NotTracked,
0.9370117,-0.324707,-0.07666016,0.9072266,0.3466797,0.08203125,-1,-1,-2,-2,-1,2,-3,-2,0,3,-3,0,-3,-2,-2,1,-0.3125,-0.3125,-0.3125,1.4375,1.4375,1.4375,2.106049,3.049048,6.440419,7.242664,3.083343,0.2072953,-0.1294701,-0.4986103,1.634471,0.2996298,-0.5090857,1.605522,0.1078466,0.3359217,1.701666,-0.07784926,-0.4732517,1.597972,0.2461712,-0.4757864,1.60688,0.09045838,-0.1190102,1.71738,0.08570299,-0.4311301,1.703651,-0.08159927,0.06984647,1.717475,0.002266305,-0.419689,1.670711,-0.1440002,-0.1974437,1.72989,0.326544,-0.2019583,1.71425,NA,NA,NotTracked,NotTracked,
0.9384766,-0.3208008,-0.08105469,0.909668,0.3486328,0.08789063,0,-2,-1,2,-1,1,-2,-1,2,-2,-3,0,-1,1,-1,-1,-0.125,-0.125,-0.125,0.0625,0.0625,0.0625,2.106109,3.048703,6.440352,7.24258,3.083253,0.2074854,-0.1290506,-0.4996096,1.635169,0.2991475,-0.5098297,1.606101,0.1078146,0.3359355,1.701853,-0.07833495,-0.4726541,1.599202,0.2475545,-0.4859753,1.608896,0.09030653,-0.1190544,1.717701,0.08563422,-0.4311736,1.703961,-0.08171524,0.06979369,1.717755,0.002202113,-0.419715,1.670943,-0.1439693,-0.1973974,1.730057,0.3264322,-0.2020843,1.714826,NA,NA,NotTracked,NotTracked,
0.9394531,-0.3271484,-0.07275391,0.9077148,0.3452148,0.07324219,-1,-1,-4,0,-2,-1,0,-2,-2,-2,-2,0,2,-1,-2,-1,-1.125,-1.125,-1.125,-1.125,-1.125,-1.125,2.106192,3.048824,6.439818,7.240867,3.083518,0.2074128,-0.1293495,-0.4985974,1.635142,0.2992646,-0.5091462,1.605703,0.1077992,0.3359317,1.702076,-0.07835255,-0.472841,1.598653,0.2469938,-0.4770111,1.609073,0.09025845,-0.1190145,1.717891,0.08551434,-0.4311287,1.704242,-0.08181771,0.06980776,1.717991,0.0021102,-0.4196505,1.671162,-0.1439905,-0.1973566,1.730204,0.3263828,-0.2020866,1.715106,NA,NA,NotTracked,NotTracked,
0.940918,-0.3256836,-0.07568359,0.9135742,0.3486328,0.08154297,0,0,1,0,1,-2,-3,3,1,-3,1,-2,1,0,0,-2,-0.25,-0.25,-0.25,-0.0625,-0.0625,-0.0625,2.105976,3.049081,6.439557,7.239274,3.083856,0.2085639,-0.1290465,-0.4993409,1.634243,0.2978994,-0.5101468,1.605079,0.1076508,0.3359237,1.702442,-0.07801775,-0.4723926,1.598022,0.2457004,-0.4905818,1.605954,0.09017713,-0.1190717,1.718027,0.08544686,-0.4311625,1.704306,-0.08189224,0.06983694,1.718098,0.002023173,-0.419706,1.671242,-0.1441039,-0.1972448,1.730344,0.3261473,-0.2021488,1.715332,NA,NA,NotTracked,NotTracked,
0.9375,-0.3286133,-0.08300781,0.902832,0.3491211,0.07861328,-1,-2,0,-1,1,0,-3,0,-1,1,-3,-1,-3,-2,-1,0,-0.25,-0.25,-0.25,2.1875,2.1875,2.1875,2.105976,3.049081,6.439557,7.242481,3.083832,0.20863,-0.1289161,-0.4986844,1.634561,0.2987623,-0.5089481,1.606215,0.1076131,0.335938,1.702513,-0.07816841,-0.4731075,1.59801,0.2439797,-0.4734405,1.603966,0.09011836,-0.1190861,1.718202,0.08532561,-0.4311665,1.704476,-0.08203444,0.06984334,1.718307,0.001879804,-0.4197365,1.671486,-0.1441173,-0.1971728,1.730472,0.3260521,-0.2021292,1.715556,NA,NA,NotTracked,NotTracked,
