ALX,ALY,ALZ,ARX,ARY,ARZ,EMG0L,EMG1L,EMG2L,EMG3L,EMG4L,EMG5L,EMG6L,EMG7L,EMG0R,EMG1R,EMG2R,EMG3R,EMG4R,EMG5R,EMG6R,EMG7R,GLX,GLY,GLZ,GRX,GRY,GRZ,ORL,OPL,OYL,ORR,OPR,OYR,LHNX,LHNY,LHNZ,RHNX,RHNY,RHNZ,HX,HY,HZ,LTX,LTY,LTZ,RTX,RTY,RTZ,SpineMidX,SpineMidY,SpineMidZ,SpineBaseX,SpineBaseY,SpineBaseZ,ShoulderLeftX,ShoulderLeftY,ShoulderLeftZ,ShoulderRightX,ShoulderRightY,ShoulderRightZ,ElbowLeftX,ElbowLeftY,ElbowLeftZ,ElbowRightX,ElbowRightY,ElbowRightZ,Myo_Pose_left,Myo_Pose_Right,Kinect_pose_left,Kinect_pose_right
0.9472656,-0.3383789,-0.02783203,1.220215,0.4624023,-0.0625,-1,0,0,1,-2,-1,-2,-2,4,-5,0,-2,-3,-1,0,-1,-4.5625,-4.5625,-4.5625,27.375,27.375,27.375,2.304975,3.069732,6.152101,7.641604,3.008568,5.992238,-0.06999332,-0.4900648,1.584126,0.3714958,-0.5108178,1.564268,0.1414589,0.3398719,1.661936,-0.1199802,-0.505034,1.580909,0.4112843,-0.5148633,1.539625,0.1313929,-0.1121527,1.680814,0.1270694,-0.4226173,1.670268,-0.04370424,0.07207185,1.679225,0.04257693,-0.4135489,1.640081,-0.1016641,-0.1901889,1.687372,0.3737462,-0.201872,1.678163,NA,NA,NotTracked,NotTracked,
0.940918,-0.3344727,-0.03857422,1.125,0.3793945,-0.1040039,-1,0,-1,-2,-2,0,-2,-1,-3,-4,-1,-1,0,2,4,2,0.3125,0.3125,0.3125,-7.3125,-7.3125,-7.3125,2.28583,3.065647,6.172275,7.765183,2.965643,5.858652,-0.07027512,-0.4907002,1.584619,0.3666587,-0.5172303,1.577664,0.1414737,0.3398571,1.661887,-0.1230356,-0.5032274,1.590333,0.403181,-0.4856099,1.5775,0.1315818,-0.1124606,1.680812,0.1278168,-0.4231749,1.670462,-0.04374641,0.07209682,1.679221,0.04340177,-0.414009,1.640176,-0.1017235,-0.1904183,1.687474,0.3711155,-0.2062142,1.674403,NA,NA,NotTracked,NotTracked,
0.9355469,-0.3237305,-0.03564453,1.034668,0.355957,-0.07080078,1,-2,0,-2,0,0,-1,-2,6,7,0,0,0,-2,-2,0,1.75,1.75,1.75,0.125,0.125,0.125,2.278167,3.064255,6.181453,7.72713,2.949986,5.896622,-0.07209302,-0.4911808,1.585767,0.3595595,-0.5207511,1.587198,0.1415776,0.339658,1.661788,-0.1247285,-0.4882951,1.600174,0.3940837,-0.5267674,1.573833,0.1320067,-0.1127419,1.680683,0.1284325,-0.4236176,1.670541,-0.04375592,0.0721086,1.679193,0.04406209,-0.4143769,1.640122,-0.101791,-0.1904758,1.687536,0.3686504,-0.2080779,1.672266,NA,NA,NotTracked,NotTracked,
0.9267578,-0.3217773,-0.02929688,0.9467773,0.3671875,0.02783203,-2,-2,-1,-1,1,-2,0,0,5,0,2,-1,-1,-2,-1,-3,6.0625,6.0625,6.0625,18.0625,18.0625,18.0625,2.266971,3.062994,6.203219,7.60012,2.952248,6.045153,-0.07214732,-0.4902452,1.585675,0.353934,-0.520789,1.589689,0.1416918,0.3395874,1.661643,-0.1243178,-0.4851829,1.599478,0.3858176,-0.5149139,1.586571,0.1324609,-0.1130193,1.680591,0.1291367,-0.4240802,1.670555,-0.04376536,0.07214206,1.67916,0.04485478,-0.4148279,1.640007,-0.1018423,-0.1905915,1.68791,0.3673155,-0.2094882,1.671505,NA,NA,NotTracked,NotTracked,
0.9208984,-0.3300781,-0.02685547,0.9135742,0.3671875,0.05957031,-6,-2,0,0,-1,-1,-2,-2,-2,-5,-3,-1,-2,-3,0,1,6.0625,6.0625,6.0625,18.375,18.375,18.375,2.262523,3.060907,6.215812,7.530128,2.959574,6.127537,-0.07298997,-0.491864,1.587696,0.3477138,-0.5200706,1.590356,0.1417759,0.3394857,1.661607,-0.1245409,-0.4858154,1.597509,0.3925882,-0.5304643,1.563765,0.132908,-0.1132456,1.680682,0.1298926,-0.424429,1.670762,-0.04367821,0.07229614,1.679282,0.04565828,-0.4151088,1.640231,-0.1019645,-0.1907179,1.688601,0.366213,-0.2102082,1.671815,NA,NA,NotTracked,NotTracked,
0.9160156,-0.3237305,-0.03027344,0.8964844,0.2910156,0.06738281,4,-3,0,0,-1,-4,0,-3,0,-7,-3,1,1,-3,-5,0,4.5625,4.5625,4.5625,25,25,25,2.259241,3.05894,6.222441,7.410528,2.975899,6.275507,-0.07375666,-0.4919701,1.588709,0.3435017,-0.5177866,1.588141,0.141819,0.3394517,1.661502,-0.1245525,-0.4967631,1.593329,0.3713759,-0.5266004,1.548383,0.1332375,-0.1134642,1.680645,0.1302576,-0.4246436,1.670841,-0.04371656,0.07235844,1.679364,0.04602258,-0.4152882,1.640275,-0.1021566,-0.1907784,1.689153,0.3651486,-0.2103407,1.672538,NA,NA,NotTracked,NotTracked,
0.9223633,-0.3374023,-0.02197266,0.8413086,0.3227539,0.06738281,2,0,-2,1,-1,-2,-1,-1,-3,3,2,-1,0,-1,-3,-2,-2.625,-2.625,-2.625,32.125,32.125,32.125,2.247369,3.05296,6.235021,7.340886,2.992192,6.385857,-0.07455996,-0.4922916,1.590883,0.3386546,-0.5147309,1.584996,0.1419518,0.3394229,1.661497,-0.1237843,-0.4926435,1.596762,0.3863903,-0.5254334,1.565727,0.1334426,-0.113581,1.680686,0.1305453,-0.4248085,1.670907,-0.04367625,0.07243959,1.679447,0.04632324,-0.4154247,1.640313,-0.1020402,-0.1910504,1.690042,0.3640396,-0.2101274,1.673762,NA,NA,NotTracked,NotTracked,
0.925293,-0.3481445,-0.01220703,0.9077148,0.2905273,0.06689453,-5,-1,-1,2,-1,-2,0,-1,-6,-4,-4,-3,-3,0,1,-2,-4.875,-4.875,-4.875,23.8125,23.8125,23.8125,2.240207,3.049685,6.240425,7.307777,3.001138,6.449318,-0.07525196,-0.4928613,1.592145,0.3354725,-0.5110402,1.582815,0.1420818,0.3393424,1.661546,-0.1268824,-0.5088718,1.592715,0.3786193,-0.5312054,1.560961,0.1336076,-0.1136556,1.680705,0.1307132,-0.4248792,1.670924,-0.04360407,0.0725339,1.679532,0.04650382,-0.4154679,1.640312,-0.1020983,-0.1911321,1.690679,0.3631221,-0.2093351,1.674955,NA,NA,NotTracked,NotTracked,
0.9355469,-0.3554688,-0.03417969,0.909668,0.2729492,0.05175781,1,2,1,0,-2,-1,0,-1,-1,-1,-1,-1,0,0,1,2,-0.75,-0.75,-0.75,23.8125,23.8125,23.8125,2.222847,3.043941,6.257352,7.298203,3.004195,6.47234,-0.07563476,-0.4934264,1.594103,0.3331438,-0.509001,1.579842,0.142211,0.3392063,1.661568,-0.1253614,-0.5046208,1.595504,0.3792987,-0.5248432,1.558116,0.1337846,-0.1137319,1.680709,0.1308105,-0.4249067,1.670915,-0.04348788,0.07265735,1.679703,0.04661336,-0.4154715,1.640289,-0.1020779,-0.1911485,1.691388,0.3624369,-0.2086811,1.676008,NA,NA,NotTracked,NotTracked,
0.9433594,-0.3569336,-0.04003906,0.9111328,0.2763672,0.04638672,0,-1,-3,-2,1,-1,0,-1,-2,2,0,-1,0,1,-1,3,1.5625,1.5625,1.5625,28.1875,28.1875,28.1875,2.215051,3.042029,6.266867,7.299397,3.00588,6.503538,-0.07595688,-0.4938705,1.594257,0.3315526,-0.5070437,1.578465,0.1423849,0.339139,1.661617,-0.1275249,-0.5077012,1.6046,0.3756621,-0.5259196,1.556318,0.1340258,-0.1138159,1.680728,0.1310287,-0.4249827,1.67093,-0.04344011,0.07268451,1.679821,0.04685283,-0.4155421,1.640355,-0.102028,-0.1914818,1.691701,0.3619856,-0.208341,1.676534,NA,NA,NotTracked,NotTracked,
0.9433594,-0.3569336,-0.04003906,0.9111328,0.2763672,0.04638672,0,-1,-3,-2,1,-1,0,-1,-2,2,0,-1,0,1,-1,3,1.5625,1.5625,1.5625,28.1875,28.1875,28.1875,2.215051,3.042029,6.266867,7.299397,3.00588,6.503538,-0.07578954,-0.4940315,1.594292,0.3304829,-0.5066975,1.576949,0.142511,0.3390916,1.661656,-0.1240819,-0.4976025,1.598338,0.3737165,-0.524717,1.553518,0.1342206,-0.1138828,1.680762,0.1311985,-0.4250233,1.670919,-0.04340996,0.07270524,1.679861,0.04705772,-0.415567,1.640323,-0.1020533,-0.1916527,1.691923,0.3618067,-0.2076786,1.676873,NA,NA,NotTracked,NotTracked,
0.9448242,-0.3393555,-0.06347656,0.9438477,0.3144531,0.07714844,1,-1,1,-1,-2,-1,-1,-1,1,2,-2,0,0,-1,-7,-3,3.4375,3.4375,3.4375,-0.1875,-0.1875,-0.1875,2.207723,3.040829,6.281879,7.302377,3.009454,6.513102,-0.07633919,-0.4952392,1.595125,0.330307,-0.5058521,1.577007,0.142612,0.3390453,1.661745,-0.1250762,-0.5053792,1.596427,0.3726577,-0.5140796,1.559167,0.1343749,-0.1139381,1.680887,0.1312926,-0.4250416,1.670955,-0.04331614,0.07283257,1.680227,0.04717466,-0.4155556,1.640399,-0.1018911,-0.1917141,1.692394,0.3614779,-0.2065068,1.677426,NA,NA,NotTracked,NotTracked,
0.9511719,-0.3383789,-0.05419922,0.9204102,0.2548828,0.05810547,0,-3,-1,-1,-1,-1,-1,0,-1,-1,-2,-1,0,-1,3,1,0.3125,0.3125,0.3125,-11.25,-11.25,-11.25,2.216753,3.045223,6.274031,7.290763,3.00758,6.511274,-0.07605334,-0.4949895,1.593786,0.32987,-0.505822,1.576542,0.1428124,0.3389891,1.661853,-0.1247658,-0.4962741,1.601275,0.3755839,-0.5256059,1.55685,0.1345083,-0.1139701,1.680895,0.1314177,-0.4250964,1.670922,-0.04327278,0.07282919,1.680301,0.04732293,-0.4155956,1.640372,-0.1018063,-0.191753,1.692623,0.3613924,-0.2061412,1.677594,NA,NA,NotTracked,NotTracked,
0.9404297,-0.3374023,-0.05175781,0.9365234,0.2797852,0.08349609,2,0,1,-3,1,-1,0,-2,0,1,1,-1,0,0,1,-1,-0.9375,-0.9375,-0.9375,3.9375,3.9375,3.9375,2.22246,3.048535,6.267536,7.294659,3.004395,6.505496,-0.0754043,-0.4941818,1.592704,0.3303053,-0.5051172,1.576414,0.1428846,0.3389476,1.661874,-0.1230626,-0.501727,1.591727,0.3767092,-0.5230728,1.558669,0.1345886,-0.1140336,1.680948,0.1315424,-0.4251459,1.670889,-0.04316017,0.07283214,1.680473,0.04746396,-0.4156361,1.640371,-0.1017177,-0.191754,1.692731,0.3613595,-0.2058246,1.677831,NA,NA,NotTracked,NotTracked,
0.9335938,-0.3359375,-0.05273438,0.9350586,0.3217773,0.07421875,-1,-3,-1,1,-1,-3,-3,-1,-3,-4,-1,-1,-1,0,0,0,1,1,1,4.9375,4.9375,4.9375,2.232638,3.055971,6.257481,7.300079,3.005166,6.502292,-0.07574424,-0.4952588,1.591984,0.3303875,-0.5054605,1.5767,0.1430461,0.3388917,1.662091,-0.1246138,-0.4991292,1.599239,0.3793992,-0.5134028,1.563,0.1347159,-0.1141065,1.681035,0.1316382,-0.4251929,1.670857,-0.04304593,0.07279202,1.680741,0.04755601,-0.4156588,1.640323,-0.1018275,-0.1917634,1.692926,0.3613677,-0.2057781,1.677958,NA,NA,NotTracked,NotTracked,
0.9331055,-0.3359375,-0.05029297,0.9321289,0.2827148,0.09277344,-2,0,-2,0,0,-4,-1,-2,-5,-4,-3,-1,-1,2,-1,-1,2.4375,2.4375,2.4375,-13.75,-13.75,-13.75,2.236998,3.058864,6.254204,7.292149,3.006233,6.497769,-0.07532991,-0.4939873,1.591177,0.3310023,-0.5033176,1.577583,0.1431648,0.3389309,1.662461,-0.1239266,-0.4830503,1.6045,0.37786,-0.5180349,1.559195,0.1348389,-0.1141222,1.681111,0.1317386,-0.4252382,1.670772,-0.04293373,0.07277846,1.680873,0.04764273,-0.4156876,1.640252,-0.1017627,-0.1917053,1.692959,0.3613912,-0.2056687,1.678094,NA,NA,NotTracked,NotTracked,
0.9375,-0.3256836,-0.04248047,0.918457,0.2768555,0.08984375,0,0,0,-2,-1,-2,-1,-4,-2,-1,0,-1,-2,0,-1,1,0,0,0,-2.625,-2.625,-2.625,2.248061,3.063787,6.245442,7.284905,3.005038,6.496235,-0.07514596,-0.4938706,1.590717,0.3317472,-0.5039281,1.578291,0.1432602,0.3389114,1.662767,-0.1227654,-0.4928738,1.596467,0.3778719,-0.5205917,1.559622,0.1349635,-0.1141348,1.681212,0.1318641,-0.4252409,1.670742,-0.04289662,0.07280692,1.681208,0.04776285,-0.4156851,1.640203,-0.1017433,-0.1917558,1.693032,0.361562,-0.2055432,1.678251,NA,NA,NotTracked,NotTracked,
0.934082,-0.3266602,-0.04736328,0.9277344,0.3037109,0.09667969,0,-3,-3,-1,-4,-1,-3,1,-2,-1,-1,0,1,-1,0,-2,-0.375,-0.375,-0.375,6.125,6.125,6.125,2.250025,3.065587,6.242824,7.285131,3.005861,6.500845,-0.07566839,-0.4941141,1.590069,0.3320415,-0.5046193,1.577168,0.1434687,0.3389558,1.663007,-0.1243885,-0.4977024,1.603412,0.3778103,-0.5175143,1.559459,0.1350863,-0.1141756,1.681252,0.1320339,-0.4252694,1.670653,-0.04284076,0.07283313,1.681371,0.04793455,-0.4157063,1.640122,-0.1015525,-0.1917959,1.693074,0.361733,-0.2053784,1.678323,NA,NA,NotTracked,NotTracked,
0.9355469,-0.3330078,-0.04394531,0.9296875,0.2949219,0.09619141,0,-2,-2,0,2,-3,-1,-1,-1,0,-2,0,-2,1,-1,-2,0.25,0.25,0.25,3.6875,3.6875,3.6875,2.251787,3.066093,6.241142,7.276776,3.007025,6.513067,-0.07468811,-0.4943161,1.590699,0.3324979,-0.5042393,1.57923,0.1435807,0.3388101,1.66333,-0.1245519,-0.4904834,1.609667,0.3766826,-0.5115712,1.562514,0.1352929,-0.1142378,1.681411,0.1322607,-0.4253291,1.670624,-0.04270864,0.07283989,1.681541,0.04816191,-0.4157718,1.640134,-0.1014894,-0.191897,1.693237,0.3619471,-0.2050522,1.678736,NA,NA,NotTracked,NotTracked,
0.9370117,-0.3291016,-0.04492188,0.9213867,0.2895508,0.08935547,1,-1,-1,-1,-3,-1,-1,-2,-3,-3,-5,-1,-2,-1,-1,-4,-1.625,-1.625,-1.625,2.0625,2.0625,2.0625,2.253353,3.0658,6.238483,7.267065,3.008296,6.525226,-0.07495577,-0.4947933,1.589105,0.3321774,-0.5046785,1.577868,0.1436774,0.3387519,1.663588,-0.1248316,-0.5027356,1.603748,0.37734,-0.5182393,1.559416,0.1353835,-0.1142573,1.681437,0.1324961,-0.4253808,1.67045,-0.04264245,0.07278325,1.681787,0.04840308,-0.4158229,1.639964,-0.1012954,-0.1919608,1.693204,0.362151,-0.2049026,1.678936,NA,NA,NotTracked,NotTracked,
0.9384766,-0.3344727,-0.04589844,0.9199219,0.2924805,0.09472656,-2,-2,-3,-1,0,-1,0,0,-1,0,2,-1,-2,-4,-2,-3,-2.5625,-2.5625,-2.5625,2.75,2.75,2.75,2.253724,3.066,6.23692,7.261496,3.009489,6.531911,-0.07391106,-0.4938407,1.588373,0.3323908,-0.5047159,1.577082,0.1437763,0.338764,1.663755,-0.1230157,-0.4949841,1.599586,0.3775846,-0.5187275,1.55991,0.1355509,-0.1142759,1.681442,0.1326599,-0.4253909,1.670314,-0.04257075,0.07278185,1.681837,0.04856483,-0.4158352,1.639836,-0.1009605,-0.1920593,1.693164,0.362393,-0.204836,1.679116,NA,NA,NotTracked,NotTracked,
0.9384766,-0.3344727,-0.04589844,0.9213867,0.2958984,0.09082031,-2,-2,-3,-1,0,-1,0,0,-1,0,2,-1,-2,-4,-2,-3,-2.5625,-2.5625,-2.5625,2.875,2.875,2.875,2.253724,3.066,6.23692,7.254849,3.011104,6.539557,-0.0737629,-0.4929731,1.58732,0.3322663,-0.5055839,1.5764,0.1438659,0.3386685,1.663876,-0.1200923,-0.4952104,1.591095,0.3766845,-0.5062358,1.560483,0.1355943,-0.1142857,1.681449,0.1328763,-0.4254062,1.670118,-0.04248983,0.07273173,1.681845,0.04873622,-0.4158377,1.639702,-0.1008688,-0.1920287,1.693026,0.3626158,-0.2046998,1.679127,NA,NA,NotTracked,NotTracked,
0.9448242,-0.3422852,-0.05175781,0.9257813,0.2998047,0.09472656,-1,0,-2,-2,-2,0,-4,1,0,-2,0,0,0,0,-1,-1,-1.9375,-1.9375,-1.9375,2.5,2.5,2.5,2.251556,3.065872,6.235631,7.24838,3.012539,6.547605,-0.07338405,-0.4934481,1.587548,0.3319364,-0.5063895,1.575795,0.143954,0.3385811,1.663952,-0.120972,-0.4860351,1.59655,0.3769439,-0.5145713,1.55921,0.1356527,-0.1143276,1.681479,0.1329854,-0.4254807,1.669971,-0.0423271,0.07267454,1.681986,0.04883185,-0.4158988,1.639565,-0.1009012,-0.1920328,1.692984,0.3627982,-0.2047534,1.679199,NA,NA,NotTracked,NotTracked,
0.9404297,-0.3413086,-0.04980469,0.9213867,0.3066406,0.1010742,0,-2,1,-2,0,0,0,-1,1,-2,-3,-1,0,1,0,-2,-0.1875,-0.1875,-0.1875,-0.4375,-0.4375,-0.4375,2.250155,3.06594,6.236377,7.236228,3.015239,6.559893,-0.07329001,-0.4939283,1.588399,0.3321854,-0.5056841,1.57661,0.1441165,0.3386254,1.664155,-0.1252512,-0.5191263,1.58975,0.3769662,-0.5093836,1.560112,0.1358086,-0.1143115,1.681497,0.1331987,-0.4253851,1.669821,-0.04217441,0.0726316,1.682111,0.0490587,-0.4158262,1.639421,-0.1006748,-0.1920241,1.692967,0.3629299,-0.2047337,1.67932,NA,NA,NotTracked,NotTracked,
0.9335938,-0.3383789,-0.05566406,0.9145508,0.2885742,0.09765625,0,-4,-2,-3,0,-1,-2,-1,-1,-5,-4,-2,-1,-1,1,-2,-0.125,-0.125,-0.125,0.5625,0.5625,0.5625,2.250155,3.06594,6.236377,7.227324,3.015982,6.567732,-0.07288746,-0.4934184,1.588139,0.3318274,-0.5047921,1.57596,0.1442364,0.3386489,1.664436,-0.122706,-0.5088584,1.594936,0.3769956,-0.5091031,1.557998,0.1359316,-0.114308,1.681518,0.1333412,-0.4253913,1.669727,-0.04209482,0.07262866,1.682148,0.04915918,-0.4158209,1.639366,-0.1006537,-0.1920007,1.692929,0.3631667,-0.2044178,1.679497,NA,NA,NotTracked,NotTracked,
0.9306641,-0.3364258,-0.05419922,0.9262695,0.3095703,0.08935547,-4,-1,-2,-3,-3,-2,-4,-1,-2,3,0,-1,-1,-3,-1,-1,-2.75,-2.75,-2.75,1.875,1.875,1.875,2.24317,3.065418,6.241377,7.220651,3.017057,6.576123,-0.07252042,-0.4933603,1.589311,0.3318212,-0.5058237,1.576247,0.1443961,0.33864,1.664692,-0.1232033,-0.5084826,1.592857,0.3779763,-0.5119981,1.559684,0.1360598,-0.1143602,1.681602,0.1334569,-0.4254658,1.669706,-0.0419291,0.07253504,1.682476,0.04929066,-0.4159034,1.639369,-0.1004288,-0.1919667,1.693054,0.3633353,-0.2044915,1.67961,NA,NA,NotTracked,NotTracked,
0.9375,-0.3378906,-0.04199219,0.9272461,0.3007813,0.08691406,1,-1,-1,0,0,1,-2,-1,0,2,0,-2,0,2,0,1,-0.25,-0.25,-0.25,0.3125,0.3125,0.3125,2.240335,3.065723,6.24362,7.21532,3.017388,6.581616,-0.07306648,-0.4933128,1.588864,0.3311192,-0.5056548,1.575106,0.1445841,0.3386415,1.664986,-0.1244572,-0.47002,1.614222,0.3771313,-0.514896,1.558061,0.1361463,-0.1143646,1.681629,0.1335485,-0.425481,1.669667,-0.04173727,0.07257303,1.682654,0.04938522,-0.4159175,1.639389,-0.1002309,-0.1919626,1.693034,0.363523,-0.2042825,1.679737,NA,NA,NotTracked,NotTracked,
0.9365234,-0.3291016,-0.04199219,0.9272461,0.2944336,0.08691406,-1,-3,-2,-2,-1,2,0,-1,-1,0,-4,-1,-1,-1,-1,0,-0.25,-0.25,-0.25,2.6875,2.6875,2.6875,2.239351,3.065181,6.244627,7.206337,3.017937,6.592261,-0.07266169,-0.4930855,1.588493,0.3310403,-0.5049517,1.574305,0.1447735,0.338624,1.66519,-0.1215834,-0.4997979,1.596222,0.377612,-0.512489,1.559699,0.1362538,-0.114378,1.681669,0.1336131,-0.4254918,1.669653,-0.04164078,0.07254187,1.682718,0.04945577,-0.4159367,1.639389,-0.1001529,-0.1921441,1.692873,0.3635451,-0.2042886,1.679749,NA,NA,NotTracked,NotTracked,
0.9394531,-0.3388672,-0.04638672,0.925293,0.2998047,0.08837891,2,-4,-3,-2,-1,-1,-3,-2,-3,-1,-3,-1,-1,-1,-5,-1,0.1875,0.1875,0.1875,3.1875,3.1875,3.1875,2.234885,3.064978,6.249245,7.201707,3.018219,6.600078,-0.07252944,-0.4928958,1.589054,0.3306971,-0.5051803,1.573707,0.1450297,0.3385146,1.665365,-0.1227741,-0.4921317,1.602899,0.376804,-0.5101919,1.556763,0.1364519,-0.1144253,1.681707,0.133693,-0.4255303,1.669579,-0.04124814,0.07265829,1.682957,0.04951409,-0.4159604,1.639377,-0.099988,-0.1921337,1.692807,0.3637018,-0.2041975,1.679754,NA,NA,NotTracked,NotTracked,
0.9384766,-0.3320313,-0.04492188,0.9150391,0.2998047,0.09375,2,-1,1,-2,0,0,-1,-1,-1,2,0,0,-1,-1,0,0,1.0625,1.0625,1.0625,2.5625,2.5625,2.5625,2.234723,3.065212,6.251155,7.197393,3.017824,6.607692,-0.07283492,-0.4939486,1.589148,0.3303602,-0.50516,1.573491,0.1452548,0.3384886,1.665499,-0.1206619,-0.5067524,1.585586,0.3745233,-0.5183979,1.555097,0.1366204,-0.1144443,1.681766,0.1337633,-0.4255182,1.669585,-0.04108388,0.07267862,1.683175,0.04959616,-0.4159378,1.639397,-0.0998821,-0.1920737,1.692803,0.3637499,-0.2041056,1.679777,NA,NA,NotTracked,NotTracked,
0.9365234,-0.3295898,-0.05322266,0.921875,0.3012695,0.08935547,-2,0,-1,-1,-2,-1,0,-3,-1,-3,-4,0,-2,1,-1,-1,1.125,1.125,1.125,2.5625,2.5625,2.5625,2.233751,3.065068,6.252897,7.195813,3.017954,6.611012,-0.07281492,-0.4926908,1.589831,0.3306221,-0.5048609,1.573904,0.1454253,0.3384541,1.665695,-0.122161,-0.5001822,1.594841,0.3769685,-0.5165437,1.55602,0.1367743,-0.1144951,1.681873,0.1338658,-0.4255397,1.66962,-0.04085234,0.07271855,1.683511,0.04971781,-0.4159529,1.639449,-0.09980185,-0.1921996,1.692917,0.3637965,-0.2041039,1.679792,NA,NA,NotTracked,NotTracked,
0.9311523,-0.3432617,-0.046875,0.9296875,0.3085938,0.08935547,-12,-2,0,-3,-3,-2,-2,-1,0,-1,1,-3,-1,-3,0,-2,1.375,1.375,1.375,-0.6875,-0.6875,-0.6875,2.230811,3.065355,6.258933,7.195399,3.017628,6.611527,-0.0727694,-0.4933075,1.589177,0.3304041,-0.5045573,1.572745,0.145621,0.3383818,1.6658,-0.1209433,-0.5065683,1.5841,0.3752825,-0.5171155,1.551813,0.1368525,-0.1145912,1.681929,0.1339209,-0.4255598,1.669607,-0.04072912,0.07270756,1.683535,0.0497735,-0.4159681,1.639462,-0.0997522,-0.1922271,1.692911,0.363859,-0.2040377,1.67977,NA,NA,NotTracked,NotTracked,
0.9350586,-0.3432617,-0.05224609,0.9174805,0.2949219,0.09619141,9,0,1,0,1,0,-2,1,2,1,1,-1,-1,-3,-1,2,0.4375,0.4375,0.4375,0.625,0.625,0.625,2.227634,3.065868,6.26346,7.195387,3.017901,6.610014,-0.07292791,-0.4930067,1.590167,0.330566,-0.5046128,1.573562,0.1458154,0.3383267,1.665976,-0.1232894,-0.5030433,1.606,0.3767023,-0.5151062,1.557157,0.1369336,-0.1146176,1.681961,0.1339804,-0.4255632,1.669576,-0.04060372,0.072706,1.683683,0.04983019,-0.4159615,1.63942,-0.09944367,-0.1921691,1.693057,0.363937,-0.2040692,1.679749,NA,NA,NotTracked,NotTracked,
0.9345703,-0.3510742,-0.04541016,0.9213867,0.3081055,0.08105469,-5,-4,-2,-1,-2,-3,-2,0,0,-1,-2,1,-4,1,-3,-1,0.3125,0.3125,0.3125,2.6875,2.6875,2.6875,2.226835,3.06661,6.264815,7.202944,3.01817,6.604095,-0.07250351,-0.4926979,1.58943,0.3306471,-0.5048223,1.572727,0.1459596,0.3382759,1.665993,-0.1213124,-0.5034512,1.5879,0.3773194,-0.5224187,1.558353,0.1370065,-0.114628,1.681989,0.1340492,-0.4255856,1.669541,-0.04051229,0.07268442,1.683742,0.04989136,-0.4159785,1.639377,-0.09939632,-0.1921088,1.693083,0.364003,-0.2039626,1.679726,NA,NA,NotTracked,NotTracked,
0.9296875,-0.3432617,-0.05078125,0.9238281,0.3022461,0.08349609,-7,-1,0,1,-1,0,-1,-3,1,1,-3,-1,0,1,2,0,-1.75,-1.75,-1.75,0.125,0.125,0.125,2.219553,3.069341,6.27185,7.203255,3.019588,6.604187,-0.07265399,-0.4919747,1.589749,0.3309141,-0.5043314,1.572312,0.1462911,0.3382737,1.666241,-0.1213934,-0.4932861,1.595881,0.3755267,-0.517222,1.55332,0.1373473,-0.1147907,1.682121,0.1341128,-0.42564,1.669517,-0.04027279,0.07260625,1.684025,0.04993372,-0.4160044,1.639384,-0.09901381,-0.1921717,1.693291,0.364118,-0.2038508,1.679661,NA,NA,NotTracked,NotTracked,
0.9384766,-0.3442383,-0.04638672,0.921875,0.2983398,0.09814453,-2,-1,-1,-1,-1,-1,0,0,1,-1,-2,-1,-2,-5,-1,2,-0.6875,-0.6875,-0.6875,1.8125,1.8125,1.8125,2.2171,3.070225,6.274404,7.201141,3.019479,6.607336,-0.07274513,-0.4930617,1.591436,0.3308519,-0.5044978,1.573044,0.1464022,0.3382949,1.666352,-0.1228919,-0.5345402,1.592,0.3744586,-0.5117537,1.55325,0.1374286,-0.1147879,1.682168,0.1341366,-0.4256435,1.669522,-0.04012033,0.07263405,1.68423,0.04996331,-0.4160013,1.639397,-0.09895971,-0.1920367,1.693313,0.3641744,-0.2038238,1.679606,NA,NA,NotTracked,NotTracked,
0.9282227,-0.3359375,-0.04199219,0.9179688,0.2978516,0.09765625,-3,0,-3,-1,-1,1,-2,0,0,-1,1,-3,0,-2,2,-2,0.25,0.25,0.25,2.75,2.75,2.75,2.213554,3.072376,6.279318,7.20051,3.01954,6.610047,-0.07214921,-0.4932283,1.59183,0.3311759,-0.504593,1.573949,0.1465966,0.3383549,1.666626,-0.1184248,-0.5017418,1.586571,0.3760954,-0.5126284,1.558034,0.1375587,-0.114798,1.682272,0.1342027,-0.425663,1.669553,-0.03993982,0.07260092,1.684425,0.05008458,-0.4160148,1.639549,-0.09851269,-0.1921875,1.693552,0.3642296,-0.2038056,1.679629,NA,NA,NotTracked,NotTracked,
0.9316406,-0.3388672,-0.04638672,0.9208984,0.3022461,0.09814453,3,-1,-3,-1,-3,-1,-1,-1,-2,-3,-1,0,-1,-4,-1,0,0.1875,0.1875,0.1875,2.9375,2.9375,2.9375,2.214794,3.073708,6.279226,7.19965,3.019915,6.612149,-0.07239068,-0.4924156,1.590789,0.3315107,-0.5048621,1.573279,0.146683,0.3383445,1.666702,-0.121147,-0.4791492,1.598917,0.3764723,-0.5136231,1.556195,0.1376428,-0.1148319,1.682352,0.1342151,-0.4256804,1.669567,-0.0398192,0.07249733,1.684699,0.05009541,-0.4160194,1.639563,-0.0984126,-0.1921851,1.693668,0.3642527,-0.203814,1.679621,NA,NA,NotTracked,NotTracked,
0.9394531,-0.340332,-0.05371094,0.9262695,0.3076172,0.09472656,4,-1,-2,-1,-1,0,0,0,0,1,-1,-3,0,1,0,0,1.75,1.75,1.75,0.25,0.25,0.25,2.216993,3.073982,6.278536,7.197447,3.020028,6.615368,-0.07235032,-0.4919744,1.591084,0.3310959,-0.504437,1.572788,0.1467148,0.3383325,1.666757,-0.1256992,-0.5078565,1.605143,0.3761749,-0.5145442,1.555195,0.1376613,-0.1148293,1.682422,0.1342243,-0.4256815,1.66957,-0.03970429,0.07248599,1.684828,0.05010769,-0.4160162,1.639568,-0.09818918,-0.1921917,1.693907,0.3643437,-0.2037626,1.679605,NA,NA,NotTracked,NotTracked,
0.9375,-0.340332,-0.05419922,0.9194336,0.300293,0.09326172,-3,-2,1,-2,-3,-2,-2,-1,-3,-4,-2,1,0,-1,-1,-1,2.4375,2.4375,2.4375,-1.0625,-1.0625,-1.0625,2.219088,3.074335,6.277829,7.191012,3.021032,6.619296,-0.07197151,-0.4926986,1.590551,0.3314096,-0.5042759,1.572715,0.14685,0.3383439,1.666913,-0.1198059,-0.4956159,1.591325,0.3757252,-0.5110607,1.556108,0.1377242,-0.1148442,1.682462,0.1342821,-0.4256844,1.669559,-0.03960042,0.07243283,1.68517,0.050168,-0.4160094,1.639577,-0.09813258,-0.1920185,1.694021,0.364399,-0.2037557,1.679594,NA,NA,NotTracked,NotTracked,
0.9375,-0.340332,-0.05419922,0.9194336,0.300293,0.09326172,-1,-2,-1,-2,-2,0,0,-1,-3,-4,-2,1,0,-1,-1,-1,2.4375,2.4375,2.4375,-1.0625,-1.0625,-1.0625,2.219088,3.074335,6.277829,7.191012,3.021032,6.619296,-0.07226586,-0.4929495,1.590008,0.3314884,-0.5039781,1.572131,0.1469025,0.3383056,1.667033,-0.1251337,-0.5069029,1.6074,0.3768254,-0.5151618,1.55386,0.1377007,-0.1148838,1.682493,0.1342988,-0.4256833,1.669519,-0.03946481,0.07238834,1.685272,0.05017996,-0.4159943,1.63954,-0.09798274,-0.1921339,1.694062,0.3644912,-0.2037251,1.67958,NA,NA,NotTracked,NotTracked,
0.940918,-0.3413086,-0.0546875,0.9208984,0.3007813,0.1010742,-4,0,2,-2,-1,-2,2,1,-1,-1,-2,-2,-2,0,-2,-3,0.4375,0.4375,0.4375,0.75,0.75,0.75,2.22056,3.074177,6.277131,7.188423,3.021232,6.622251,-0.07195048,-0.4924686,1.590389,0.3315168,-0.5041929,1.572144,0.1470469,0.3383198,1.667265,-0.1204248,-0.496897,1.595999,0.3756049,-0.5110675,1.55499,0.1379221,-0.1148883,1.682572,0.1344001,-0.4256987,1.669483,-0.03936324,0.07225177,1.685567,0.05026753,-0.4160086,1.639531,-0.09767849,-0.1921346,1.694284,0.3645557,-0.2036594,1.679567,NA,NA,NotTracked,NotTracked,
0.9326172,-0.347168,-0.06005859,0.9169922,0.3120117,0.09570313,-2,-1,-3,0,-1,0,-2,-1,0,-1,-1,-1,0,-1,-1,-1,1.625,1.625,1.625,1.5,1.5,1.5,2.223097,3.075182,6.276241,7.186901,3.021818,6.624784,-0.07184443,-0.4928073,1.591054,0.3314996,-0.5042117,1.572452,0.1471656,0.3382606,1.667468,-0.1194098,-0.5051319,1.589333,0.376125,-0.5148786,1.555349,0.1380529,-0.1149017,1.682663,0.1344336,-0.4256924,1.669491,-0.03916324,0.0722682,1.685972,0.05031704,-0.4159993,1.639561,-0.0974286,-0.1923622,1.694602,0.36464,-0.2036167,1.67965,NA,NA,NotTracked,NotTracked,
0.9360352,-0.3481445,-0.05224609,0.9257813,0.3061523,0.08837891,-1,0,-1,-1,1,-1,-1,-1,-2,-2,2,-1,-2,1,0,0,1.125,1.125,1.125,0.625,0.625,0.625,2.224167,3.075476,6.27594,7.184742,3.021661,6.627462,-0.07204427,-0.4923412,1.591164,0.3319948,-0.5044807,1.57219,0.1472832,0.3382057,1.667765,-0.1212553,-0.4975519,1.599771,0.3777505,-0.5146192,1.556621,0.1381112,-0.1149304,1.682702,0.1344627,-0.4257119,1.66947,-0.0390915,0.07212579,1.686301,0.05033842,-0.4160092,1.639556,-0.09738753,-0.1924561,1.694804,0.3647286,-0.2036194,1.679635,NA,NA,NotTracked,NotTracked,
0.9384766,-0.3515625,-0.05322266,0.9243164,0.3105469,0.09228516,-1,-2,-2,0,-1,-1,0,-1,0,3,1,0,0,-2,-1,0,0.5625,0.5625,0.5625,1,1,1,2.224492,3.075489,6.276243,7.183707,3.022081,6.628401,-0.07160874,-0.4930797,1.590622,0.3318014,-0.5036765,1.571308,0.1473711,0.3381836,1.667833,-0.120625,-0.4943538,1.598193,0.3768033,-0.5149454,1.554495,0.1381923,-0.1149196,1.682734,0.1344948,-0.4257248,1.669467,-0.03899993,0.07207725,1.686382,0.05038293,-0.4160194,1.639568,-0.09709927,-0.1925184,1.69487,0.3648099,-0.2035881,1.679573,NA,NA,NotTracked,NotTracked,
0.9355469,-0.3476563,-0.05419922,0.9228516,0.3115234,0.09667969,-4,-3,-2,-2,-2,-2,-1,-2,-1,-3,-2,-1,-1,0,0,-1,0.25,0.25,0.25,2.0625,2.0625,2.0625,2.223305,3.075248,6.277692,7.183802,3.022395,6.629881,-0.07183036,-0.4924409,1.59134,0.3321441,-0.5038717,1.572199,0.1474648,0.3382001,1.667929,-0.1216113,-0.4993617,1.597533,0.3761708,-0.5128235,1.555317,0.1382452,-0.1149394,1.682779,0.1345423,-0.4257593,1.669459,-0.03893307,0.07192358,1.686659,0.05042684,-0.4160533,1.639562,-0.09682444,-0.1926034,1.695105,0.3649855,-0.2035414,1.679555,NA,NA,NotTracked,NotTracked,
0.9306641,-0.3447266,-0.05322266,0.918457,0.3115234,0.09375,-3,0,-1,-1,1,0,-3,-2,-2,2,1,0,0,-2,-2,0,0.125,0.125,0.125,2.125,2.125,2.125,2.224351,3.075155,6.276671,7.184496,3.022581,6.630726,-0.07100181,-0.4933588,1.591906,0.3322772,-0.5042418,1.572778,0.1479054,0.3381415,1.668496,-0.1199819,-0.4960295,1.598183,0.3763428,-0.5135444,1.555291,0.1384834,-0.1149967,1.682975,0.13464,-0.4258045,1.669498,-0.03864618,0.07179569,1.687361,0.0505451,-0.4160961,1.639643,-0.09655187,-0.1926231,1.695515,0.3652051,-0.2035797,1.679529,NA,NA,NotTracked,NotTracked,
0.9321289,-0.3427734,-0.04443359,0.9287109,0.3041992,0.09423828,-1,-2,-1,-1,-1,1,-2,-1,-3,0,0,1,0,1,-2,-2,-1,-1,-1,1.75,1.75,1.75,2.225396,3.075062,6.27565,7.184517,3.022976,6.63201,-0.07150771,-0.493459,1.592232,0.3322577,-0.5043777,1.572205,0.1480153,0.3380821,1.668723,-0.1203176,-0.4920364,1.600336,0.376176,-0.5135724,1.553855,0.1385636,-0.1150184,1.683041,0.1346548,-0.4258218,1.669515,-0.03856412,0.07182466,1.687503,0.05056239,-0.416111,1.639678,-0.09634566,-0.1927257,1.69567,0.3654861,-0.2037361,1.679507,NA,NA,NotTracked,NotTracked,
0.9326172,-0.3461914,-0.04833984,0.9228516,0.3120117,0.08886719,-2,-1,0,-2,-3,-2,-1,0,-3,-1,-1,-1,-1,-2,0,-1,-0.4375,-0.4375,-0.4375,0.125,0.125,0.125,2.225396,3.075062,6.27565,7.184329,3.024773,6.631666,-0.07097454,-0.4934433,1.59288,0.3324963,-0.5042187,1.572786,0.1480673,0.3381494,1.668911,-0.1206742,-0.4980156,1.597545,0.3828559,-0.5179567,1.559784,0.1386724,-0.1149928,1.683127,0.1348072,-0.425751,1.669588,-0.03838315,0.07186203,1.687665,0.05070494,-0.41607,1.639751,-0.09620459,-0.1928625,1.695894,0.3656102,-0.2037272,1.679495,NA,NA,NotTracked,NotTracked,
0.9399414,-0.3408203,-0.04736328,0.9267578,0.2983398,0.09960938,0,1,-2,1,-1,-1,0,-2,-3,0,0,-3,1,-1,-2,-1,-0.25,-0.25,-0.25,-0.5,-0.5,-0.5,2.226443,3.07497,6.274628,7.181819,3.025174,6.633275,-0.07075176,-0.4929828,1.592491,0.3326784,-0.5041984,1.572384,0.1483468,0.3382078,1.669091,-0.119982,-0.4919158,1.606462,0.3793834,-0.5159697,1.555759,0.1388173,-0.114996,1.683271,0.1348916,-0.4257651,1.669666,-0.03823848,0.07193286,1.687903,0.05080774,-0.4160775,1.639906,-0.09603156,-0.1930056,1.696016,0.3656349,-0.203705,1.679516,NA,NA,NotTracked,NotTracked,
0.9277344,-0.3452148,-0.05175781,0.9155273,0.3007813,0.09228516,2,-1,-1,-3,0,-2,1,-1,-1,-4,0,-1,-3,-1,1,-2,0.625,0.625,0.625,1.3125,1.3125,1.3125,2.226895,3.074756,6.274331,7.181721,3.025532,6.6336,-0.07038183,-0.4927436,1.592352,0.3327499,-0.5040851,1.571701,0.1484324,0.3381967,1.669166,-0.1201425,-0.4957152,1.600476,0.3785608,-0.5142717,1.554976,0.1389228,-0.1150091,1.683409,0.134977,-0.4258448,1.669777,-0.03809902,0.07193909,1.687954,0.05089275,-0.4161668,1.64005,-0.09588416,-0.1929537,1.696112,0.3656457,-0.2037155,1.679512,NA,NA,NotTracked,NotTracked,
0.9267578,-0.3334961,-0.05029297,0.9213867,0.3071289,0.09521484,-2,-5,0,-1,-1,-1,-1,0,-1,0,1,0,-3,-3,-2,0,-0.125,-0.125,-0.125,1.875,1.875,1.875,2.226895,3.074756,6.274331,7.182692,3.025592,6.633753,-0.07094914,-0.4936351,1.592575,0.3330872,-0.5043542,1.571906,0.1485054,0.3382052,1.669305,-0.1207409,-0.4973706,1.600178,0.3789778,-0.5146842,1.553155,0.1390301,-0.1150178,1.683501,0.1350495,-0.4258807,1.669816,-0.03794544,0.07182885,1.688169,0.05097021,-0.4161994,1.640107,-0.0957513,-0.1928255,1.696395,0.3657504,-0.203751,1.679451,NA,NA,NotTracked,NotTracked,
0.9287109,-0.3515625,-0.04736328,0.921875,0.3041992,0.08886719,-2,1,-1,-1,0,-1,-2,-2,-1,0,1,-2,-1,0,-1,0,-0.5625,-0.5625,-0.5625,-1.75,-1.75,-1.75,2.22572,3.075411,6.27472,7.182084,3.025187,6.632841,-0.06996334,-0.4927807,1.593492,0.3334392,-0.5046337,1.572464,0.1487398,0.3380527,1.669505,-0.1187277,-0.4872904,1.609765,0.3795508,-0.5134574,1.553955,0.1392916,-0.1150586,1.683758,0.1352435,-0.4259139,1.669985,-0.03771903,0.07183586,1.688533,0.05116497,-0.4162125,1.64027,-0.09530909,-0.1927564,1.696656,0.3659974,-0.2037684,1.679378,NA,NA,NotTracked,NotTracked,
0.9384766,-0.3398438,-0.04589844,0.9208984,0.2983398,0.08886719,0,-1,0,0,-1,0,1,-1,-1,-1,-2,-1,-1,0,-1,-1,1.875,1.875,1.875,0.4375,0.4375,0.4375,2.227652,3.07526,6.275136,7.180949,3.024077,6.633039,-0.07044451,-0.4929681,1.593119,0.3332306,-0.5045477,1.571684,0.1488197,0.338045,1.669513,-0.1203161,-0.4962338,1.60479,0.3769693,-0.5113406,1.549973,0.1394283,-0.1150863,1.683822,0.1353159,-0.4259614,1.670042,-0.0376135,0.07181832,1.688598,0.05123918,-0.4162439,1.640343,-0.09520604,-0.1929481,1.69672,0.3661295,-0.2038231,1.679372,NA,NA,NotTracked,NotTracked,
0.9399414,-0.3398438,-0.05224609,0.9223633,0.309082,0.09765625,0,-1,-3,-1,-2,-1,-3,-1,-1,-3,-1,-2,0,0,2,-2,-0.3125,-0.3125,-0.3125,2.1875,2.1875,2.1875,2.228009,3.075127,6.274814,7.180045,3.023179,6.635411,-0.0698731,-0.4939877,1.594187,0.3336615,-0.5044015,1.573853,0.1490438,0.3380899,1.669767,-0.1203218,-0.5002115,1.606556,0.3811349,-0.5033002,1.55968,0.1396096,-0.1150833,1.684056,0.1354828,-0.4259865,1.670283,-0.03750242,0.07181051,1.688961,0.05144035,-0.4162722,1.6407,-0.09506847,-0.1930159,1.697042,0.3663508,-0.20383,1.679364,NA,NA,NotTracked,NotTracked,
0.9321289,-0.3447266,-0.04931641,0.9194336,0.3061523,0.09277344,0,0,-1,1,-2,-1,2,2,-1,-3,-3,-2,0,1,-2,-1,-0.375,-0.375,-0.375,0,0,0,2.22805,3.074807,6.27474,7.178432,3.022233,6.637206,-0.07020358,-0.4940126,1.592565,0.3333805,-0.5043262,1.571806,0.1491614,0.3380826,1.669871,-0.1231138,-0.5198922,1.597,0.3794958,-0.5108088,1.551812,0.1397316,-0.1150606,1.684098,0.1355844,-0.425937,1.670326,-0.03741697,0.07183184,1.689054,0.05152696,-0.4162213,1.640727,-0.094731,-0.193279,1.697094,0.3665648,-0.2037605,1.679291,NA,NA,NotTracked,NotTracked,
0.9311523,-0.3413086,-0.05273438,0.921875,0.3100586,0.08935547,-1,-1,-2,-2,-1,-2,0,-1,-2,-4,-3,-1,0,-2,2,-1,0.3125,0.3125,0.3125,0,0,0,2.228278,3.074898,6.27502,7.176528,3.022232,6.637671,-0.06970332,-0.4930325,1.593459,0.3333691,-0.504274,1.572833,0.1492752,0.3380901,1.670004,-0.1200733,-0.4801678,1.613562,0.3791319,-0.5112513,1.555709,0.1397562,-0.1150731,1.684153,0.1356204,-0.4259637,1.670377,-0.03733693,0.07180551,1.68914,0.05157279,-0.4162438,1.640825,-0.09461254,-0.1933009,1.697248,0.3666935,-0.2036967,1.679289,NA,NA,NotTracked,NotTracked,
0.9404297,-0.3452148,-0.05224609,0.9228516,0.3105469,0.09667969,1,-1,0,-1,-2,-2,1,-2,-1,-6,-4,-1,1,-1,-2,-2,0.0625,0.0625,0.0625,0.125,0.125,0.125,2.227143,3.074895,6.276569,7.175006,3.02242,6.638914,-0.06972108,-0.4938437,1.593063,0.3334675,-0.504373,1.572461,0.1496192,0.3378948,1.67033,-0.1201103,-0.5045736,1.6044,0.380183,-0.5185769,1.547684,0.139911,-0.1151237,1.684276,0.1357304,-0.4259894,1.670425,-0.03702027,0.07175284,1.689415,0.05165983,-0.4162583,1.640882,-0.09447808,-0.1937493,1.697618,0.3668823,-0.2037148,1.679241,NA,NA,NotTracked,NotTracked,
0.9370117,-0.3422852,-0.05273438,0.9248047,0.3012695,0.09570313,-3,1,-1,1,-1,-2,-1,-2,-2,2,1,0,-1,-1,-1,0,0.1875,0.1875,0.1875,-0.1875,-0.1875,-0.1875,2.226508,3.075094,6.277368,7.17214,3.022351,6.641274,-0.0695177,-0.4936458,1.594567,0.3335439,-0.5040966,1.573965,0.1497114,0.3379121,1.670459,-0.1206927,-0.513401,1.6064,0.3797556,-0.5072395,1.558038,0.1400296,-0.1151226,1.684422,0.1358047,-0.4259772,1.670552,-0.03694696,0.0718004,1.689654,0.05174909,-0.4162257,1.641028,-0.09445218,-0.1938291,1.697805,0.3670221,-0.2037597,1.679242,NA,NA,NotTracked,NotTracked,
0.9370117,-0.347168,-0.04931641,0.9248047,0.309082,0.09228516,2,-3,-1,-3,0,-1,-1,0,1,1,0,-1,-1,2,2,-1,-0.5625,-0.5625,-0.5625,0.5625,0.5625,0.5625,2.227609,3.075242,6.276445,7.168815,3.022312,6.64496,-0.06964247,-0.4933618,1.594602,0.3335802,-0.5045705,1.573303,0.1498102,0.3380089,1.670635,-0.119191,-0.4981037,1.605476,0.3796062,-0.5118271,1.554808,0.1401114,-0.1151165,1.684539,0.1358501,-0.4259887,1.670653,-0.03686786,0.07180001,1.689765,0.05180409,-0.4162205,1.641188,-0.09444717,-0.1936385,1.698008,0.3671767,-0.2037478,1.679299,NA,NA,NotTracked,NotTracked,
0.9291992,-0.3427734,-0.04736328,0.9204102,0.3056641,0.09472656,0,0,-1,-3,-2,-2,-4,-2,-2,-2,-1,0,0,0,0,-2,-0.4375,-0.4375,-0.4375,-0.25,-0.25,-0.25,2.22765,3.074921,6.276371,7.165785,3.022551,6.647186,-0.06941741,-0.4935301,1.594401,0.3333814,-0.5043548,1.573337,0.150011,0.3379162,1.67082,-0.1199142,-0.4948541,1.619,0.3799385,-0.5137136,1.552889,0.1402038,-0.11515,1.684674,0.135899,-0.4259916,1.670716,-0.03675692,0.07180798,1.689969,0.05185098,-0.4162087,1.641229,-0.0942477,-0.1938169,1.698471,0.3672236,-0.2037185,1.679332,NA,NA,NotTracked,NotTracked,
0.9331055,-0.3427734,-0.04345703,0.9174805,0.3076172,0.08642578,-2,-1,-2,-3,-2,0,0,-4,0,-1,-1,-2,0,0,2,-1,-1.4375,-1.4375,-1.4375,-0.75,-0.75,-0.75,2.227707,3.0755,6.275234,7.163981,3.023142,6.647591,-0.06921916,-0.4935535,1.594204,0.3336323,-0.5043361,1.573695,0.1500822,0.3379242,1.670942,-0.1233133,-0.5105025,1.6065,0.3801761,-0.5146141,1.554596,0.140297,-0.1151799,1.684814,0.1359349,-0.4260137,1.670797,-0.03660503,0.07179175,1.69008,0.05188284,-0.4162276,1.64136,-0.09416677,-0.1938125,1.698671,0.3672764,-0.2037214,1.679364,NA,NA,NotTracked,NotTracked,
0.9345703,-0.3442383,-0.04833984,0.9223633,0.2973633,0.09326172,1,-2,-1,-1,-2,-1,-1,-2,0,1,2,0,-1,0,1,0,-1.125,-1.125,-1.125,-0.9375,-0.9375,-0.9375,2.227296,3.075731,6.274222,7.161043,3.023021,6.649503,-0.0695815,-0.4926435,1.59242,0.3332084,-0.5042465,1.571674,0.1501415,0.3379102,1.670988,-0.1209349,-0.5006918,1.612991,0.3802004,-0.513675,1.553499,0.1404139,-0.1151997,1.684795,0.1359976,-0.4260131,1.670777,-0.0365565,0.07175301,1.690107,0.0519336,-0.4162175,1.641358,-0.09409246,-0.1938624,1.698667,0.3672816,-0.2037291,1.67934,NA,NA,NotTracked,NotTracked,
0.9306641,-0.3447266,-0.05859375,0.9160156,0.3066406,0.09326172,1,1,-2,-1,0,0,-1,-1,-2,-2,-3,-1,0,-2,-1,-2,-2.4375,-2.4375,-2.4375,0.9375,0.9375,0.9375,2.225039,3.075531,6.274738,7.161025,3.022343,6.649765,-0.06893387,-0.4923592,1.59434,0.3333538,-0.5042697,1.573896,0.1503973,0.338017,1.671272,-0.1195593,-0.4898225,1.6142,0.3794588,-0.5179157,1.552164,0.1407851,-0.115262,1.685107,0.1362291,-0.4260655,1.671071,-0.03637633,0.07170274,1.69052,0.0521924,-0.4162711,1.641665,-0.09403837,-0.1938643,1.698983,0.3673707,-0.2037995,1.67947,NA,NA,NotTracked,NotTracked,
0.9311523,-0.3417969,-0.05517578,0.9194336,0.3007813,0.09619141,-8,-4,0,1,0,1,-1,-3,-4,-2,1,-1,0,-2,-1,-2,-1.8125,-1.8125,-1.8125,0.375,0.375,0.375,2.223554,3.075463,6.274029,7.159596,3.021897,6.65019,-0.0692741,-0.4935899,1.594286,0.3332775,-0.5046834,1.57433,0.1504654,0.3380351,1.671444,-0.116321,-0.4872384,1.60475,0.382084,-0.5134246,1.557943,0.1409051,-0.1152665,1.685265,0.1362868,-0.4260742,1.671224,-0.03624941,0.07172347,1.690657,0.05226601,-0.4162688,1.641878,-0.09401841,-0.1939095,1.699234,0.3674175,-0.203774,1.679496,NA,NA,NotTracked,NotTracked,
0.9316406,-0.3510742,-0.05615234,0.9326172,0.3032227,0.09082031,-1,-1,-1,-2,-2,-2,-2,-1,1,-3,-3,0,-1,-2,-1,0,-2.9375,-2.9375,-2.9375,-0.8125,-0.8125,-0.8125,2.220184,3.075439,6.274244,7.159379,3.021259,6.649308,-0.06897929,-0.493626,1.594943,0.3331406,-0.5045394,1.574876,0.150592,0.3380134,1.671573,-0.1193362,-0.4971094,1.608819,0.380118,-0.5121882,1.555397,0.1410128,-0.1152563,1.685426,0.1364329,-0.4260629,1.671345,-0.03616662,0.07176604,1.690999,0.05240167,-0.416249,1.641991,-0.09397662,-0.1939127,1.69928,0.3674913,-0.2037517,1.679577,NA,NA,NotTracked,NotTracked,
0.9360352,-0.3486328,-0.05224609,0.9282227,0.3027344,0.09228516,-2,-1,-3,-2,-4,0,-4,-1,3,1,-3,-1,0,-1,-1,-1,-1.0625,-1.0625,-1.0625,-2.25,-2.25,-2.25,2.222178,3.076517,6.270931,7.156853,3.020567,6.649921,-0.0688358,-0.4931476,1.593783,0.3328878,-0.5044581,1.57409,0.1506268,0.3379853,1.671575,-0.1208378,-0.5002831,1.61375,0.3796262,-0.5115384,1.555065,0.1412373,-0.1152351,1.685544,0.1365305,-0.4260714,1.671409,-0.03599076,0.07176769,1.690988,0.0524874,-0.4162436,1.64205,-0.09387261,-0.1936506,1.699302,0.3674912,-0.2037407,1.679633,NA,NA,NotTracked,NotTracked,
0.9350586,-0.3408203,-0.05371094,0.9257813,0.3037109,0.08984375,-1,-3,-1,0,0,0,-1,-3,-2,2,-1,-2,0,0,0,0,-1.5625,-1.5625,-1.5625,-1.875,-1.875,-1.875,2.22313,3.076818,6.268531,7.155311,3.020472,6.648132,-0.06861864,-0.493154,1.594257,0.3330121,-0.5039904,1.575326,0.1507381,0.337975,1.671688,-0.1184336,-0.4993474,1.605492,0.3778146,-0.5141615,1.554186,0.1413072,-0.1152242,1.685646,0.1365527,-0.4260479,1.671516,-0.03593906,0.07185248,1.691162,0.05250067,-0.4162113,1.642117,-0.09394754,-0.1934147,1.699321,0.3675135,-0.2036703,1.679705,NA,NA,NotTracked,NotTracked,
0.9311523,-0.3447266,-0.04931641,0.9179688,0.3051758,0.09326172,-1,-1,0,0,-1,-1,0,-2,-1,0,-1,0,0,0,-1,1,-2.25,-2.25,-2.25,-2,-2,-2,2.223748,3.0771,6.265835,7.154613,3.01985,6.646055,-0.06892268,-0.493172,1.594516,0.3332483,-0.5052867,1.57588,0.1510094,0.3378965,1.67205,-0.1184761,-0.4906651,1.606111,0.379787,-0.5133703,1.555304,0.1413928,-0.115365,1.685894,0.1366652,-0.4261124,1.671695,-0.03572239,0.07184898,1.691573,0.05259496,-0.4162466,1.642261,-0.09379208,-0.1939338,1.699474,0.3676348,-0.2039649,1.680138,NA,NA,NotTracked,NotTracked,
0.9296875,-0.3408203,-0.04931641,0.9228516,0.3032227,0.09765625,-2,-2,1,-1,0,0,-2,-3,0,-1,-2,-2,0,0,0,1,-1.9375,-1.9375,-1.9375,-0.1875,-0.1875,-0.1875,2.223058,3.076668,6.264519,7.154691,3.018794,6.643985,-0.06922276,-0.4935672,1.594162,0.3326377,-0.5048038,1.575827,0.151163,0.3378274,1.672145,-0.1091626,-0.5156736,1.567739,0.3790331,-0.511766,1.555603,0.1413795,-0.1154255,1.686074,0.1366642,-0.4261489,1.67182,-0.03567531,0.07179485,1.691782,0.05259258,-0.4162605,1.642386,-0.09378546,-0.1939102,1.699561,0.3677072,-0.2040198,1.68034,NA,NA,NotTracked,NotTracked,
0.9321289,-0.3476563,-0.0546875,0.9174805,0.3095703,0.09619141,3,-2,-2,-2,0,-2,-1,-2,1,-2,-4,-3,1,-1,0,1,-1.625,-1.625,-1.625,-0.375,-0.375,-0.375,2.221141,3.076315,6.264724,7.156204,3.018189,6.641477,-0.06936304,-0.4934202,1.595872,0.3331065,-0.505103,1.577922,0.1513112,0.3378113,1.672478,-0.1206202,-0.4815533,1.615222,0.3783677,-0.50877,1.558908,0.1415036,-0.1154654,1.686372,0.1366982,-0.4261713,1.672038,-0.03564322,0.07172245,1.691969,0.05261646,-0.4162778,1.64261,-0.09382869,-0.194061,1.699773,0.3677576,-0.2041326,1.680813,NA,NA,NotTracked,NotTracked,
0.934082,-0.3442383,-0.05664063,0.9179688,0.3125,0.09863281,-5,-6,0,0,0,-1,0,-1,-4,-5,-5,-1,0,0,1,0,-1.3125,-1.3125,-1.3125,-0.5625,-0.5625,-0.5625,2.220047,3.076175,6.264486,7.157054,3.017927,6.639659,-0.06986035,-0.4927383,1.595502,0.3332866,-0.5051317,1.577621,0.1514708,0.3377891,1.672706,-0.1209484,-0.493705,1.6096,0.378428,-0.509907,1.557361,0.1414939,-0.1154419,1.686578,0.1366822,-0.4261292,1.672304,-0.03558225,0.07172634,1.69213,0.0526098,-0.4162262,1.642819,-0.09392381,-0.1939351,1.69988,0.3678272,-0.2042071,1.681055,NA,NA,NotTracked,NotTracked,
0.9370117,-0.3422852,-0.04931641,0.9223633,0.3046875,0.09716797,1,-1,0,-1,-2,-2,2,-2,0,-3,-1,-1,-2,-4,1,-1,-0.75,-0.75,-0.75,-0.375,-0.375,-0.375,2.220502,3.075965,6.264187,7.158202,3.017679,6.637897,-0.06922898,-0.493157,1.595726,0.3328485,-0.5053027,1.578362,0.1516375,0.3377978,1.673033,-0.122599,-0.5067819,1.613429,0.3796538,-0.5180849,1.556378,0.1415468,-0.1154303,1.686796,0.1366736,-0.4260953,1.672476,-0.03560898,0.0718489,1.692408,0.05260416,-0.4161744,1.642909,-0.09390917,-0.193955,1.699939,0.3678593,-0.2041728,1.68139,NA,NA,NotTracked,NotTracked,
0.9360352,-0.3427734,-0.05517578,0.9194336,0.3046875,0.08789063,0,0,-1,-1,-2,-1,1,0,-2,9,5,0,0,1,0,0,-0.9375,-0.9375,-0.9375,-0.3125,-0.3125,-0.3125,2.220446,3.075723,6.264089,7.162589,3.017144,6.632495,-0.06960998,-0.4934788,1.595708,0.3328369,-0.5057073,1.5785,0.1518863,0.3377032,1.67323,-0.1194249,-0.5043863,1.603,0.3784983,-0.5132598,1.558902,0.1415311,-0.115447,1.687037,0.1366121,-0.4261248,1.672746,-0.03556845,0.07183855,1.692554,0.0525219,-0.4161955,1.643171,-0.09402305,-0.1935987,1.7003,0.3677334,-0.2043633,1.682103,NA,NA,NotTracked,NotTracked,
0.9370117,-0.3476563,-0.05029297,0.9194336,0.3066406,0.09619141,-8,-4,-2,0,1,-2,1,-1,1,-2,0,-1,0,-2,-5,-4,0.125,0.125,0.125,0.3125,0.3125,0.3125,2.221493,3.075631,6.263068,7.163655,3.017802,6.630535,-0.06927561,-0.493199,1.59618,0.3327355,-0.5052224,1.579254,0.1519452,0.3377063,1.673261,-0.1201273,-0.4907054,1.611783,0.378654,-0.5136259,1.557074,0.1415568,-0.1154338,1.687164,0.1366013,-0.4261124,1.672907,-0.03554631,0.07182217,1.692651,0.05250328,-0.4161838,1.643304,-0.09401314,-0.1933493,1.700388,0.367732,-0.2043471,1.682424,NA,NA,NotTracked,NotTracked,
0.9360352,-0.3481445,-0.04736328,0.9311523,0.3041992,0.09375,3,-1,-3,-1,-2,-1,-3,-2,1,-2,0,-1,0,-1,-1,0,-0.375,-0.375,-0.375,-0.3125,-0.3125,-0.3125,2.221948,3.075421,6.262768,7.16138,3.018959,6.631783,-0.07035193,-0.4939499,1.595882,0.3324371,-0.5059799,1.578474,0.1519887,0.3377045,1.673308,-0.1212113,-0.4970395,1.613796,0.3784746,-0.5132096,1.556348,0.141553,-0.1154555,1.687304,0.1366266,-0.4261343,1.67301,-0.03555974,0.07180741,1.692739,0.05251956,-0.4161959,1.64335,-0.094037,-0.1934472,1.700504,0.3676873,-0.2042924,1.682584,NA,NA,NotTracked,NotTracked,
0.9326172,-0.340332,-0.05322266,0.9189453,0.309082,0.09619141,-1,2,0,-2,-2,-2,-3,0,-3,-3,-2,-1,0,2,0,-1,0.4375,0.4375,0.4375,1.75,1.75,1.75,2.222348,3.074969,6.26237,7.162702,3.019639,6.631419,-0.06996845,-0.492882,1.596001,0.3324172,-0.506117,1.578844,0.1519851,0.3376459,1.673385,-0.1206482,-0.4932376,1.613473,0.3791783,-0.5155228,1.557106,0.1415635,-0.1154889,1.68739,0.1366576,-0.4261959,1.673115,-0.03555274,0.07180299,1.692761,0.05254335,-0.416272,1.64348,-0.0940868,-0.1934016,1.700601,0.3676472,-0.2042361,1.682728,NA,NA,NotTracked,NotTracked,
0.9287109,-0.3442383,-0.05322266,0.9194336,0.3022461,0.09667969,2,-1,-1,-1,1,0,-1,-3,1,-3,-2,0,0,-2,-1,1,0.4375,0.4375,0.4375,2.25,2.25,2.25,2.222995,3.075329,6.261746,7.163356,3.02013,6.63275,-0.07029347,-0.493724,1.596805,0.3325705,-0.5063742,1.579409,0.152047,0.3376027,1.673782,-0.1210777,-0.4856685,1.621857,0.3797254,-0.5153646,1.558664,0.1415615,-0.115449,1.687794,0.1366902,-0.4261964,1.673421,-0.0356135,0.07184615,1.693131,0.05255629,-0.4162798,1.643654,-0.09421322,-0.1933189,1.700979,0.3676437,-0.2042297,1.683059,NA,NA,NotTracked,NotTracked,
0.9331055,-0.3452148,-0.04638672,0.921875,0.3095703,0.09179688,-3,-1,-1,-3,-3,-1,-2,-2,0,0,0,0,-1,0,-3,0,-0.375,-0.375,-0.375,0.75,0.75,0.75,2.22305,3.075571,6.261845,7.163444,3.020464,6.634204,-0.07051239,-0.4937972,1.596751,0.332093,-0.5062361,1.579093,0.152018,0.3375746,1.674065,-0.1206009,-0.489689,1.615631,0.3790737,-0.5182902,1.556751,0.1415007,-0.1154393,1.687929,0.1366442,-0.4261866,1.673489,-0.03565161,0.0718554,1.693385,0.05251746,-0.4162651,1.64369,-0.09418394,-0.1934153,1.701237,0.367617,-0.2042644,1.68325,NA,NA,NotTracked,NotTracked,
0.9360352,-0.3432617,-0.04541016,0.921875,0.2954102,0.09423828,-1,-1,-2,-1,-1,0,0,-1,-2,-2,-1,-1,0,1,0,0,1.75,1.75,1.75,0.625,0.625,0.625,2.225297,3.076101,6.261261,7.160901,3.020799,6.635873,-0.07043946,-0.4928852,1.596135,0.3320311,-0.5064685,1.578766,0.1520746,0.3375916,1.674199,-0.1217363,-0.5091898,1.594616,0.3779053,-0.5197688,1.556436,0.1415155,-0.1154516,1.688037,0.1366019,-0.4261987,1.673625,-0.03567878,0.0717755,1.693512,0.05246311,-0.4162633,1.643871,-0.09422547,-0.1932941,1.701471,0.3675789,-0.2042867,1.68333,NA,NA,NotTracked,NotTracked,
0.9331055,-0.3427734,-0.04785156,0.9287109,0.3027344,0.09521484,0,-2,-2,-2,-3,1,1,-1,-4,0,-1,-1,-1,-3,1,0,0.1875,0.1875,0.1875,2.25,2.25,2.25,2.226772,3.075952,6.260561,7.15892,3.021305,6.639442,-0.07076553,-0.4940596,1.597275,0.3321637,-0.5062789,1.579667,0.1520498,0.3376763,1.674433,-0.1211512,-0.4979793,1.606951,0.3780495,-0.5164715,1.558288,0.1414697,-0.1154844,1.688227,0.1365193,-0.4261976,1.673825,-0.03568238,0.07178016,1.693712,0.05239824,-0.4162449,1.644004,-0.09421886,-0.1933239,1.701556,0.3675698,-0.2041989,1.683625,NA,NA,NotTracked,NotTracked,
