ALX,ALY,ALZ,ARX,ARY,ARZ,EMG0L,EMG1L,EMG2L,EMG3L,EMG4L,EMG5L,EMG6L,EMG7L,EMG0R,EMG1R,EMG2R,EMG3R,EMG4R,EMG5R,EMG6R,EMG7R,GLX,GLY,GLZ,GRX,GRY,GRZ,ORL,OPL,OYL,ORR,OPR,OYR,LHNX,LHNY,LHNZ,RHNX,RHNY,RHNZ,HX,HY,HZ,LTX,LTY,LTZ,RTX,RTY,RTZ,SpineMidX,SpineMidY,SpineMidZ,SpineBaseX,SpineBaseY,SpineBaseZ,ShoulderLeftX,ShoulderLeftY,ShoulderLeftZ,ShoulderRightX,ShoulderRightY,ShoulderRightZ,ElbowLeftX,ElbowLeftY,ElbowLeftZ,ElbowRightX,ElbowRightY,ElbowRightZ,Myo_Pose_left,Myo_Pose_Right,Kinect_pose_left,Kinect_pose_right
0.9267578,-0.3671875,-0.05517578,0.9267578,0.3881836,0.04638672,0,-2,0,-1,-2,2,-1,-3,-2,-3,-1,-2,-2,-1,2,-2,0.1875,0.1875,0.1875,-3.9375,-3.9375,-3.9375,2.195981,3.108157,3.229314,7.179791,3.122885,2.402924,-0.09740616,-0.4952771,1.642781,0.3136945,-0.4943094,1.598549,0.1299291,0.3372093,1.727807,-0.04620884,-0.4752747,1.610222,0.2758399,-0.4728154,1.620836,0.1165916,-0.1189719,1.735585,0.1095103,-0.4308451,1.718071,-0.05614479,0.06975608,1.741994,0.02588611,-0.42043,1.688357,-0.116744,-0.1946789,1.745918,0.3563675,-0.1951265,1.708706,NA,NA,NotTracked,NotTracked,
0.9248047,-0.3676758,-0.0625,0.9584961,0.394043,0.08544922,-1,0,-1,0,0,1,-1,0,3,1,3,-1,0,-1,1,1,-0.0625,-0.0625,-0.0625,-3.0625,-3.0625,-3.0625,2.19671,3.108113,3.228668,7.141204,3.134196,2.440365,-0.09776445,-0.4963025,1.64377,0.3127908,-0.4946121,1.598936,0.1298567,0.3372588,1.728255,-0.04601847,-0.4760636,1.610232,0.275176,-0.474914,1.619386,0.1165821,-0.1190038,1.735848,0.1094303,-0.430886,1.718282,-0.05625428,0.0696868,1.742414,0.02580899,-0.4204557,1.688542,-0.1168679,-0.1947426,1.746515,0.3561596,-0.1952192,1.709417,NA,NA,NotTracked,NotTracked,
0.921875,-0.3701172,-0.06103516,0.9716797,0.440918,0.1269531,-1,0,-2,-1,-2,-2,0,0,1,1,-9,-1,-2,0,-3,-1,-0.125,-0.125,-0.125,4.375,4.375,4.375,2.196782,3.108131,3.22852,7.072687,3.162534,2.51632,-0.09734832,-0.4959323,1.6433,0.3103791,-0.4931116,1.596653,0.1297431,0.3371815,1.728561,-0.04586862,-0.4763237,1.609438,0.2733293,-0.4717554,1.618483,0.1165252,-0.118992,1.736049,0.1092846,-0.430888,1.71844,-0.05628445,0.06965244,1.742747,0.02566874,-0.4204463,1.688686,-0.1169373,-0.1944246,1.747052,0.3562591,-0.1946438,1.7101,NA,NA,NotTracked,NotTracked,
0.921875,-0.3686523,-0.06445313,0.9980469,0.4956055,0.2124023,-3,-1,-3,-3,0,1,1,1,-1,-2,1,1,4,5,7,1,0.3125,0.3125,0.3125,6.625,6.625,6.625,2.199256,3.111172,3.227061,6.970378,3.21765,2.636374,-0.09821228,-0.496518,1.644383,0.3070964,-0.4905987,1.594682,0.129643,0.3370676,1.729162,-0.04668971,-0.4756778,1.612167,0.2680774,-0.4689212,1.613589,0.1163827,-0.1190582,1.736593,0.1091738,-0.4309566,1.71891,-0.05636415,0.0695276,1.743211,0.02558499,-0.4204447,1.689026,-0.1167902,-0.1945865,1.747637,0.3563201,-0.1939216,1.711102,NA,NA,NotTracked,NotTracked,
0.9223633,-0.3706055,-0.06640625,0.9853516,0.5561523,0.328125,-2,1,2,-1,0,-1,0,-1,-1,-6,24,2,-3,-1,-3,1,0.0625,0.0625,0.0625,6,6,6,2.199643,3.112081,3.226323,6.840225,3.306999,2.787966,-0.09854879,-0.4956981,1.645132,0.3013604,-0.4851835,1.588063,0.1295097,0.3370241,1.729738,-0.04563753,-0.4809249,1.6099,0.2667322,-0.4720063,1.611118,0.1162706,-0.1190996,1.736905,0.1090012,-0.431002,1.71923,-0.05659826,0.06946269,1.743799,0.02546062,-0.4204538,1.689166,-0.1170377,-0.1946063,1.748311,0.3566574,-0.1935176,1.712029,NA,NA,NotTracked,NotTracked,
0.9257813,-0.3652344,-0.04736328,0.9404297,0.6049805,0.4248047,0,-2,-2,-2,-3,0,-5,-2,0,0,19,4,8,0,0,-2,-4,-4,-4,10.8125,10.8125,10.8125,2.202727,3.11313,3.219455,6.722885,3.42856,2.935213,-0.09933423,-0.4960877,1.643257,0.2840012,-0.4607619,1.564361,0.1293911,0.3369405,1.73049,-0.04685042,-0.4733858,1.611579,0.2444373,-0.4854616,1.570345,0.1160486,-0.1190292,1.737178,0.1082382,-0.4307763,1.719507,-0.05687019,0.06942961,1.744496,0.02456627,-0.42008,1.689478,-0.1171841,-0.1949304,1.748859,0.3576864,-0.1917218,1.714496,NA,NA,NotTracked,NotTracked,
0.9306641,-0.3779297,-0.046875,0.8735352,0.6743164,0.4780273,-3,-1,-1,-1,-1,-2,-1,-1,-2,-3,-10,-6,5,4,0,-1,-5.875,-5.875,-5.875,14.75,14.75,14.75,2.201196,3.113309,3.215428,6.630358,3.58295,3.070454,-0.09893234,-0.4956273,1.643578,0.2702983,-0.4402043,1.550199,0.1292813,0.3369107,1.730753,-0.04709558,-0.4738412,1.611972,0.2443679,-0.4770065,1.572409,0.11565,-0.118908,1.737393,0.1070966,-0.4304949,1.719695,-0.0570217,0.06955057,1.74501,0.02313765,-0.4195482,1.689724,-0.1173261,-0.1945868,1.74899,0.3582718,-0.1887875,1.716612,NA,NA,NotTracked,NotTracked,
0.9272461,-0.3730469,-0.04394531,0.8173828,0.6787109,0.5288086,-2,-1,-1,-3,-2,0,0,0,3,8,5,-3,-4,2,-2,-1,-5.3125,-5.3125,-5.3125,12.75,12.75,12.75,2.200734,3.113489,3.213582,6.551957,3.766025,3.194461,-0.09922791,-0.4959498,1.644585,0.2555078,-0.4121718,1.535805,0.1292279,0.3368725,1.731035,-0.04732241,-0.4712758,1.613574,0.2325492,-0.4494355,1.561727,0.1150714,-0.1187977,1.737733,0.1055787,-0.4302862,1.720027,-0.05707512,0.06953939,1.74525,0.02131657,-0.4190159,1.690127,-0.1174535,-0.1945807,1.749235,0.3593262,-0.1811502,1.720169,NA,NA,NotTracked,Unknown,
0.9179688,-0.375,-0.04443359,0.6953125,0.7026367,0.5727539,-1,-2,-2,-1,1,-1,-1,-1,0,1,-1,9,-6,-13,-4,1,-6,-6,-6,19.625,19.625,19.625,2.200787,3.1132,3.204116,6.493869,3.976207,3.312316,-0.09954675,-0.4959892,1.64381,0.2375478,-0.3824596,1.520563,0.129168,0.3368389,1.731129,-0.04768284,-0.4722157,1.613311,0.1970578,-0.3980787,1.534318,0.1141605,-0.1185228,1.738043,0.1032926,-0.4297866,1.720199,-0.05713306,0.06957997,1.745463,0.01887779,-0.4180558,1.690124,-0.1175155,-0.1945086,1.749285,0.3596502,-0.1727431,1.721081,NA,NA,NotTracked,Unknown,
0.9248047,-0.3754883,-0.04150391,0.5688477,0.7524414,0.5991211,0,0,-1,-4,-3,0,-4,-1,6,8,58,17,-12,4,4,0,-5.4375,-5.4375,-5.4375,20.875,20.875,20.875,2.205295,3.11369,3.193251,6.455986,4.209085,3.427598,-0.09901929,-0.4961044,1.643052,0.1805486,-0.3207206,1.519765,0.1288522,0.3367455,1.731945,-0.04776166,-0.4700349,1.614116,0.1548837,-0.3712104,1.566736,0.1135397,-0.1183666,1.738441,0.102088,-0.4296737,1.720539,-0.05714988,0.06950558,1.745637,0.01806979,-0.4178302,1.690397,-0.1175995,-0.1944271,1.749403,0.3611375,-0.1621795,1.718614,NA,NA,NotTracked,Unknown,
0.9223633,-0.3759766,-0.04980469,0.4233398,0.7998047,0.6313477,-1,0,-2,-1,-1,-2,-2,-2,1,-2,-6,-3,6,7,-3,-7,-5,-5,-5,26.9375,26.9375,26.9375,2.208048,3.114681,3.187893,6.437831,4.456284,3.550231,-0.09817088,-0.4959858,1.642429,0.1576183,-0.2742627,1.50918,0.1286673,0.3366735,1.732237,-0.04745778,-0.4727196,1.613072,0.1671353,-0.3461992,1.5654,0.1134853,-0.1182995,1.738754,0.1024431,-0.4295543,1.720831,-0.05723421,0.06939439,1.745829,0.01879394,-0.4178298,1.690889,-0.1175743,-0.1943942,1.749433,0.3611453,-0.1525105,1.71454,NA,NA,NotTracked,Closed,
0.9277344,-0.3730469,-0.04833984,0.2441406,0.8764648,0.6782227,-1,-1,-2,0,-3,-1,-3,0,5,15,1,4,-2,18,10,-1,-3.875,-3.875,-3.875,23.4375,23.4375,23.4375,2.222489,3.117964,3.166054,6.430359,4.722425,3.683012,-0.09743025,-0.4957649,1.641585,0.1392326,-0.2239104,1.517845,0.1286601,0.336662,1.732511,-0.04778355,-0.4687364,1.615106,0.1575203,-0.3003747,1.5766,0.1135674,-0.1181583,1.739121,0.1027049,-0.4292967,1.721226,-0.05721262,0.06939408,1.746086,0.01916515,-0.4177259,1.691305,-0.117579,-0.194393,1.749432,0.3642184,-0.1515896,1.709056,NA,NA,NotTracked,Closed,
0.925293,-0.3686523,-0.05419922,0.02587891,0.8115234,0.6342773,-1,-3,-2,-1,-2,-1,-1,-1,7,4,-2,-4,-2,-11,-13,1,-5.25,-5.25,-5.25,2.5,2.5,2.5,2.23069,3.119219,3.151109,6.429729,5.003083,3.829983,-0.09722653,-0.495773,1.639915,0.1184428,-0.1809798,1.523961,0.1285734,0.3366892,1.73276,-0.04752762,-0.4718676,1.61368,0.126578,-0.2585153,1.579343,0.1135072,-0.1179407,1.739377,0.1028223,-0.4286423,1.721491,-0.05719608,0.06939032,1.746126,0.01931868,-0.4172397,1.691552,-0.1176179,-0.1943928,1.749399,0.3687663,-0.1498341,1.695884,NA,NA,NotTracked,Closed,
0.9272461,-0.355957,-0.05371094,-0.171875,0.6708984,0.5493164,-3,-2,-2,0,-1,-1,-2,0,2,-5,2,0,0,1,5,4,-6.625,-6.625,-6.625,0.375,0.375,0.375,2.234329,3.119402,3.143709,6.445054,5.282882,3.989265,-0.09704101,-0.4975287,1.638928,0.1066157,-0.1382738,1.534275,0.1285859,0.3366514,1.732909,-0.04720536,-0.4725889,1.61256,0.1096697,-0.2097168,1.579792,0.1135883,-0.1177266,1.739559,0.1029384,-0.4278468,1.721758,-0.05715753,0.06940132,1.746172,0.01960492,-0.4165518,1.691881,-0.1176834,-0.1942836,1.749283,0.4018691,-0.1634125,1.67033,NA,NA,NotTracked,Closed,
0.9213867,-0.3759766,-0.03515625,-0.265625,0.5561523,0.4682617,-1,-2,-1,-1,-1,-1,-2,0,-12,-2,6,6,-9,-2,1,10,-9,-9,-9,-2.0625,-2.0625,-2.0625,2.240794,3.11949,3.120142,6.482417,5.529956,4.154792,-0.0949168,-0.4969769,1.636429,0.03444046,-0.01664487,1.545515,0.1286208,0.3367594,1.733411,-0.04705702,-0.4723379,1.612724,0.00548987,-0.04146681,1.613556,0.1135006,-0.1173389,1.739936,0.10261,-0.4266936,1.722119,-0.05627086,0.06930332,1.740873,0.01944929,-0.4153908,1.693542,-0.1175131,-0.1942249,1.749012,0.3538166,-0.140811,1.626679,NA,NA,NotTracked,Unknown,
0.9223633,-0.3735352,-0.05126953,-0.324707,0.5249023,0.3710938,-1,-1,0,-1,0,-1,1,0,-7,-1,2,0,-1,5,6,-2,-5.3125,-5.3125,-5.3125,18.875,18.875,18.875,2.241639,3.120394,3.112788,6.585254,5.807941,4.370266,-0.09407499,-0.497179,1.63643,0.05842249,0.0107821,1.562856,0.1288414,0.3366871,1.733782,-0.04683539,-0.4737236,1.612641,0.1101239,0.04753698,1.627263,0.1134331,-0.1171854,1.740273,0.1026241,-0.4264112,1.722336,-0.05528878,0.06917217,1.737207,0.0195397,-0.4151276,1.694341,-0.1173662,-0.194288,1.748834,0.348902,-0.1379752,1.619609,NA,NA,NotTracked,Unknown,
0.9384766,-0.3720703,-0.04248047,-0.2958984,0.5478516,0.3803711,-2,0,0,-1,-2,0,1,-1,-4,-5,-2,1,-1,-2,-4,3,-2.3125,-2.3125,-2.3125,23.25,23.25,23.25,2.243781,3.121242,3.109126,6.624288,5.871609,4.422662,-0.09321091,-0.4973021,1.635793,0.08138055,0.009252817,1.583393,0.1289312,0.3366316,1.734216,-0.04672469,-0.4724308,1.612432,0.05581589,-0.04436404,1.619851,0.113365,-0.1171635,1.740647,0.1026253,-0.4263871,1.722409,-0.0530204,0.06892613,1.732264,0.01951136,-0.415169,1.694583,-0.1173784,-0.1938474,1.748699,0.3324037,-0.1326069,1.599874,NA,NA,NotTracked,Unknown,
0.9394531,-0.3569336,-0.05908203,-0.324707,0.6054688,0.3466797,1,0,-1,0,-1,2,-3,-1,10,8,0,0,-3,-5,4,1,6.1875,6.1875,6.1875,14.625,14.625,14.625,2.254932,3.126382,3.103889,6.684408,5.953314,4.492035,-0.09201201,-0.496082,1.633317,0.08004596,0.02534677,1.585262,0.1290632,0.3366998,1.734587,-0.04632285,-0.4719015,1.612129,0.05007908,-0.02666654,1.623,0.1133894,-0.1171532,1.740692,0.1026534,-0.4264037,1.7224,-0.05114383,0.06890053,1.728506,0.01952381,-0.4152411,1.694626,-0.1172471,-0.193674,1.748297,0.3208505,-0.1263177,1.585042,NA,NA,NotTracked,Closed,
0.9282227,-0.3569336,-0.06982422,-0.328125,0.5839844,0.4072266,0,-1,0,-1,-2,1,0,-1,-3,-2,4,-1,-13,-12,-13,14,8.9375,8.9375,8.9375,2.1875,2.1875,2.1875,2.266945,3.131948,3.100618,6.701825,5.976423,4.525949,-0.09113923,-0.4956212,1.631795,0.08087346,0.04077042,1.580299,0.1297393,0.3367395,1.735228,-0.04473642,-0.4737495,1.610924,0.06374968,-0.01045555,1.627605,0.1133819,-0.117131,1.740885,0.1027083,-0.4264708,1.722421,-0.04933722,0.06930925,1.725178,0.01950775,-0.4154416,1.694692,-0.1165978,-0.1934257,1.747691,0.3123412,-0.1211307,1.575876,NA,NA,NotTracked,Unknown,
0.9272461,-0.3491211,-0.06835938,-0.3925781,0.659668,0.4462891,-1,0,0,1,1,-3,-1,0,4,0,-3,1,15,26,11,0,9.9375,9.9375,9.9375,10.4375,10.4375,10.4375,2.273421,3.134999,3.099785,6.715982,5.971111,4.540718,-0.09087574,-0.4945588,1.630901,0.07915604,0.04344489,1.57581,0.1300258,0.3369355,1.735521,-0.0441822,-0.4740399,1.609676,0.06801211,-0.00622586,1.627723,0.1133889,-0.1171062,1.740906,0.10267,-0.4265313,1.722379,-0.04839227,0.06952576,1.723242,0.01936025,-0.4156021,1.694543,-0.1162634,-0.1932952,1.747584,0.3046626,-0.1164761,1.567522,NA,NA,NotTracked,Unknown,
0.9145508,-0.3544922,-0.06787109,-0.4194336,0.6757813,0.5180664,-1,-3,-2,-2,0,0,-2,-2,-8,-7,-2,1,-2,-17,7,-8,10.6875,10.6875,10.6875,6.75,6.75,6.75,2.285388,3.140535,3.104189,6.72699,5.95514,4.555436,-0.09063722,-0.4951182,1.631488,0.03652476,0.07314579,1.579151,0.1304135,0.336998,1.735994,-0.04399147,-0.4745508,1.610041,0.03298775,0.02422092,1.634586,0.1133224,-0.1171483,1.741009,0.1026113,-0.4266391,1.722403,-0.047983,0.06941798,1.721938,0.01922076,-0.4158126,1.694581,-0.1160608,-0.1932031,1.747573,0.3004507,-0.1134014,1.562646,NA,NA,NotTracked,Unknown,
0.9208984,-0.355957,-0.06884766,-0.4438477,0.7099609,0.5708008,0,-1,-2,0,-2,-1,0,2,0,-8,-19,-37,-53,7,-4,-7,6.3125,6.3125,6.3125,-12.5625,-12.5625,-12.5625,2.285506,3.13983,3.11319,6.73207,5.935802,4.600931,-0.09101573,-0.4951415,1.631215,0.03321483,0.07279924,1.57916,0.1304551,0.3370539,1.73617,-0.04362322,-0.4742717,1.608855,0.0304515,0.02353571,1.634291,0.1133269,-0.1171377,1.741016,0.1025591,-0.4266592,1.722344,-0.04790312,0.06930507,1.721296,0.01910114,-0.4159039,1.694465,-0.1159501,-0.1932004,1.747517,0.2980236,-0.1123179,1.560898,NA,NA,NotTracked,Unknown,
0.9301758,-0.3852539,-0.05761719,-0.4609375,0.7729492,0.6171875,-3,0,0,0,-1,-3,-1,0,-7,0,1,19,29,-27,4,8,-1.5,-1.5,-1.5,-19.4375,-19.4375,-19.4375,2.271025,3.131636,3.129558,6.742249,5.92596,4.684624,-0.09129523,-0.495316,1.632942,0.07720444,0.04057724,1.577378,0.1304445,0.3370394,1.736186,-0.04353563,-0.4750898,1.608634,0.1566042,0.04506739,1.623387,0.1133083,-0.1171469,1.741031,0.1024314,-0.4267842,1.722284,-0.04768448,0.06933333,1.720317,0.01889251,-0.4160801,1.694433,-0.1159785,-0.1929786,1.747576,0.2951226,-0.1111319,1.558414,NA,NA,NotTracked,Unknown,
0.9316406,-0.3867188,-0.05371094,-0.4804688,0.706543,0.4311523,-3,0,0,-1,0,-1,-1,1,5,6,-3,-7,1,-5,-2,1,-3,-3,-3,-14.875,-14.875,-14.875,2.263576,3.127749,3.136548,6.797023,5.926772,4.819118,-0.09237321,-0.4958796,1.637094,0.04690222,0.06365231,1.620375,0.1302627,0.3370048,1.736289,-0.04361461,-0.4784552,1.607846,0.1049714,0.1012654,1.654691,0.1132547,-0.1171008,1.741069,0.1022237,-0.4267479,1.722209,-0.04758188,0.06925038,1.719898,0.01870872,-0.4160769,1.694419,-0.1159519,-0.1929035,1.747848,0.2924074,-0.1103253,1.555888,NA,NA,NotTracked,NotTracked,
0.9082031,-0.4047852,-0.04248047,-0.9155273,1.182129,-0.4257813,-2,-1,-1,-1,-2,0,-3,-2,-33,-6,8,6,-1,9,-1,4,-3.1875,-3.1875,-3.1875,-58.6875,-58.6875,-58.6875,2.248242,3.119398,3.149334,6.834962,5.928281,4.954278,-0.09333456,-0.4968431,1.638286,0.04997824,0.06295487,1.630063,0.1300987,0.3369907,1.736354,-0.04426621,-0.4791546,1.607613,0.1037542,0.102857,1.655159,0.1131725,-0.1170551,1.741082,0.1019937,-0.4266746,1.722178,-0.0476344,0.06920972,1.71998,0.01853059,-0.416014,1.694444,-0.1159924,-0.1928475,1.747987,0.2916274,-0.1105265,1.554975,NA,NA,NotTracked,NotTracked,
0.8979492,-0.4121094,-0.04638672,-0.4951172,0.503418,0.0859375,0,-1,0,-2,-1,-1,0,-1,4,22,0,-3,0,-4,-4,-2,-3.4375,-3.4375,-3.4375,40.1875,40.1875,40.1875,2.239943,3.116424,3.15669,6.832079,5.943683,4.901342,-0.0946401,-0.4970595,1.639538,0.04698297,0.06344002,1.627956,0.129914,0.3369468,1.73636,-0.04471143,-0.4798406,1.608181,0.09623355,0.1071878,1.657116,0.1130334,-0.1169995,1.74107,0.1016514,-0.4266333,1.722053,-0.0476566,0.06917609,1.720049,0.01821099,-0.4159882,1.694313,-0.1160056,-0.192772,1.74822,0.2910252,-0.110766,1.554469,NA,NA,NotTracked,NotTracked,
0.9375,-0.3461914,-0.07080078,-0.4291992,0.9399414,0.5703125,-3,-2,1,-1,-1,-2,-1,-1,14,12,1,3,-2,8,-4,-9,5.3125,5.3125,5.3125,21.0625,21.0625,21.0625,2.222953,3.120162,3.176735,6.799402,5.924045,4.79806,-0.09615152,-0.4978616,1.639934,0.04439367,0.06345575,1.621872,0.1297534,0.3369588,1.736487,-0.04538784,-0.4774755,1.609022,0.1030191,0.1017075,1.655136,0.1129494,-0.1169307,1.741097,0.1014622,-0.4265733,1.722005,-0.0476781,0.06916495,1.720065,0.01805566,-0.4159527,1.69429,-0.1160464,-0.1926982,1.748562,0.2904053,-0.1107576,1.554291,NA,NA,NotTracked,NotTracked,
0.9580078,-0.4389648,-0.009277344,-0.4321289,0.6577148,0.5737305,-1,-1,-3,-1,-1,0,-2,0,2,7,0,-18,-4,-14,-2,-7,6,6,6,-38.1875,-38.1875,-38.1875,2.222016,3.129277,3.184531,6.733959,5.893254,4.757993,-0.09816438,-0.4973377,1.641185,-0.01420692,0.0715298,1.642416,0.1296802,0.3369712,1.736503,-0.04585607,-0.4776021,1.609623,0.03233163,0.1235148,1.674769,0.1129,-0.1169042,1.741123,0.1013897,-0.4265384,1.721993,-0.04764287,0.06913839,1.719955,0.01798998,-0.4159271,1.694291,-0.1163558,-0.1924615,1.749105,0.2901192,-0.1109068,1.55424,NA,NA,NotTracked,NotTracked,
0.9511719,-0.4501953,-0.02587891,-0.3125,0.7768555,0.8125,-1,-2,-1,-2,-2,0,1,-1,10,4,-7,-8,-6,-13,-5,-1,10.75,10.75,10.75,21.6875,21.6875,21.6875,2.231334,3.132952,3.181472,6.73382,5.872609,4.782617,-0.09817713,-0.4986177,1.640326,-0.00997666,0.06687337,1.637051,0.1293142,0.336843,1.736724,-0.04741917,-0.455501,1.614546,0.03347946,0.121324,1.675267,0.1128192,-0.1168595,1.741126,0.1011347,-0.4264339,1.721799,-0.04768844,0.06908879,1.719707,0.017747,-0.4158792,1.694105,-0.1174527,-0.1922735,1.749942,0.2888748,-0.1111196,1.553905,NA,NA,NotTracked,NotTracked,
0.8867188,-0.3300781,-0.04589844,-0.5854492,0.6425781,0.3579102,-1,-1,0,-1,-1,0,-1,-3,11,14,11,-1,-15,-9,3,0,-18,-18,-18,-36,-36,-36,2.230044,3.130994,3.175022,6.774238,5.85689,4.919716,-0.09873927,-0.4972511,1.639913,-0.01776292,0.07402737,1.672481,0.1291568,0.3368168,1.736763,-0.0485469,-0.4796475,1.610676,0.03063373,0.1280039,1.687125,0.1126828,-0.116848,1.741116,0.1009187,-0.4264309,1.721736,-0.04805796,0.06900798,1.720199,0.01758555,-0.4158835,1.694093,-0.1176207,-0.1922389,1.750103,0.2885945,-0.1113238,1.55354,NA,NA,NotTracked,NotTracked,
0.8876953,-0.4667969,-0.0078125,-0.8671875,0.8461914,-0.3520508,-2,0,-1,0,-1,0,0,-4,-9,2,0,-13,-14,0,1,1,-7.6875,-7.6875,-7.6875,15,15,15,2.228468,3.133678,3.163273,6.814783,5.881772,4.963043,-0.09990018,-0.4979838,1.638709,0.04070137,0.05748275,1.633408,0.1290433,0.3368275,1.736724,-0.04856098,-0.4766138,1.60987,0.08915136,0.1086619,1.659739,0.112602,-0.1168257,1.7411,0.1007211,-0.4264012,1.72165,-0.04837427,0.06888728,1.720534,0.01745639,-0.4158682,1.694084,-0.1179199,-0.1922803,1.750198,0.2881283,-0.111501,1.55308,NA,NA,NotTracked,NotTracked,
0.8955078,-0.4296875,-0.01367188,-0.390625,0.9150391,0.546875,0,-1,-3,0,0,-1,-3,0,1,-2,9,4,-18,0,3,2,-0.75,-0.75,-0.75,28.8125,28.8125,28.8125,2.231997,3.13623,3.160148,6.818265,5.882702,4.902658,-0.0994684,-0.4973297,1.638173,0.03969967,0.05794995,1.631091,0.1288983,0.3367622,1.736618,-0.04800516,-0.4731172,1.611291,0.08876622,0.1084727,1.659686,0.1125018,-0.1167901,1.741081,0.1004914,-0.4263159,1.721557,-0.04846374,0.06882124,1.720657,0.01727353,-0.415807,1.694042,-0.1182469,-0.1923934,1.750129,0.2879859,-0.1116488,1.552854,NA,NA,NotTracked,NotTracked,
0.9589844,-0.3867188,-0.02392578,-0.4628906,0.6855469,0.546875,0,-1,-1,-1,-1,-2,-1,1,-3,-18,-5,-2,2,-10,1,0,-2.8125,-2.8125,-2.8125,-16.875,-16.875,-16.875,2.233299,3.140868,3.163696,6.791274,5.868394,4.886767,-0.1001607,-0.4973105,1.637076,0.01515585,0.06516466,1.641687,0.1286711,0.3367371,1.736504,-0.04863053,-0.4749196,1.611279,0.06126048,0.1217148,1.67314,0.1124114,-0.1167792,1.741075,0.1003767,-0.4262838,1.721523,-0.0485017,0.0687875,1.720693,0.01718553,-0.4157899,1.694038,-0.1185706,-0.1922802,1.750065,0.2879743,-0.111679,1.552817,NA,NA,NotTracked,NotTracked,
0.9438477,-0.4375,-0.03662109,-0.6064453,0.7822266,0.3457031,-2,-2,-2,-1,-3,-1,-1,0,-9,-11,-2,5,2,-13,-9,-5,14.9375,14.9375,14.9375,-3.125,-3.125,-3.125,2.258018,3.148902,3.14939,6.784126,5.87288,4.888164,-0.09949858,-0.49659,1.635064,-0.02785889,0.0820252,1.686783,0.1283205,0.3367486,1.736517,-0.04809633,-0.4735585,1.611276,0.02291525,0.1377876,1.700913,0.1122454,-0.1167507,1.741111,0.1001693,-0.4262326,1.721479,-0.04873199,0.0686895,1.720952,0.01696919,-0.4157745,1.694052,-0.1190042,-0.1923999,1.750007,0.2878743,-0.1119764,1.552661,NA,NA,NotTracked,NotTracked,
0.9174805,-0.3408203,-0.07568359,-0.5615234,0.7832031,0.3325195,-1,-1,-1,-1,-1,-3,-1,-1,-13,8,-1,1,1,6,6,2,11.0625,11.0625,11.0625,0,0,0,2.270752,3.147993,3.141337,6.778669,5.878537,4.88,-0.09909932,-0.496389,1.634603,-0.02777368,0.08202761,1.686655,0.1280827,0.3366262,1.736403,-0.04779405,-0.473015,1.61138,0.02298538,0.1378846,1.701286,0.1121097,-0.1167872,1.741113,0.1000702,-0.4262607,1.72147,-0.04888001,0.06863982,1.721095,0.0168728,-0.4158066,1.694043,-0.1190842,-0.1923704,1.749853,0.2878713,-0.1120946,1.552598,NA,NA,NotTracked,NotTracked,
0.8969727,-0.4150391,-0.02978516,-0.5268555,0.8212891,0.3935547,-1,-2,-4,-2,-2,-1,0,-1,-1,1,7,1,-4,3,6,-8,-20.5625,-20.5625,-20.5625,-1,-1,-1,2.270762,3.147528,3.111733,6.773896,5.876591,4.867218,-0.09843748,-0.4954938,1.633378,-0.02812036,0.08142879,1.68625,0.1279202,0.3365974,1.736319,-0.04788953,-0.4730776,1.611228,0.02358807,0.1379713,1.700938,0.112052,-0.1167947,1.741105,0.1000054,-0.4262648,1.721443,-0.04891041,0.06860155,1.721134,0.01680937,-0.4158266,1.694052,-0.1192647,-0.1922719,1.749674,0.287798,-0.112298,1.552605,NA,NA,NotTracked,NotTracked,
0.9243164,-0.4145508,-0.02197266,-0.5102539,0.7490234,0.390625,0,-2,0,-2,-1,-1,0,-2,2,12,9,2,-1,3,4,8,8.4375,8.4375,8.4375,3.625,3.625,3.625,2.290655,3.153574,3.09317,6.763823,5.883871,4.843865,-0.09678853,-0.4945612,1.63254,-0.02850658,0.0808951,1.684538,0.1278315,0.3366154,1.736324,-0.04768531,-0.4723055,1.611426,0.02168886,0.1357234,1.699842,0.1120398,-0.116792,1.741102,0.09998106,-0.4262703,1.721426,-0.04897362,0.06855747,1.721178,0.01677942,-0.4158336,1.694032,-0.1192971,-0.1921511,1.749536,0.2878237,-0.1124331,1.552571,NA,NA,NotTracked,NotTracked,
0.9208984,-0.3540039,-0.04833984,-0.5341797,0.7641602,0.3857422,0,-1,-2,0,0,-1,-2,-1,-18,-2,-11,-5,-7,-3,1,5,-6.125,-6.125,-6.125,6.75,6.75,6.75,2.301045,3.148623,3.085453,6.757678,5.892466,4.820395,-0.09671529,-0.4950142,1.632387,-0.02855675,0.08140272,1.684498,0.1277739,0.3365828,1.736292,-0.04770019,-0.4728607,1.611436,0.02198593,0.1364735,1.69986,0.1120308,-0.1167782,1.741119,0.09997265,-0.4262727,1.721431,-0.04902248,0.06853235,1.721214,0.01677005,-0.4158345,1.694047,-0.1193393,-0.1922473,1.74948,0.2878677,-0.1126118,1.552591,NA,NA,NotTracked,NotTracked,
0.918457,-0.387207,-0.04296875,-0.5239258,0.7744141,0.3930664,0,-1,-1,0,0,-1,-1,0,17,8,-5,-1,-2,-1,0,2,-5.75,-5.75,-5.75,1.4375,1.4375,1.4375,2.302068,3.146898,3.075613,6.750197,5.896063,4.799783,-0.09554776,-0.4940441,1.631109,-0.02541869,0.08604825,1.679598,0.1275759,0.3365864,1.736061,-0.04747822,-0.472839,1.611236,0.02850182,0.1329533,1.692364,0.1120136,-0.1167197,1.741084,0.09996319,-0.4262579,1.721431,-0.04905619,0.0685131,1.721194,0.01675313,-0.4158265,1.694057,-0.1193274,-0.1920369,1.748919,0.2876253,-0.1131013,1.553126,NA,NA,NotTracked,NotTracked,
0.9213867,-0.3852539,-0.04296875,-0.53125,0.7519531,0.3852539,0,0,-1,-1,-2,-1,-1,-1,-5,-10,-6,-4,-2,-1,-1,-2,-2.375,-2.375,-2.375,0.8125,0.8125,0.8125,2.306699,3.145436,3.067636,6.740258,5.898879,4.780874,-0.09501977,-0.4947315,1.631814,0.04121508,0.05441052,1.621719,0.1274685,0.3364789,1.735934,-0.04739792,-0.4730415,1.611326,0.09264556,0.1008097,1.656074,0.1120128,-0.116698,1.741085,0.09995871,-0.4262393,1.721448,-0.04906448,0.06851413,1.721188,0.01675263,-0.4158227,1.69407,-0.1193162,-0.192092,1.748858,0.2878139,-0.1134282,1.553583,NA,NA,NotTracked,NotTracked,
0.9208984,-0.3852539,-0.04394531,-0.4960938,0.762207,0.3789063,-1,-2,-1,0,-1,1,-2,-1,-1,2,-10,-4,-1,0,-2,-3,-0.3125,-0.3125,-0.3125,4.25,4.25,4.25,2.309113,3.143627,3.063545,6.731525,5.900294,4.755092,-0.0948805,-0.4946403,1.631792,0.04079253,0.05485787,1.620633,0.1273688,0.3365457,1.735886,-0.04733609,-0.4737681,1.611115,0.09370318,0.1000128,1.65536,0.1119924,-0.1166975,1.74109,0.09993002,-0.4262491,1.721482,-0.04905145,0.06851202,1.721112,0.01671043,-0.4158286,1.694107,-0.1192542,-0.1919798,1.748779,0.2875492,-0.1138584,1.554088,NA,NA,NotTracked,NotTracked,
0.9228516,-0.3842773,-0.04443359,-0.4746094,0.7607422,0.3569336,-1,-1,-1,-1,-1,2,1,0,7,0,0,3,1,2,5,1,-0.1875,-0.1875,-0.1875,5.4375,5.4375,5.4375,2.309116,3.143271,3.062901,6.711486,5.898793,4.693511,-0.0940631,-0.4940597,1.630855,0.04029221,0.0553989,1.619142,0.1272875,0.336529,1.735849,-0.04652384,-0.4728885,1.610091,0.09278599,0.1006898,1.655822,0.111954,-0.1166867,1.741077,0.09992872,-0.4262402,1.721494,-0.04907768,0.06852455,1.721068,0.0167086,-0.4158252,1.694109,-0.1192148,-0.1919319,1.748551,0.2877654,-0.1144911,1.554991,NA,NA,NotTracked,NotTracked,
0.9277344,-0.3881836,-0.05126953,-0.46875,0.746582,0.3735352,1,-3,0,0,-1,-1,-2,-1,-1,-8,-2,-1,-1,-1,0,1,0.8125,0.8125,0.8125,10,10,10,2.309091,3.143134,3.063189,6.701612,5.895803,4.662579,-0.09375019,-0.4946695,1.631116,0.03702562,0.05781099,1.612389,0.1271627,0.3365316,1.73557,-0.04720574,-0.4729535,1.61117,0.08731074,0.1030346,1.656843,0.1119218,-0.1166819,1.741067,0.09993275,-0.4262408,1.721506,-0.04905433,0.06851491,1.720792,0.01670863,-0.4158424,1.694164,-0.1192983,-0.1918885,1.748152,0.2888051,-0.1168581,1.558811,NA,NA,NotTracked,NotTracked,
0.9204102,-0.3911133,-0.05322266,-0.4560547,0.6918945,0.3891602,-2,0,-2,-1,-3,-1,-2,-1,-1,10,6,1,0,-1,0,-2,3.9375,3.9375,3.9375,13.875,13.875,14.9375,2.310715,3.145502,3.065871,6.660836,5.867765,4.536551,-0.09356043,-0.4940504,1.630171,0.08675691,0.0243489,1.586641,0.1270272,0.3365845,1.735402,-0.04708204,-0.4729236,1.610649,0.05395033,-0.03087815,1.620101,0.1118893,-0.1166417,1.741044,0.0999193,-0.4262169,1.721485,-0.04909268,0.06851636,1.720736,0.01668932,-0.4158289,1.694193,-0.1193643,-0.1918676,1.747994,0.2906546,-0.1183558,1.561408,NA,NA,NotTracked,Unknown  ,
0.9150391,-0.3837891,-0.04443359,-0.331543,0.6645508,0.4067383,-2,-1,0,-3,-1,-1,0,-2,1,1,1,2,-1,1,-1,2,5.375,5.375,5.375,26,26,26,2.311438,3.147406,3.071289,6.630511,5.825164,4.426608,-0.09428618,-0.4942784,1.631714,0.08659408,0.02192399,1.582505,0.1268407,0.3365275,1.735235,-0.04698351,-0.472981,1.610746,0.05522307,-0.03007359,1.620665,0.1118775,-0.1166266,1.74103,0.09991926,-0.4262166,1.721485,-0.04927352,0.0685411,1.720764,0.01667451,-0.4158336,1.69427,-0.1194198,-0.1916711,1.747957,0.293619,-0.1207846,1.565738,NA,NA,NotTracked,Unknown,
0.9145508,-0.3833008,-0.04394531,-0.3432617,0.684082,0.4296875,0,0,-2,1,-1,-1,0,-2,2,7,5,1,1,-1,0,2,4.125,4.125,4.125,20.5625,20.5625,20.5625,2.309226,3.148842,3.079164,6.612854,5.797346,4.367632,-0.09441049,-0.4942353,1.63203,0.06160902,0.01824644,1.574602,0.1267975,0.3365614,1.735161,-0.04674985,-0.4726018,1.610808,0.08402692,0.07022905,1.62525,0.1118559,-0.1165993,1.741034,0.09987982,-0.4261988,1.721512,-0.04996647,0.06865667,1.721268,0.01659053,-0.4158206,1.694525,-0.1194283,-0.19177,1.747977,0.2972541,-0.1230989,1.570174,NA,NA,NotTracked,Closed,
0.9125977,-0.3842773,-0.04589844,-0.2880859,0.6572266,0.4707031,0,-1,-1,-2,-1,-3,-1,0,0,3,5,2,-2,0,1,0,5.5,5.5,5.5,14.25,14.25,14.25,2.307726,3.150001,3.086716,6.551131,5.673215,4.168549,-0.09451119,-0.4937784,1.631503,0.06369267,0.01372153,1.561097,0.1267224,0.3365974,1.735084,-0.04658435,-0.4736729,1.609821,0.09124883,0.05698477,1.621846,0.1117775,-0.1165339,1.74096,0.09981307,-0.4260197,1.721483,-0.05182537,0.06913118,1.723169,0.01655556,-0.4156979,1.694674,-0.119479,-0.1916797,1.747995,0.3012002,-0.1254884,1.5756,NA,NA,NotTracked,Closed,
0.9291992,-0.3920898,-0.03564453,-0.4145508,0.6767578,0.5253906,0,0,0,0,-1,0,-1,-1,-1,-4,-2,-1,-2,0,0,-2,4.75,4.75,4.75,11.6875,11.6875,11.6875,2.304202,3.150215,3.097797,6.506846,5.550233,4.022209,-0.09556247,-0.4945615,1.632513,0.06566116,-0.01343602,1.521503,0.1262268,0.3367047,1.734741,-0.04691659,-0.4730983,1.610291,0.06949998,-0.06707019,1.602896,0.1115674,-0.1162031,1.740787,0.09962528,-0.4255331,1.72143,-0.05436016,0.06976007,1.726324,0.01647771,-0.4152464,1.695469,-0.1194676,-0.1914936,1.74807,0.3516594,-0.1626675,1.612684,NA,NA,NotTracked,Unknown,
0.9106445,-0.371582,-0.0546875,-0.1508789,0.6611328,0.5415039,-2,-2,-1,-1,-2,-1,0,-2,-3,-1,1,1,-1,1,-1,-2,4.6875,4.6875,4.6875,9.25,9.25,9.25,2.300291,3.148205,3.108259,6.474675,5.39577,3.87419,-0.09682341,-0.4941389,1.633325,0.06823742,-0.03750135,1.50164,0.1258595,0.33668,1.734435,-0.04702719,-0.4735031,1.610187,0.06201725,-0.09996161,1.594053,0.111399,-0.1159293,1.740684,0.09940349,-0.4251695,1.721387,-0.05739243,0.06930824,1.734921,0.01638321,-0.4150001,1.6958,-0.1195499,-0.1914745,1.748083,0.3522538,-0.162413,1.612569,NA,NA,NotTracked,Unknown,
0.9135742,-0.3955078,-0.02783203,-0.2426758,0.6918945,0.6005859,-1,-1,-2,-1,-1,1,-2,-2,-3,0,6,-1,-1,-3,-1,0,-1.9375,-1.9375,-1.9375,12.625,12.625,12.625,2.290831,3.144345,3.118351,6.457362,5.219793,3.731461,-0.09717419,-0.4944681,1.634507,0.08046489,-0.06127693,1.477715,0.1253723,0.3366044,1.734299,-0.04715268,-0.4735085,1.610264,0.07615329,-0.1194742,1.583786,0.1108872,-0.1157533,1.740523,0.09916246,-0.4247444,1.721367,-0.05842221,0.06934454,1.737753,0.01629973,-0.414635,1.695853,-0.1197386,-0.1917997,1.74829,0.3579828,-0.1626367,1.618123,NA,NA,NotTracked,Unknown,
0.9135742,-0.3867188,-0.03710938,-0.07568359,0.7250977,0.5380859,-1,-1,-2,0,-1,-2,-1,0,2,-4,0,0,1,1,-2,-2,-0.6875,-0.6875,-0.6875,12.9375,12.9375,12.9375,2.283099,3.139562,3.127168,6.461656,5.016125,3.592438,-0.09740831,-0.4950323,1.635007,0.09754944,-0.09447671,1.462288,0.1248941,0.3365598,1.733889,-0.04709122,-0.4736317,1.61037,0.0904792,-0.1516297,1.56525,0.1106386,-0.1155621,1.740274,0.09888551,-0.4243605,1.721264,-0.058877,0.06930777,1.739334,0.01618615,-0.4143051,1.695746,-0.1199249,-0.1919628,1.748296,0.3724121,-0.1635674,1.633197,NA,NA,NotTracked,Unknown,
0.9111328,-0.3955078,-0.01806641,0.09765625,0.7578125,0.581543,-1,-1,-2,-2,-3,-1,-1,-2,4,-4,13,10,4,1,-1,0,-4.3125,-4.3125,-4.3125,7.5625,7.5625,7.5625,2.273201,3.134241,3.134469,6.477488,4.784054,3.468901,-0.09789227,-0.4952351,1.635626,0.1142761,-0.1300455,1.449054,0.1245059,0.3366015,1.733562,-0.04713854,-0.4738925,1.609346,0.08464212,-0.168495,1.460562,0.1104427,-0.1154107,1.740079,0.0987957,-0.4242373,1.721218,-0.0595025,0.06945641,1.740771,0.01612047,-0.4141294,1.695528,-0.1203385,-0.1920036,1.74849,0.3796363,-0.1644686,1.64067,NA,NA,NotTracked,Unknown,
0.9223633,-0.3935547,-0.02001953,0.2050781,0.746582,0.6152344,-1,-1,-2,-2,-2,-1,1,2,3,-7,-28,0,-1,3,3,3,-4.6875,-4.6875,-4.6875,9.875,9.875,9.875,2.266649,3.129218,3.136683,6.515299,4.540018,3.355269,-0.09974095,-0.4959442,1.637943,0.148646,-0.2059128,1.441851,0.1241186,0.3368504,1.732745,-0.04797823,-0.4749798,1.610457,0.1053426,-0.1835473,1.524824,0.1101676,-0.1153208,1.739722,0.09877152,-0.4243224,1.721171,-0.05989859,0.06940632,1.741525,0.01605948,-0.4143133,1.694958,-0.1206467,-0.1921054,1.748589,0.4017008,-0.1575413,1.659784,NA,NA,NotTracked,Closed,
0.925293,-0.3925781,-0.03662109,0.4350586,0.7548828,0.5507813,-3,0,-1,-2,-2,-1,0,-2,1,3,2,0,-1,0,-1,-1,-6.1875,-6.1875,-6.1875,18.4375,18.4375,18.4375,2.259085,3.12537,3.139246,6.567,4.308038,3.226865,-0.09998047,-0.4962285,1.637869,0.17213,-0.2481852,1.437345,0.1239025,0.3368769,1.73236,-0.0481099,-0.4744847,1.610394,0.135421,-0.2231631,1.488385,0.1100525,-0.1153409,1.739547,0.09871073,-0.4245817,1.721068,-0.0600509,0.06944137,1.741652,0.01600399,-0.4146144,1.694612,-0.1209534,-0.1930938,1.748417,0.4012763,-0.1528744,1.66938,NA,NA,NotTracked,Closed,
0.9238281,-0.3901367,-0.02783203,0.4990234,0.7836914,0.5761719,-2,0,0,1,-3,-1,-2,-3,-4,-1,-2,-1,0,1,1,-1,-7.1875,-7.1875,-7.1875,1.125,1.125,1.125,2.255953,3.122884,3.134945,6.627638,4.099473,3.100219,-0.1006835,-0.4946359,1.637987,0.1999693,-0.289829,1.441493,0.123787,0.3367068,1.731789,-0.04802217,-0.4733466,1.610571,0.1552566,-0.3074954,1.499316,0.1097124,-0.1156246,1.739075,0.09834898,-0.4250057,1.720778,-0.06020438,0.06952102,1.741706,0.01561866,-0.4150037,1.693845,-0.1212347,-0.1929019,1.748334,0.3995613,-0.1506318,1.672863,NA,NA,NotTracked,Closed,
0.9194336,-0.3847656,-0.02783203,0.6518555,0.7788086,0.4897461,-2,0,-1,-1,-1,0,-3,-2,-1,-4,-21,-8,-2,-2,-1,0,-8.9375,-8.9375,-8.9375,-6.5625,-6.5625,-6.5625,2.254734,3.121241,3.127287,6.695591,3.899723,2.969022,-0.1001971,-0.4961146,1.636484,0.2216599,-0.3281708,1.44537,0.1237986,0.336634,1.731439,-0.04837221,-0.4740917,1.6101,0.179525,-0.3690327,1.532429,0.1090431,-0.1159129,1.738476,0.09694219,-0.42579,1.720089,-0.06040936,0.06952525,1.741698,0.01393062,-0.415308,1.692575,-0.121641,-0.1931817,1.748024,0.346897,-0.1498683,1.691231,NA,NA,NotTracked,Unknown,
0.9155273,-0.3862305,-0.03564453,0.7456055,0.7099609,0.4580078,-2,-1,-1,-1,0,-2,-2,0,-1,2,-11,-1,0,1,-1,2,-8.125,-8.125,-8.125,-1.0625,-1.0625,-1.0625,2.250641,3.120409,3.122109,6.737711,3.802746,2.90349,-0.1002173,-0.4961649,1.63591,0.2445742,-0.3600308,1.456204,0.1237765,0.3365453,1.730773,-0.04856805,-0.4750175,1.60973,0.208075,-0.4130417,1.5425,0.1087647,-0.1160087,1.738102,0.09641051,-0.4260107,1.719731,-0.06048285,0.06955422,1.741593,0.01306033,-0.41529,1.69184,-0.1217282,-0.1930907,1.747936,0.3466913,-0.1502253,1.691743,NA,NA,NotTracked,Unknown,
0.9238281,-0.3789063,-0.03515625,0.9072266,0.6655273,0.3310547,-1,1,0,-2,-1,-2,0,-1,0,0,3,1,-2,1,1,-2,-6.625,-6.625,-6.625,-7.8125,-7.8125,-7.8125,2.249107,3.119706,3.116369,6.886137,3.558011,2.699515,-0.09978095,-0.4965187,1.634161,0.2828294,-0.4128543,1.483932,0.1239259,0.3366386,1.729903,-0.04816543,-0.4735995,1.610186,0.235569,-0.4445333,1.4895,0.1090386,-0.1164536,1.737304,0.09685025,-0.4265472,1.719208,-0.06047191,0.06958863,1.741344,0.01341977,-0.4157585,1.690631,-0.1219764,-0.1929904,1.747118,0.3469462,-0.1638477,1.692575,NA,NA,NotTracked,Closed,
0.9355469,-0.359375,-0.04931641,0.9780273,0.6240234,0.3305664,0,-1,-1,-1,-3,0,-1,-2,-2,6,21,5,-2,-2,-3,-3,-4.1875,-4.1875,-4.1875,-16.6875,-16.6875,-16.6875,2.245666,3.119094,3.114749,6.976734,3.421222,2.564572,-0.09983262,-0.4966485,1.632769,0.296801,-0.4358195,1.500078,0.124383,0.3366589,1.729157,-0.0481924,-0.4734581,1.610602,0.2644363,-0.4851615,1.515333,0.1092635,-0.1167202,1.737034,0.0979153,-0.4271876,1.71893,-0.06045708,0.06954219,1.740912,0.01456065,-0.4163939,1.689943,-0.122096,-0.19303,1.746679,0.3483863,-0.1693028,1.692418,NA,NA,NotTracked,Closed,
0.9291992,-0.3569336,-0.05859375,0.9746094,0.5610352,0.2412109,-2,0,-1,-3,-1,-2,0,-2,0,-5,-5,0,1,0,-1,-1,-2.125,-2.125,-2.125,-13.375,-13.375,-13.375,2.24363,3.119334,3.113888,7.058865,3.316918,2.447741,-0.09929365,-0.495465,1.632264,0.3076345,-0.4564018,1.516817,0.1248318,0.3366438,1.728559,-0.04812291,-0.4735903,1.610379,0.2785733,-0.5018783,1.529609,0.109751,-0.1169163,1.736686,0.09919195,-0.4276218,1.718682,-0.06036275,0.0695467,1.740548,0.01590719,-0.4168245,1.689171,-0.1222291,-0.1930308,1.745921,0.34991,-0.1760442,1.691933,NA,NA,NotTracked,Closed,
0.9301758,-0.347168,-0.04736328,0.9477539,0.4912109,0.2045898,-1,-1,-1,0,-2,-1,-2,1,-2,-8,-6,0,-1,-2,-2,-1,-1.8125,-1.8125,-1.8125,-18.0625,-18.0625,-18.0625,2.248425,3.119874,3.106899,7.12443,3.242751,2.347589,-0.0986452,-0.4956673,1.630655,0.3160501,-0.4727662,1.532535,0.1255108,0.3365717,1.727602,-0.04800286,-0.4726281,1.610081,0.3029987,-0.514504,1.5555,0.1102966,-0.11719,1.736219,0.1002798,-0.4279701,1.718328,-0.06027469,0.06952064,1.740076,0.0170656,-0.4171751,1.688295,-0.1222397,-0.1928288,1.744836,0.3512293,-0.1818863,1.692314,NA,NA,NotTracked,Closed,
0.9291992,-0.3491211,-0.05224609,0.9179688,0.4921875,0.1953125,0,0,-2,0,-2,0,0,-1,-2,-6,-2,-2,0,0,1,0,-3.6875,-3.6875,-3.6875,-10.5,-10.5,-10.5,2.247424,3.118607,3.103804,7.170469,3.184996,2.277931,-0.09712368,-0.494846,1.629669,0.3233816,-0.482748,1.546197,0.1261878,0.3363438,1.726512,-0.04752465,-0.470406,1.609594,0.3091128,-0.5263554,1.562,0.1105258,-0.1173749,1.736008,0.1013733,-0.4284098,1.718278,-0.06003542,0.06953648,1.739469,0.01818414,-0.4176059,1.687959,-0.122167,-0.1925314,1.743467,0.3523939,-0.1849989,1.693004,NA,NA,NotTracked,Closed,
0.9238281,-0.3422852,-0.05859375,0.9125977,0.4956055,0.1455078,-3,-1,-3,-2,-2,0,-1,-2,0,-1,-4,-4,-8,0,0,-1,-1.8125,-1.8125,-1.8125,-15.875,-15.875,-15.875,2.244828,3.11545,3.104381,7.207652,3.148144,2.219317,-0.09626357,-0.4949357,1.628967,0.331558,-0.4973988,1.567946,0.1271699,0.3361167,1.725355,-0.04752059,-0.4725654,1.610225,0.2834775,-0.5252817,1.5775,0.1121735,-0.1178191,1.734972,0.1036547,-0.428993,1.717801,-0.05949286,0.06952324,1.738221,0.02026938,-0.4181737,1.687055,-0.1214649,-0.1930306,1.741262,0.3537337,-0.189489,1.695272,NA,NA,NotTracked,Closed,
0.9306641,-0.3427734,-0.05957031,0.9072266,0.4584961,0.1113281,-1,-1,-1,-1,-1,0,1,-1,-5,-2,-3,-2,-4,-1,-3,-3,-4.875,-4.875,-4.875,-21.125,-21.125,-21.125,2.239298,3.110763,3.105388,7.219268,3.134335,2.193385,-0.0957189,-0.4956773,1.628046,0.3333691,-0.5005276,1.575961,0.1278061,0.3359682,1.724667,-0.04707849,-0.4701584,1.608794,0.2862124,-0.5265175,1.5878,0.112613,-0.1180614,1.734604,0.104996,-0.4294382,1.717464,-0.05919172,0.06927123,1.737332,0.02155445,-0.4186736,1.686522,-0.1210312,-0.1920512,1.740328,0.3545425,-0.1926977,1.697053,NA,NA,NotTracked,NotTracked,
0.9331055,-0.3569336,-0.05712891,0.9155273,0.4301758,0.1010742,-1,0,-3,-1,0,0,-2,1,-4,-2,1,-2,0,-1,-2,1,-5.0625,-5.0625,-5.0625,-5.25,-5.25,-5.25,2.2327,3.106708,3.106223,7.2419,3.106313,2.148018,-0.09477682,-0.4948426,1.627009,0.3348542,-0.5046263,1.580442,0.1284158,0.3357979,1.72383,-0.04698776,-0.4725842,1.608442,0.2849868,-0.5366285,1.588375,0.1132333,-0.1184291,1.73409,0.1064296,-0.4298499,1.717018,-0.05893103,0.06918812,1.736454,0.02292213,-0.4191409,1.685995,-0.1206758,-0.1920292,1.738482,0.3550961,-0.1944591,1.698249,NA,NA,NotTracked,NotTracked,
0.934082,-0.3574219,-0.05664063,0.9174805,0.4443359,0.1000977,-1,0,-1,0,-1,0,-1,-1,-2,-3,-2,0,-1,-2,-1,-2,-1.625,-1.625,-1.625,-7.0625,-7.0625,-7.0625,2.22991,3.103473,3.106955,7.242646,3.103,2.142686,-0.0934111,-0.4955349,1.627579,0.3347479,-0.506574,1.585712,0.1289089,0.3357376,1.72329,-0.04677464,-0.4722343,1.608492,0.2835694,-0.5083416,1.6068,0.1141052,-0.1186618,1.733533,0.1072374,-0.4300097,1.716747,-0.05861739,0.069226,1.735952,0.02370951,-0.4193502,1.685605,-0.1201084,-0.1923508,1.737843,0.3551751,-0.19647,1.699958,NA,NA,NotTracked,NotTracked,
0.9296875,-0.3500977,-0.05712891,0.9086914,0.4155273,0.08105469,-1,-1,0,-1,-1,-1,-4,1,-1,-1,-4,-1,0,-1,-4,-1,-0.1875,-0.1875,-0.1875,-12.9375,-12.9375,-12.9375,2.230017,3.100389,3.105739,7.230244,3.099217,2.141263,-0.09296267,-0.4959493,1.628294,0.3348679,-0.5076041,1.590188,0.1292932,0.3356211,1.722866,-0.04653274,-0.472603,1.60877,0.2829356,-0.4845873,1.614833,0.1146335,-0.1188093,1.733284,0.1081275,-0.4302139,1.716643,-0.0580889,0.06924202,1.735293,0.0245922,-0.4195609,1.685403,-0.1198682,-0.1926078,1.737411,0.3555759,-0.1977027,1.701503,NA,NA,NotTracked,NotTracked,
0.925293,-0.3603516,-0.04785156,0.8867188,0.4042969,0.09082031,-1,-1,-1,-1,-3,-1,-2,0,-2,0,-2,0,0,-3,-3,-4,-1.4375,-1.4375,-1.4375,-2.4375,-2.4375,-2.4375,2.230189,3.098729,3.104571,7.206038,3.100741,2.157842,-0.09235136,-0.4958166,1.627752,0.3319468,-0.5063337,1.593306,0.1306301,0.3352028,1.720868,-0.04524258,-0.4735993,1.606555,0.2815141,-0.4788744,1.614534,0.1162753,-0.1192516,1.732175,0.1096971,-0.4306796,1.716018,-0.05727147,0.06909713,1.734486,0.02611111,-0.4200619,1.684665,-0.1190307,-0.193277,1.736576,0.3559014,-0.2000133,1.704082,NA,NA,NotTracked,NotTracked,
0.9248047,-0.3671875,-0.05810547,0.8955078,0.4174805,0.08056641,-2,0,0,-1,-2,-3,-3,0,-2,-1,0,-2,0,1,1,1,0.3125,0.3125,0.3125,-4.25,-4.25,-4.25,2.230185,3.098517,3.104962,7.199234,3.103259,2.162699,-0.09158684,-0.4952104,1.627523,0.3306156,-0.5056745,1.594165,0.1312001,0.3352194,1.72022,-0.04452914,-0.4724392,1.605968,0.2811426,-0.477746,1.614825,0.1168493,-0.1195565,1.731753,0.1104846,-0.4309852,1.715603,-0.05655688,0.06894924,1.733663,0.02688989,-0.4203848,1.684167,-0.1186777,-0.1935472,1.736285,0.3561017,-0.2008987,1.704958,NA,NA,NotTracked,NotTracked,
0.9345703,-0.3588867,-0.05664063,0.8925781,0.3867188,0.06933594,0,-2,0,0,-1,-2,0,0,-1,3,-1,-2,-2,1,-1,-3,0.6875,0.6875,0.6875,-4.625,-4.625,-4.625,2.228739,3.097667,3.107941,7.186427,3.108129,2.170178,-0.09132957,-0.4952966,1.628153,0.3295034,-0.5053262,1.594491,0.1317433,0.3350692,1.719605,-0.04410792,-0.4727877,1.605337,0.2814501,-0.4788049,1.614714,0.1174423,-0.1197204,1.731358,0.1110502,-0.4311156,1.715228,-0.05588007,0.06897838,1.733016,0.02740165,-0.4205025,1.683745,-0.1182203,-0.1936241,1.736024,0.3562332,-0.201388,1.705534,NA,NA,NotTracked,NotTracked,
0.9291992,-0.3623047,-0.05322266,0.9003906,0.387207,0.06347656,-2,-1,-1,-1,2,1,0,-1,-1,-2,0,0,-3,-2,-2,-1,1.0625,1.0625,1.0625,1.5,1.5,1.5,2.22811,3.097828,3.109626,7.182797,3.112565,2.174491,-0.09057026,-0.4955735,1.628381,0.3290306,-0.5056739,1.594501,0.1324051,0.3350208,1.719139,-0.04319546,-0.4738463,1.604232,0.281225,-0.4796868,1.614555,0.1179191,-0.1198183,1.730987,0.1119172,-0.4311118,1.714844,-0.05548857,0.06901208,1.732571,0.02821091,-0.4205747,1.683315,-0.1177806,-0.1938352,1.735787,0.3565799,-0.2019507,1.706063,NA,NA,NotTracked,NotTracked,
0.9345703,-0.3632813,-0.05126953,0.9008789,0.3808594,0.06152344,-1,-2,-2,-1,-1,-1,-2,-1,0,1,-2,0,-1,1,0,1,1.1875,1.1875,1.1875,0.9375,0.9375,0.9375,2.227169,3.097478,3.112447,7.180583,3.117147,2.179227,-0.08981929,-0.4950049,1.627661,0.3289724,-0.5051646,1.593918,0.1330311,0.3349071,1.718426,-0.04323286,-0.4732586,1.605012,0.2813723,-0.4797622,1.614481,0.1183796,-0.119937,1.730713,0.1125171,-0.4312055,1.714535,-0.05528828,0.06899246,1.732455,0.02875357,-0.4206888,1.682839,-0.1174379,-0.1937551,1.735606,0.356705,-0.2020388,1.706239,NA,NA,NotTracked,NotTracked,
0.9311523,-0.3554688,-0.05517578,0.9038086,0.3769531,0.06103516,0,0,-2,-2,0,-2,-1,-1,5,2,-2,-1,2,0,-2,0,2.625,2.625,2.625,6.25,6.25,6.25,2.224704,3.098425,3.121073,7.185254,3.125154,2.185098,-0.08902052,-0.494835,1.627989,0.328838,-0.5051576,1.590989,0.1345559,0.334738,1.717551,-0.04251154,-0.4741841,1.60384,0.2819269,-0.4881983,1.615278,0.1199016,-0.1200731,1.729454,0.1141113,-0.4314005,1.713947,-0.05409963,0.06884041,1.731573,0.03030943,-0.4209124,1.682097,-0.1160452,-0.19449,1.735062,0.3572618,-0.2023824,1.706512,NA,NA,NotTracked,NotTracked,
