ALX,ALY,ALZ,ARX,ARY,ARZ,EMG0L,EMG1L,EMG2L,EMG3L,EMG4L,EMG5L,EMG6L,EMG7L,EMG0R,EMG1R,EMG2R,EMG3R,EMG4R,EMG5R,EMG6R,EMG7R,GLX,GLY,GLZ,GRX,GRY,GRZ,ORL,OPL,OYL,ORR,OPR,OYR,LHNX,LHNY,LHNZ,RHNX,RHNY,RHNZ,HX,HY,HZ,LTX,LTY,LTZ,RTX,RTY,RTZ,SpineMidX,SpineMidY,SpineMidZ,SpineBaseX,SpineBaseY,SpineBaseZ,ShoulderLeftX,ShoulderLeftY,ShoulderLeftZ,ShoulderRightX,ShoulderRightY,ShoulderRightZ,ElbowLeftX,ElbowLeftY,ElbowLeftZ,ElbowRightX,ElbowRightY,ElbowRightZ,Myo_Pose_left,Myo_Pose_Right,Kinect_pose_left,Kinect_pose_right
0.9277344,-0.3647461,0.03222656,0.9111328,0.3232422,0.09423828,-2,0,-1,0,-2,0,1,-2,-1,-1,-1,-1,-2,-1,0,1,-0.5,-0.5,-0.5,1.1875,1.1875,1.1875,2.61093,3.080317,6.427508,7.100241,3.072401,9.463735,-0.06666993,-0.5035436,1.622332,0.3207094,-0.5005562,1.604022,0.1450472,0.3390044,1.716933,-0.0175039,-0.5016654,1.59315,0.2702918,-0.4777035,1.584906,0.1321376,-0.1167548,1.723868,0.127413,-0.4300513,1.709115,-0.04250056,0.06880844,1.725479,0.04463052,-0.4203588,1.678149,-0.09707655,-0.1794704,1.729224,0.3577076,-0.1792064,1.707306,NA,NA,NotTracked,NotTracked,
0.9365234,-0.378418,0.02587891,0.9160156,0.3261719,0.09912109,-1,-3,-2,-1,1,0,0,-1,0,-2,-1,-2,-2,-1,-2,-3,-0.25,-0.25,-0.25,1.375,1.375,1.375,2.60889,3.077776,6.428889,7.105045,3.069695,9.460179,-0.066462,-0.5031245,1.621767,0.3206224,-0.5006787,1.603238,0.1451594,0.3390356,1.716622,-0.01808359,-0.4834505,1.593078,0.2696444,-0.4815753,1.583662,0.1321247,-0.1167264,1.723543,0.127279,-0.4300058,1.708862,-0.04239581,0.06880013,1.725147,0.04450747,-0.420273,1.677903,-0.09695742,-0.1794643,1.729097,0.3578029,-0.1791776,1.707081,NA,NA,NotTracked,NotTracked,
0.9350586,-0.3657227,0.01269531,0.9165039,0.3251953,0.09814453,-2,1,-2,1,-4,0,-1,-2,1,1,-1,-1,0,1,0,-1,0.625,0.625,0.625,0.625,0.625,0.625,2.609701,3.077082,6.428793,7.103411,3.06714,9.462303,-0.06680254,-0.5033936,1.621137,0.3208681,-0.5011865,1.602511,0.1453851,0.3389283,1.715983,-0.01951341,-0.479423,1.593526,0.2695377,-0.4836292,1.583566,0.1321981,-0.116763,1.723109,0.1272934,-0.430035,1.708682,-0.04239439,0.06885417,1.724876,0.04452867,-0.420287,1.677727,-0.09689209,-0.1794105,1.728993,0.3578961,-0.179218,1.706982,NA,NA,NotTracked,NotTracked,
0.9321289,-0.3666992,0.01855469,0.9208984,0.3193359,0.09179688,-1,1,-2,-1,-4,-3,0,0,-2,0,0,0,-1,-1,-2,-2,-0.875,-0.875,-0.875,1.0625,1.0625,1.0625,2.610096,3.077047,6.427725,7.096517,3.064529,9.46978,-0.06624079,-0.503298,1.620846,0.3209954,-0.5014935,1.602427,0.1456735,0.3388902,1.715022,-0.01707119,-0.5013384,1.591,0.2690918,-0.4911091,1.583087,0.1321632,-0.1168051,1.722826,0.1271715,-0.4300112,1.708367,-0.04240813,0.06886993,1.724646,0.04441532,-0.420229,1.677421,-0.09677236,-0.1794154,1.728871,0.3580158,-0.1792382,1.706693,NA,NA,NotTracked,NotTracked,
0.9160156,-0.3642578,0.02441406,0.9179688,0.3237305,0.09423828,-2,-1,-2,0,1,0,-1,-1,0,-2,-1,-1,-1,-3,-3,0,-5.75,-5.75,-5.75,1.1875,1.1875,1.1875,2.599952,3.074331,6.430533,7.088061,3.061951,9.480453,-0.06660112,-0.5027946,1.622285,0.3210076,-0.5011267,1.603887,0.1459266,0.3385895,1.714443,-0.01815309,-0.4984918,1.592504,0.2690582,-0.4854389,1.583455,0.1321099,-0.11689,1.72237,0.1270036,-0.4300317,1.708076,-0.04227764,0.06903452,1.723984,0.04428073,-0.4202036,1.677172,-0.09683265,-0.1791917,1.728434,0.3581797,-0.1793629,1.706396,NA,NA,NotTracked,NotTracked,
0.9086914,-0.3505859,0.03125,0.9355469,0.328125,0.09716797,-2,-2,-1,-1,-1,-1,-1,-2,-1,-2,0,-2,-1,-1,-1,-2,-3.3125,-3.3125,-3.3125,0.75,0.75,0.75,2.584317,3.069074,6.442409,7.076305,3.060129,9.493394,-0.06706589,-0.5032386,1.623092,0.3201216,-0.5014729,1.603271,0.1460841,0.3385829,1.714051,-0.01819567,-0.4906083,1.593136,0.2694563,-0.4809451,1.582805,0.1320803,-0.1169745,1.722142,0.1270113,-0.4300842,1.70791,-0.04222175,0.06904502,1.723586,0.04427974,-0.420267,1.677008,-0.0966797,-0.1792323,1.727736,0.3581925,-0.1794278,1.706287,NA,NA,NotTracked,NotTracked,
0.9023438,-0.3452148,0.04101563,0.9208984,0.3291016,0.07568359,-3,-2,-1,0,-2,-1,-2,-2,0,0,0,-1,-1,-2,-1,-1,-0.9375,-0.9375,-0.9375,-0.625,-0.625,-0.625,2.573128,3.063625,6.454017,7.070566,3.058668,9.499659,-0.06722719,-0.5044754,1.623541,0.3194814,-0.5008261,1.603028,0.1461913,0.3386306,1.713731,-0.0184803,-0.4879859,1.592721,0.2688317,-0.4980542,1.5814,0.1322229,-0.1168948,1.721827,0.1270071,-0.4300535,1.707716,-0.0421565,0.06916711,1.723065,0.04427426,-0.4202466,1.676818,-0.09679173,-0.1790663,1.727299,0.3582268,-0.1794207,1.706086,NA,NA,NotTracked,NotTracked,
0.9194336,-0.309082,-0.01416016,0.9155273,0.3261719,0.06689453,-2,-1,-2,-2,0,-1,1,-1,-3,-1,0,0,-1,2,-1,0,-7.75,-7.75,-7.75,-2.3125,-2.3125,-2.3125,2.489933,3.033855,6.535199,7.06697,3.058662,9.501737,-0.06815933,-0.5049838,1.626236,0.3190239,-0.5003638,1.603392,0.1462924,0.3385724,1.713304,-0.01771744,-0.5057625,1.592914,0.2681729,-0.504048,1.581214,0.1321947,-0.1168908,1.721681,0.1269834,-0.4300268,1.707598,-0.04191991,0.06927663,1.722421,0.04424994,-0.4202068,1.676652,-0.09661635,-0.1789654,1.726457,0.3582496,-0.17936,1.706035,NA,NA,NotTracked,NotTracked,
0.9511719,-0.300293,-0.03417969,0.9121094,0.3330078,0.06445313,1,0,-1,-2,-3,-4,-6,-5,-1,-1,-3,0,-1,-3,-1,0,-17.375,-17.375,-17.375,-4.375,-4.375,-4.375,2.40592,3.010469,6.605247,7.066361,3.059857,9.498543,-0.0699844,-0.5061247,1.629171,0.3189023,-0.5001324,1.603477,0.1463975,0.3385485,1.713024,-0.01823032,-0.4950365,1.59339,0.2679915,-0.503704,1.580143,0.1322709,-0.116864,1.721483,0.1269537,-0.4300253,1.707492,-0.04185114,0.06928924,1.721949,0.04422175,-0.4201868,1.676547,-0.09616709,-0.1791272,1.725009,0.3582794,-0.1794453,1.706017,NA,NA,NotTracked,NotTracked,
0.9511719,-0.300293,-0.03417969,0.9174805,0.3320313,0.06591797,-4,-4,-10,-44,-11,-1,-8,-12,-1,0,-1,-1,0,0,-1,-2,-17.375,-17.375,-17.375,-5.6875,-5.6875,-5.6875,2.40592,3.010469,6.605247,7.070749,3.060287,9.488449,-0.06972466,-0.5058618,1.63099,0.3186446,-0.4999483,1.603352,0.1465976,0.3384821,1.712747,-0.01746047,-0.5180619,1.594632,0.2678906,-0.5005928,1.58056,0.1323108,-0.1168959,1.721359,0.1270018,-0.4300147,1.70738,-0.04143312,0.06924099,1.721281,0.04426202,-0.4201819,1.676444,-0.0956641,-0.1792683,1.723516,0.3583449,-0.1794764,1.70601,NA,NA,NotTracked,NotTracked,
0.9511719,-0.300293,-0.03417969,0.9174805,0.3320313,0.06591797,-4,-4,-10,-44,-11,-1,-8,-12,-1,0,-1,-1,0,0,-1,-2,-17.375,-17.375,-17.375,-5.6875,-5.6875,-5.6875,2.40592,3.010469,6.605247,7.070749,3.060287,9.488449,-0.06964293,-0.5037044,1.632991,0.3188831,-0.4999203,1.603954,0.1466579,0.3384729,1.712705,-0.01788397,-0.5051514,1.594059,0.2682753,-0.50207,1.580782,0.1325614,-0.1169703,1.721129,0.1270326,-0.430035,1.707277,-0.04108719,0.06910288,1.720567,0.04428107,-0.4202078,1.676384,-0.09540773,-0.1794176,1.722454,0.3584194,-0.1795273,1.706023,NA,NA,NotTracked,NotTracked,
1.003418,-0.3564453,-0.07958984,0.9174805,0.3217773,0.0703125,0,-1,-2,1,0,-3,10,2,-2,-1,0,-1,0,0,0,-1,1.125,1.125,1.125,-3.25,-3.25,-3.25,2.318832,2.99099,6.67373,7.076463,3.059235,9.477366,-0.06843476,-0.5037028,1.631368,0.3198026,-0.5003953,1.603853,0.1468725,0.3383438,1.712326,-0.0179315,-0.5067951,1.594026,0.2688273,-0.5010788,1.580811,0.1326022,-0.1169752,1.720999,0.1270764,-0.4300103,1.707189,-0.04083269,0.06907049,1.71983,0.04432128,-0.4201873,1.676302,-0.09519172,-0.1794491,1.72166,0.3584832,-0.1793942,1.706023,NA,NA,NotTracked,NotTracked,
1.064941,-0.3979492,0.008300781,0.9101563,0.328125,0.08105469,-2,-1,1,13,1,-2,-5,-12,2,-2,-3,-2,-1,-1,-1,0,7.4375,7.4375,7.4375,0.5,0.5,0.5,2.406985,3.007202,6.585583,7.087547,3.057059,9.466209,-0.06576995,-0.5023657,1.6257,0.32059,-0.4992973,1.603894,0.1470374,0.3382613,1.711871,-0.0202605,-0.4826284,1.594236,0.2713126,-0.4751011,1.58154,0.1327508,-0.117103,1.720718,0.1272495,-0.4300476,1.706964,-0.04041225,0.06887099,1.718733,0.0444515,-0.4202259,1.676141,-0.09517242,-0.1795166,1.721103,0.358687,-0.1793569,1.706047,NA,NA,NotTracked,NotTracked,
1.071777,-0.3999023,0.02783203,0.9179688,0.3227539,0.08837891,-1,-2,-6,-6,-3,0,-3,1,1,-1,0,0,0,0,-1,-1,4.6875,4.6875,4.6875,2.1875,2.1875,2.1875,2.492754,3.027028,6.498353,7.100645,3.054654,9.453752,-0.06260748,-0.4907648,1.621384,0.3215968,-0.500457,1.606018,0.1472579,0.3382305,1.711611,-0.01816602,-0.4715372,1.59318,0.2695253,-0.4902626,1.581112,0.1330354,-0.1170808,1.720476,0.1274408,-0.4300406,1.706814,-0.04017399,0.06882032,1.718345,0.04462852,-0.4202296,1.676029,-0.09551504,-0.1794405,1.72069,0.3588015,-0.1793083,1.70615,NA,NA,NotTracked,NotTracked,
1.004883,-0.6313477,0.1479492,0.9165039,0.3310547,0.08984375,0,-2,1,-15,3,1,-1,1,-2,-3,-2,-1,-1,0,0,0,-4.0625,-4.0625,-4.0625,6.8125,6.8125,6.8125,2.781037,3.168336,6.185205,7.112192,3.052796,9.447917,-0.05413884,-0.4841138,1.608239,0.3228781,-0.50034,1.60715,0.1474419,0.3383023,1.711478,-0.01160076,-0.4553884,1.590184,0.2722912,-0.4791246,1.583851,0.1333616,-0.1169866,1.72036,0.1282998,-0.4299271,1.706607,-0.04003992,0.06886872,1.718161,0.045465,-0.4202157,1.675807,-0.09595245,-0.1792482,1.720693,0.3590942,-0.1792223,1.706389,NA,NA,NotTracked,NotTracked,
0.987793,-0.6386719,0.2416992,0.90625,0.3413086,0.1137695,-3,-3,-4,-5,-4,-1,-4,-5,-1,1,1,-1,0,1,4,0,5.875,5.875,5.875,9.5,9.5,9.5,2.958403,3.315262,5.994245,7.116412,3.053127,9.453872,-0.03595413,-0.4375269,1.58366,0.3262361,-0.4986686,1.609167,0.1477694,0.3383036,1.711278,0.002718243,-0.4077225,1.590483,0.2726134,-0.5002999,1.583857,0.1349965,-0.1170686,1.71997,0.1319925,-0.4300582,1.705878,-0.03984648,0.06900652,1.718201,0.0488735,-0.4211155,1.675177,-0.1017438,-0.1774675,1.722974,0.3600705,-0.1792554,1.706804,NA,NA,NotTracked,NotTracked,
0.9511719,-0.6137695,0.2495117,0.8964844,0.3452148,0.1210938,-2,-2,-2,-13,2,-4,2,-1,0,0,1,1,-1,-1,-2,-2,-0.125,-0.125,-0.125,10.375,10.375,10.375,3.029305,3.398892,5.911932,7.112655,3.055342,9.469121,-0.02200506,-0.4127749,1.565119,0.3270483,-0.4991779,1.609083,0.1479734,0.338301,1.711131,0.005278673,-0.4059323,1.518235,0.2753873,-0.4771248,1.586489,0.1359992,-0.1169492,1.719949,0.1339284,-0.4300587,1.706036,-0.03979543,0.06912123,1.718272,0.0508915,-0.4216319,1.675511,-0.1048091,-0.176467,1.723812,0.3607027,-0.1790649,1.707044,NA,NA,Unknown,NotTracked,
0.8427734,-0.7919922,0.3896484,0.909668,0.3417969,0.1176758,1,0,0,-3,-7,-3,2,4,-2,-1,-1,-1,-3,-2,1,1,-27.6875,-27.6875,-27.6875,8.875,8.875,8.875,3.147386,3.688362,5.714701,7.108174,3.059391,9.484485,0.009223976,-0.3873926,1.561498,0.3279178,-0.4989992,1.61022,0.1481161,0.3383467,1.711104,0.009022031,-0.3753608,1.494594,0.2743542,-0.5016322,1.586134,0.1363344,-0.1169395,1.720038,0.1349467,-0.4299993,1.706199,-0.03966302,0.06935565,1.718555,0.051852,-0.4217983,1.675633,-0.1094752,-0.1679375,1.724242,0.3612412,-0.1789728,1.70714,NA,NA,Unknown,NotTracked,
0.7265625,-0.7797852,0.4326172,0.9204102,0.3408203,0.1171875,0,-3,-5,-18,19,13,-1,-4,-3,-2,-3,-1,-1,0,2,-1,-17.5625,-17.5625,-17.5625,5.875,5.875,5.875,3.198885,3.906913,5.611886,7.095854,3.066029,9.503877,0.03949001,-0.3662738,1.541812,0.3284745,-0.4993442,1.609771,0.1482831,0.3382915,1.710979,0.02797862,-0.3391774,1.477786,0.2752716,-0.4993195,1.586859,0.1370003,-0.1170858,1.720208,0.1362284,-0.4301939,1.706668,-0.03938399,0.06974696,1.718866,0.05340302,-0.4223993,1.676113,-0.1124583,-0.160076,1.724009,0.3618328,-0.17891,1.707236,NA,NA,Unknown,NotTracked,
0.5454102,-0.7832031,0.4311523,0.9257813,0.3388672,0.1118164,0,-2,-2,4,-14,-2,-2,1,-1,-1,-5,-3,-2,-2,-1,-3,-25.375,-25.375,-25.375,0.4375,0.4375,0.4375,3.233963,4.24465,5.487787,7.060345,3.082937,9.545242,0.07191116,-0.2990962,1.489065,0.327221,-0.497795,1.606777,0.1485845,0.3383593,1.710888,0.05761874,-0.2634846,1.441494,0.2743846,-0.4910772,1.586117,0.1374206,-0.1170882,1.72081,0.1357748,-0.4305,1.708522,-0.03872225,0.07041106,1.719257,0.05365022,-0.4225871,1.677616,-0.1164235,-0.1513257,1.718588,0.3625555,-0.1787688,1.707253,NA,NA,Unknown,NotTracked,
0.4814453,-0.8500977,0.449707,0.9404297,0.3334961,0.1157227,-2,-1,-3,-6,29,6,-9,-4,0,1,0,-1,-1,-1,-1,1,-27.1875,-27.1875,-27.1875,-1.75,-1.75,-1.75,3.234428,4.359331,5.451638,7.022005,3.099377,9.58505,0.08538761,-0.2573397,1.471192,0.3266605,-0.4975464,1.605526,0.1489441,0.3383811,1.711132,0.06871386,-0.2224151,1.431582,0.2775563,-0.4771735,1.591116,0.1376602,-0.1170404,1.721107,0.1356762,-0.4304763,1.709044,-0.03817597,0.07072838,1.719398,0.05366817,-0.422417,1.678209,-0.1165069,-0.1464154,1.714494,0.3628996,-0.1787411,1.70723,NA,NA,Unknown,NotTracked,
0.3198242,-0.8862305,0.4248047,0.9516602,0.3457031,0.1176758,-1,-1,-3,-2,-8,-2,4,-2,-1,-1,4,1,1,-1,-5,-1,-11.125,-11.125,-11.125,-2.5625,-2.5625,-2.5625,3.232777,4.700487,5.347807,6.973127,3.121899,9.634453,0.09947798,-0.2116973,1.463363,0.3252334,-0.4951667,1.602629,0.1492684,0.338453,1.711249,0.08553036,-0.1823451,1.422369,0.2783,-0.4669725,1.59131,0.1380673,-0.116895,1.721359,0.1358941,-0.4302349,1.709372,-0.0374261,0.07118828,1.719417,0.05396181,-0.4219851,1.678503,-0.118229,-0.1608502,1.634094,0.3632899,-0.1787349,1.707326,NA,NA,Closed,NotTracked,
0.222168,-0.8901367,0.4697266,0.9575195,0.3549805,0.137207,-2,-1,0,-13,-5,-3,-31,-8,0,-1,3,0,-2,-1,0,0,-14.6875,-14.6875,-14.6875,-2.8125,-2.8125,-2.8125,3.229408,4.923306,5.272338,6.913335,3.151868,9.695485,0.1156375,-0.1641383,1.458344,0.3223608,-0.4937075,1.59895,0.1494875,0.3383213,1.711241,0.09354204,-0.1410853,1.422734,0.2777864,-0.4655922,1.590341,0.1383413,-0.1167474,1.72164,0.1362657,-0.4296928,1.709704,-0.03679503,0.07139862,1.719204,0.05445312,-0.4212391,1.678858,-0.1176263,-0.1598295,1.631285,0.3638889,-0.1786064,1.707452,NA,NA,Closed,NotTracked,
0.1962891,-0.8535156,0.4882813,0.9599609,0.3828125,0.1401367,-3,-1,-2,-1,4,-2,-12,2,-1,0,-1,2,0,2,1,0,-18.1875,-18.1875,-18.1875,0.4375,0.4375,0.4375,3.220437,5.033993,5.233166,6.849118,3.191326,9.765476,0.1326839,-0.07377103,1.465523,0.3190361,-0.4788358,1.594751,0.1501262,0.3382585,1.711931,0.1405369,-0.05158878,1.525929,0.273789,-0.4604043,1.586956,0.1390648,-0.1157089,1.722438,0.1366499,-0.42676,1.710903,-0.03422663,0.07173625,1.717865,0.05534345,-0.4177929,1.679301,-0.1140395,-0.1494091,1.618791,0.3655161,-0.1780565,1.708891,NA,NA,Closed,NotTracked,
-0.0625,-0.8061523,0.3759766,0.9677734,0.3974609,0.1328125,0,-2,0,-4,-5,-9,-5,0,0,2,19,7,-1,-3,2,-3,-11.25,-11.25,-11.25,5,5,5,3.198437,5.248559,5.149999,6.820222,3.216564,9.801188,0.138201,-0.03718258,1.471194,0.315491,-0.4706856,1.591246,0.1503499,0.3382052,1.711941,0.1637626,-0.08588035,1.551769,0.2717213,-0.453864,1.584644,0.1391639,-0.1154756,1.722651,0.1366978,-0.426034,1.711096,-0.03345047,0.07204808,1.716887,0.05545396,-0.4168387,1.679144,-0.1075677,-0.1407482,1.608121,0.366135,-0.1778808,1.709415,NA,NA,Unknown,NotTracked,
-0.159668,-0.706543,0.2988281,1.015625,0.5205078,0.1870117,0,-1,-1,0,2,-6,24,2,1,3,4,2,0,4,15,2,-10.75,-10.75,-10.75,24.8125,24.8125,24.8125,3.185008,5.342962,5.110886,6.753996,3.327978,9.911997,0.1396601,-0.01075565,1.477197,0.3117862,-0.4637372,1.586977,0.15081,0.3380347,1.712154,0.1616355,-0.05824441,1.560833,0.2679646,-0.4637889,1.579649,0.1393913,-0.1152483,1.72293,0.1367766,-0.4255053,1.711272,-0.03323424,0.07226676,1.716292,0.05553005,-0.4163481,1.679038,-0.1048073,-0.1350267,1.60124,0.3664186,-0.1736869,1.710259,NA,NA,Unknown,NotTracked,
-0.159668,-0.706543,0.2988281,1.034668,0.6416016,0.2709961,4,1,1,-9,0,2,6,8,-2,-6,36,3,-7,1,9,0,-10.75,-10.75,-10.75,26.8125,26.8125,26.8125,3.185008,5.342962,5.110886,6.726249,3.442254,9.983056,0.1432632,0.007831383,1.478068,0.307312,-0.4527612,1.581598,0.1511844,0.338073,1.71237,0.1538215,-0.04884297,1.572546,0.2653529,-0.4400263,1.579148,0.1394023,-0.1151979,1.723013,0.1366954,-0.4253922,1.711257,-0.03316696,0.07228553,1.715675,0.05531316,-0.4161019,1.678792,-0.09512732,-0.1285067,1.591655,0.3673985,-0.1714081,1.711932,NA,NA,Unknown,NotTracked,
-0.159668,-0.706543,0.2988281,1.034668,0.6416016,0.2709961,4,1,1,-9,0,2,6,8,-2,-6,36,3,-7,1,9,0,-10.75,-10.75,-10.75,26.8125,26.8125,26.8125,3.185008,5.342962,5.110886,6.726249,3.442254,9.983056,0.1455323,0.01814534,1.47678,0.3005437,-0.4392952,1.576187,0.1518006,0.3381687,1.712965,0.1770793,-0.01979802,1.558429,0.2627144,-0.4174458,1.580446,0.1394224,-0.115136,1.723126,0.1364073,-0.4251904,1.711304,-0.03321819,0.07255397,1.715295,0.05481393,-0.4158035,1.678619,-0.09092688,-0.1236895,1.584411,0.3687868,-0.1696329,1.714071,NA,NA,Unknown,NotTracked,
-0.2006836,-0.7226563,0.2661133,1.010254,0.7817383,0.4082031,-6,-5,0,-3,2,-4,-8,-5,1,2,1,-38,-6,-10,-19,-5,-19.3125,-19.3125,-19.3125,12.375,12.375,12.375,3.078604,5.614311,4.971733,6.68063,3.599966,0.06130321,0.145602,0.0221328,1.471858,0.291896,-0.4177784,1.568281,0.1524169,0.3381416,1.713192,0.150186,-0.03536893,1.565,0.2543631,-0.3974859,1.578097,0.1394117,-0.1151158,1.723168,0.1358331,-0.4250296,1.711198,-0.03331926,0.07288566,1.714797,0.05383266,-0.4153587,1.678086,-0.08895662,-0.1214084,1.579773,0.3709886,-0.1726614,1.716429,NA,NA,Unknown,NotTracked,
-0.2773438,-0.793457,0.2983398,0.7568359,0.9194336,0.5507813,-2,-2,-3,0,2,-3,5,1,-1,1,0,-25,-20,-11,-34,-5,-10.6875,-10.6875,-10.6875,-13,-13,-13,3.062556,5.611622,4.965295,6.601322,3.916953,0.1649246,0.1470612,0.02174987,1.467803,0.2829973,-0.3933426,1.559166,0.1530354,0.3382187,1.713393,0.1889182,-0.0009730806,1.499267,0.2488506,-0.3713107,1.578352,0.1393399,-0.1150131,1.723219,0.1347561,-0.4248279,1.711123,-0.03395743,0.07306238,1.716408,0.05267803,-0.4148566,1.677832,-0.08749751,-0.119188,1.574654,0.3762902,-0.1713553,1.722716,NA,NA,Unknown,NotTracked,
-0.2739258,-0.7998047,0.3334961,0.6362305,0.9663086,0.5830078,-2,-2,0,-1,-1,0,-6,0,5,12,36,5,4,6,-2,12,-9.375,-9.375,-9.375,-11.375,-11.375,-11.375,3.059694,5.601406,4.967796,6.580534,4.042582,0.1893266,0.1466233,0.01813848,1.463338,0.2591599,-0.3635339,1.565451,0.1536281,0.3381978,1.713747,0.1736672,-0.0198267,1.53,0.2819858,-0.4579348,1.589667,0.1392433,-0.1149706,1.723345,0.1337337,-0.4246595,1.711278,-0.03360797,0.07360619,1.71512,0.05168521,-0.414371,1.677709,-0.09001588,-0.1192164,1.574405,0.3871125,-0.163415,1.730177,NA,NA,Closed,NotTracked,
-0.2929688,-0.8574219,0.3330078,0.449707,0.9091797,0.6928711,-5,-2,-2,-4,-2,-4,-5,-3,2,3,-4,-1,-3,-8,-6,-6,-9,-9,-9,-3.9375,-3.9375,-3.9375,3.052365,5.555889,4.986697,6.522758,4.497783,0.2691551,0.1478755,0.01404653,1.457142,0.2517036,-0.3262348,1.561516,0.154149,0.3382362,1.713772,0.1535665,-0.01870957,1.433773,0.2782962,-0.4062367,1.592234,0.1391608,-0.1148974,1.723419,0.1332336,-0.4244564,1.711147,-0.03329772,0.07375035,1.713713,0.05120849,-0.4140006,1.677374,-0.08916134,-0.1185855,1.571874,0.3948514,-0.1534256,1.732394,NA,NA,Closed,Unknown,
-0.2929688,-0.8574219,0.3330078,0.449707,0.9091797,0.6928711,0,0,-1,-6,-2,-5,-3,-3,2,3,-4,-1,-3,-8,-6,-6,-9,-9,-9,-3.9375,-3.9375,-3.9375,3.052365,5.555889,4.986697,6.522758,4.497783,0.2691551,0.1490735,0.009294122,1.450657,0.2294612,-0.2796472,1.555043,0.1546526,0.3382696,1.713892,0.1472261,-0.02606822,1.429361,0.2580881,-0.3474774,1.590656,0.1392222,-0.1147601,1.723473,0.1331794,-0.4242404,1.711082,-0.03286693,0.07401974,1.71267,0.05123914,-0.4137688,1.677192,-0.08857641,-0.1180157,1.569841,0.4001392,-0.1482496,1.730591,NA,NA,Unknown,Unknown,
-0.2998047,-0.8823242,0.3662109,-0.006347656,0.8745117,0.496582,0,0,-2,1,-3,1,20,1,-16,-10,-8,-9,-6,-6,8,1,3.75,3.75,3.75,10.625,10.625,10.625,3.060233,5.516868,5.002389,6.524388,4.880751,0.3202823,0.1497865,0.00325314,1.445629,0.2146412,-0.2299424,1.549594,0.1552778,0.3384991,1.71413,0.2083094,-0.007148432,1.462429,0.2020558,-0.2916976,1.581734,0.1394518,-0.1145399,1.723581,0.1333392,-0.4238909,1.711078,-0.03166166,0.07428941,1.711399,0.05146351,-0.4134679,1.677033,-0.08831529,-0.1178879,1.568277,0.40822,-0.1365328,1.725849,NA,NA,Unknown,Unknown,
-0.328125,-0.8706055,0.3417969,-0.2988281,0.4951172,0.3276367,3,0,1,0,-2,0,10,3,6,4,1,-3,-2,-3,12,2,3.9375,3.9375,3.9375,-8.6875,-8.6875,-8.6875,3.06584,5.49808,5.011096,6.524917,5.268571,0.3961576,0.1509394,-0.003837051,1.440278,0.2088624,-0.1619989,1.550623,0.1561593,0.3385082,1.714239,0.1523365,-0.03769992,1.419359,0.182218,-0.2163365,1.576319,0.1398448,-0.1140603,1.723765,0.1335485,-0.4234158,1.711156,-0.03056561,0.07444213,1.710244,0.05174196,-0.4131536,1.677176,-0.08784264,-0.1179916,1.56706,0.4154579,-0.1324147,1.716568,NA,NA,NotTracked,Unknown,
-0.2729492,-0.9057617,0.3500977,-0.6210938,0.3134766,0.2661133,2,2,-2,-11,2,6,6,2,5,-1,6,3,-2,-3,0,3,-6.875,-6.875,-6.875,34.25,34.25,34.25,3.066933,5.434639,5.042372,6.573912,5.622488,0.5004649,0.1518281,-0.01212327,1.434888,0.1707977,-0.04920945,1.468176,0.1572097,0.3385127,1.714709,0.1527096,-0.04704708,1.41592,0.1078384,-0.04062895,1.422789,0.1401183,-0.1136394,1.723946,0.1337994,-0.4220401,1.711229,-0.02965069,0.0742161,1.7094,0.05227018,-0.4121099,1.677073,-0.08659693,-0.1178197,1.565453,0.4223727,-0.1348773,1.699581,NA,NA,NotTracked,NotTracked,
-0.2290039,-0.9472656,0.3964844,-0.6342773,0.5073242,0.4272461,1,2,-1,-2,-3,-1,1,1,5,16,5,-5,-4,0,4,-5,-5.8125,-5.8125,-5.8125,64.3125,64.3125,64.3125,3.067052,5.370486,5.058702,6.692523,5.90955,0.612819,0.155462,-0.02005052,1.430424,0.1758753,-0.0166426,1.428176,0.1577321,0.3385297,1.71494,0.1547796,-0.05231126,1.408037,0.1470052,-0.0581654,1.434263,0.140495,-0.11327,1.724135,0.1340587,-0.421329,1.711206,-0.02838322,0.07399028,1.708424,0.05267023,-0.4114476,1.677057,-0.08541368,-0.1173257,1.564086,0.4207224,-0.1387201,1.675486,NA,NA,NotTracked,NotTracked,
-0.2324219,-1.004883,0.4228516,-0.5219727,0.6049805,0.4311523,0,1,-3,2,-1,-1,3,3,6,1,-3,-6,-4,-16,-13,8,3.8125,3.8125,3.8125,44.9375,44.9375,44.9375,3.070067,5.33869,5.058167,6.751761,6.030702,0.6743428,0.1536399,-0.03233936,1.4304,0.1561451,-0.03488805,1.429477,0.1590472,0.3386103,1.715777,0.147992,-0.06579661,1.40887,0.1003069,-0.06734048,1.433824,0.1410489,-0.1127054,1.724824,0.1341855,-0.4207374,1.711325,-0.02908012,0.07378894,1.712786,0.05291499,-0.4108883,1.677274,-0.08365702,-0.1182471,1.563116,0.4023803,-0.1092328,1.611282,NA,NA,NotTracked,NotTracked,
-0.2192383,-0.9897461,0.4399414,-0.4296875,0.3955078,0.3632813,-4,-1,-1,10,4,6,25,8,8,8,-1,-3,-4,-9,-41,0,9.25,9.25,9.25,45.25,45.25,45.25,3.07683,5.326255,5.054797,6.894666,6.316361,0.806812,0.1564124,-0.03584829,1.429969,0.1517231,-0.03817099,1.431327,0.1592994,0.3387335,1.716109,0.1503563,-0.07033288,1.410741,0.1004507,-0.08243026,1.431778,0.1410503,-0.1126924,1.724839,0.1341335,-0.4208097,1.711438,-0.02821405,0.07401355,1.712034,0.05279358,-0.4112062,1.678527,-0.1096749,-0.1209604,1.623114,0.404058,-0.1099962,1.613081,NA,NA,NotTracked,NotTracked,
-0.1816406,-1.009766,0.3740234,-0.4223633,0.5019531,0.3710938,-5,-2,-3,6,-1,-4,1,1,-6,-18,-6,2,6,17,18,-13,1.4375,1.4375,1.4375,38.9375,38.9375,38.9375,3.079315,5.310257,5.040854,6.926218,6.372902,0.8259255,0.1570628,-0.03724986,1.432028,0.1550535,-0.03823506,1.433205,0.1594185,0.3389682,1.716528,0.1545375,-0.07083722,1.411535,0.1037422,-0.066208,1.444727,0.1409838,-0.112663,1.724634,0.1340335,-0.4210261,1.711519,-0.02748924,0.07404058,1.711293,0.05250805,-0.4116779,1.679663,-0.109865,-0.1208056,1.623356,0.4020797,-0.1033573,1.608467,NA,NA,NotTracked,NotTracked,
-0.2177734,-0.9741211,0.3408203,-0.3588867,0.4428711,0.2949219,-4,-1,0,1,1,3,7,-1,-5,28,8,5,-17,1,18,2,9.75,9.75,9.75,-33.875,-33.875,-33.875,3.086668,5.315976,5.031432,6.892522,6.417733,0.8419216,0.156625,-0.03709836,1.433884,0.1555201,-0.03772809,1.434672,0.1595558,0.339256,1.716635,0.153969,-0.07150784,1.414723,0.0987078,-0.0790689,1.427588,0.1409625,-0.1125698,1.72402,0.1340006,-0.4214426,1.711584,-0.02814485,0.07360241,1.713497,0.05248506,-0.4122912,1.680295,-0.1098081,-0.1204688,1.623417,0.4004854,-0.1012196,1.603076,NA,NA,NotTracked,NotTracked,
-0.2133789,-0.9624023,0.3212891,-0.2436523,0.4711914,0.2841797,-1,-1,0,0,1,-1,0,-1,-16,-30,-13,-5,-7,-4,-4,-5,4.0625,4.0625,4.0625,-36.9375,-36.9375,-36.9375,3.086766,5.321571,5.028562,6.831837,6.357955,0.8165135,0.1556974,-0.03658571,1.436437,0.1639661,-0.03574535,1.435432,0.1595822,0.339734,1.716705,0.1562954,-0.06808501,1.415131,0.1127708,-0.08199701,1.432333,0.1391288,-0.1128944,1.722932,0.1340963,-0.4221893,1.711722,-0.02872087,0.07328559,1.715216,0.05261704,-0.4132575,1.681199,-0.1097388,-0.1203232,1.623518,0.4181541,-0.09099448,1.58555,NA,NA,NotTracked,NotTracked,
-0.2172852,-0.984375,0.3232422,-0.3989258,0.5727539,0.1054688,0,-3,-2,-5,-3,-1,2,4,27,23,-4,-8,-1,3,13,18,1.125,1.125,1.125,-40.125,-40.125,-40.125,3.083409,5.343226,5.025222,6.765609,6.238591,0.78457,0.1545951,-0.03251981,1.438566,0.1143368,-0.04804693,1.448628,0.1598726,0.3402355,1.717237,0.1575817,-0.06446115,1.41786,0.05593043,-0.09608504,1.466455,0.1371991,-0.1130366,1.72201,0.1340797,-0.4229603,1.711958,-0.02956846,0.07321349,1.717398,0.05261616,-0.4141967,1.682119,-0.1091849,-0.12064,1.623609,0.3992587,-0.09022976,1.583791,NA,NA,NotTracked,NotTracked,
-0.2275391,-0.9931641,0.3427734,0.008789063,0.5551758,0.8041992,0,2,-2,-1,-1,-1,-5,-3,-4,0,0,3,-26,22,6,0,-2.9375,-2.9375,-2.9375,-44.5,-44.5,-44.5,3.078234,5.364735,5.024129,6.681925,6.071609,0.7392767,0.1528212,-0.02894346,1.439405,0.1479353,-0.03177761,1.440912,0.1600519,0.3401881,1.717537,0.1526708,-0.06198952,1.420089,0.09147537,-0.07639903,1.4405,0.1377099,-0.1128559,1.722474,0.1340728,-0.4228649,1.71202,-0.03001556,0.07335109,1.718232,0.05265329,-0.4140816,1.682185,-0.1090321,-0.1206696,1.623877,0.3900451,-0.1054832,1.59774,NA,NA,NotTracked,NotTracked,
-0.2290039,-0.9804688,0.3442383,-0.609375,0.7211914,0.1884766,-4,-4,-2,-3,-4,0,24,4,-2,-4,-2,0,10,-6,-2,13,-7.875,-7.875,-7.875,-58,-58,-58,3.069409,5.390345,5.028032,6.618793,5.837588,0.7328619,0.1490512,-0.02450987,1.440619,0.1433749,-0.0277568,1.442377,0.1603499,0.3400991,1.717903,0.1521356,-0.05675515,1.421077,0.08597346,-0.0706932,1.439676,0.1384775,-0.1125281,1.723274,0.1341815,-0.4225951,1.711954,-0.03063523,0.0733428,1.719265,0.05289283,-0.4136443,1.681764,-0.1091455,-0.1209916,1.624174,0.3905061,-0.1092009,1.59654,NA,NA,NotTracked,NotTracked,
-0.2407227,-0.9501953,0.3139648,-0.5507813,0.6274414,0.3564453,-1,8,0,-10,-6,-5,-9,-3,21,-4,-5,-3,-6,0,-3,-11,-1.375,-1.375,-1.375,-57.0625,-57.0625,-57.0625,3.065178,5.414539,5.036525,6.545967,5.535113,0.7163953,0.1520701,-0.01597711,1.439804,0.1742465,-0.008674293,1.438252,0.1605721,0.3401155,1.718084,0.1503086,-0.04968527,1.41925,0.1215087,-0.05877107,1.425682,0.1394484,-0.1121868,1.724185,0.1344971,-0.4220343,1.711989,-0.0308197,0.07317594,1.719843,0.05339742,-0.4129515,1.681267,-0.1090699,-0.1210272,1.624213,0.3993374,-0.1310555,1.627798,NA,NA,NotTracked,NotTracked,
-0.2607422,-0.9160156,0.315918,-0.3442383,0.800293,0.5385742,-6,-2,-3,3,0,1,5,0,-24,11,5,0,-22,-5,4,3,-6.6875,-6.6875,-6.6875,-14.8125,-14.8125,-14.8125,3.061372,5.440061,5.047216,6.50613,5.206566,0.6832043,0.1486575,-0.01172584,1.439406,0.1728207,-0.005494673,1.437138,0.1606544,0.3400841,1.718307,0.1511368,-0.04411738,1.419366,0.1258598,-0.05352244,1.432826,0.1399113,-0.1120105,1.724631,0.1347338,-0.4216644,1.711877,-0.02986201,0.07310683,1.718304,0.05376209,-0.4123622,1.680725,-0.1091722,-0.1211053,1.624317,0.4022127,-0.1347028,1.634628,NA,NA,NotTracked,NotTracked,
-0.2719727,-0.9287109,0.3779297,-0.1513672,1.119629,0.6787109,1,-2,-1,3,10,3,-5,-1,17,14,0,-5,8,-4,-2,-4,-14.625,-14.625,-14.625,36.1875,36.1875,36.1875,3.050601,5.466203,5.055413,6.535343,4.941438,0.6264729,0.1493036,-0.005835768,1.449409,0.1980527,-0.08341751,1.531112,0.1607558,0.3398611,1.719237,0.1908765,-0.08725798,1.502637,0.1483183,-0.141656,1.520746,0.1404582,-0.1118448,1.725413,0.1349793,-0.420951,1.711876,-0.02982742,0.07344946,1.718363,0.05421213,-0.411517,1.680268,-0.1095774,-0.1214169,1.624585,0.4183857,-0.1329905,1.670207,NA,NA,NotTracked,NotTracked,
-0.3173828,-0.8662109,0.3457031,0.06396484,1.388184,0.6274414,-2,-1,-4,0,-1,-2,-8,-3,8,16,0,2,12,-5,-5,-2,-8.875,-8.875,-8.875,5.3125,5.3125,5.3125,3.043432,5.493303,5.060597,6.564117,4.755035,0.5617831,0.1420546,0.008172053,1.444071,0.1844381,-0.1424186,1.548114,0.1607457,0.3398166,1.71965,0.202925,0.002962033,1.463,0.1026242,-0.04566515,1.436,0.1394939,-0.1116025,1.725156,0.1350386,-0.4206835,1.711914,-0.02976584,0.07364549,1.71804,0.05427619,-0.4112544,1.68015,-0.109715,-0.1214445,1.62432,0.4182714,-0.1288011,1.680849,NA,NA,NotTracked,NotTracked,
-0.3574219,-0.8354492,0.3374023,0.2265625,1.08252,0.9208984,-3,-1,0,5,-1,2,0,-2,-16,2,11,1,-1,-5,5,0,-6.6875,-6.6875,-6.6875,-42.3125,-42.3125,-42.3125,3.038533,5.519032,5.062047,6.529949,4.645688,0.5252891,0.1406624,0.01255449,1.445879,0.1976757,-0.1821415,1.55782,0.1607283,0.3397132,1.71993,0.1428439,0.06734654,1.481333,0.2022144,-0.2521224,1.586447,0.1398204,-0.1115742,1.725429,0.1351603,-0.4205254,1.711848,-0.03079435,0.07352564,1.719528,0.05440869,-0.4110677,1.679855,-0.1100984,-0.1212051,1.624299,0.4177814,-0.1251591,1.689118,NA,NA,Unknown,NotTracked,
-0.3637695,-0.8432617,0.3164063,0.1879883,0.9829102,0.7026367,4,-2,-1,4,2,1,-2,0,2,-11,-5,-1,-1,2,3,-1,-1.1875,-1.1875,-1.1875,-7.25,-7.25,-7.25,3.038013,5.541202,5.060594,6.511693,4.612554,0.5033447,0.1405546,0.01582933,1.448571,0.2024373,-0.1989912,1.558826,0.1608529,0.3397286,1.720322,0.1328519,0.06206004,1.467167,0.1839268,-0.2663252,1.575857,0.14002,-0.1116081,1.725918,0.1351683,-0.4205135,1.711876,-0.03062189,0.07396487,1.719222,0.05441007,-0.4110506,1.679808,-0.1102641,-0.1211366,1.624411,0.4176077,-0.124239,1.696415,NA,NA,Unknown,Unknown,
-0.3569336,-0.8505859,0.3144531,0.1826172,0.9550781,0.6669922,-4,-4,-3,0,0,-5,-2,-2,15,-8,-9,-4,12,3,-1,7,-2.0625,-2.0625,-2.0625,-11.875,-11.875,-11.875,3.037493,5.543765,5.060369,6.50495,4.616419,0.4958789,0.1410443,0.01754934,1.450091,0.2153164,-0.2080051,1.560005,0.1611304,0.3396054,1.72102,0.1426602,0.06888222,1.4738,0.2205084,-0.2809035,1.594178,0.1406252,-0.1117705,1.726795,0.1353175,-0.4205005,1.711949,-0.03120662,0.07412313,1.720172,0.05452661,-0.4110163,1.679647,-0.1104671,-0.1212724,1.62438,0.4157852,-0.1243789,1.701156,NA,NA,Unknown,Unknown,
-0.3369141,-0.8686523,0.3051758,0.1860352,0.8173828,0.6259766,-2,-2,0,3,2,3,7,-1,3,-10,-5,-2,-6,1,-2,3,1.25,1.25,1.25,-13.5625,-13.5625,-13.5625,3.038308,5.542644,5.058615,6.488741,4.638628,0.4962518,0.1419199,0.01659601,1.451024,0.2178691,-0.2101212,1.561219,0.1613346,0.339478,1.721356,0.1318055,0.06124033,1.467881,0.2204395,-0.2828106,1.593993,0.1410473,-0.1118863,1.72721,0.1354024,-0.420526,1.712045,-0.03081018,0.07432219,1.719642,0.05456024,-0.411011,1.679635,-0.1105358,-0.1212344,1.624408,0.4152309,-0.124314,1.703201,NA,NA,Unknown,Unknown,
-0.3305664,-0.890625,0.3134766,0.1484375,0.7983398,0.5673828,0,1,-2,-9,-4,-5,-16,1,-4,9,0,0,-2,-5,-8,-3,2.625,2.625,2.625,-7.5625,-7.5625,-7.5625,3.040897,5.537384,5.05476,6.47937,4.667657,0.4991453,0.1424735,0.01554774,1.452302,0.2178476,-0.2096778,1.562639,0.1616462,0.3393368,1.72152,0.124807,0.05569479,1.4675,0.214591,-0.2808762,1.591961,0.1412087,-0.1119304,1.72758,0.1354912,-0.4204941,1.712168,-0.03058588,0.07453506,1.719557,0.05459986,-0.4109656,1.679619,-0.1107519,-0.1211707,1.624523,0.4150696,-0.1243466,1.704783,NA,NA,Unknown,Unknown,
-0.3256836,-0.8994141,0.3168945,0.1860352,0.784668,0.5805664,0,-3,-2,-3,5,4,-3,0,-4,-5,4,6,1,-3,-1,-5,6.5625,6.5625,6.5625,-11.0625,-11.0625,-11.0625,3.04574,5.53248,5.053186,6.469732,4.691815,0.4991149,0.1436846,0.01465335,1.452955,0.2240137,-0.2065371,1.562847,0.1618852,0.3392497,1.721796,0.1406746,0.06398895,1.481125,0.2216132,-0.2810626,1.596743,0.1413852,-0.1119312,1.727872,0.1355252,-0.4204569,1.712321,-0.03039288,0.074652,1.71949,0.0546074,-0.4109534,1.679614,-0.1107507,-0.1212151,1.624654,0.4149726,-0.1245622,1.705611,NA,NA,Unknown,Unknown,
-0.3012695,-0.8945313,0.3183594,0.1777344,0.7431641,0.5776367,-1,0,-1,-1,3,3,0,1,3,8,0,0,-2,-3,1,1,7.3125,7.3125,7.3125,-13.125,-13.125,-13.125,3.05791,5.523299,5.060566,6.455721,4.707293,0.4975063,0.1440353,0.01299411,1.454253,0.2201325,-0.2081441,1.564368,0.1620986,0.3391922,1.722087,0.1270061,0.05327989,1.464474,0.2130471,-0.2817796,1.59226,0.1415625,-0.112041,1.728476,0.1355173,-0.4205187,1.712614,-0.030253,0.07470483,1.719492,0.05459486,-0.4109933,1.679667,-0.1111656,-0.1226593,1.626729,0.4146747,-0.1248032,1.706298,NA,NA,Unknown,Unknown,
-0.2817383,-0.8862305,0.315918,0.1713867,0.7202148,0.5776367,-2,0,0,1,0,1,0,0,-4,0,0,-1,-2,-2,-1,-1,7.4375,7.4375,7.4375,-12.375,-12.375,-12.375,3.063655,5.518058,5.066515,6.448566,4.710631,0.4959187,0.1441998,0.008396103,1.454915,0.1982924,-0.2036875,1.561791,0.1624266,0.339135,1.722491,0.128497,0.05093803,1.47099,0.1886897,-0.2643529,1.585728,0.141854,-0.1119913,1.72928,0.1355615,-0.4203403,1.713258,-0.03013638,0.07479186,1.719541,0.0546297,-0.4108859,1.679847,-0.110938,-0.1232785,1.628057,0.4138438,-0.1250019,1.707218,NA,NA,Unknown,Unknown,
-0.2338867,-0.8544922,0.3056641,0.1611328,0.6611328,0.5273438,2,-2,-1,-2,-4,-1,-2,-1,-1,1,-2,1,1,-1,-1,-1,3.9375,3.9375,3.9375,-7,-7,-7,3.073659,5.50118,5.085418,6.43483,4.694597,0.4850051,0.1420485,0.003332579,1.456697,0.1965115,-0.1999314,1.560657,0.1624508,0.3390877,1.72265,0.2063423,-0.003625608,1.53,0.1846647,-0.2643085,1.583834,0.1421011,-0.1117929,1.729692,0.1356677,-0.4201501,1.713643,-0.02971357,0.0748285,1.719631,0.05470204,-0.410772,1.679929,-0.1115327,-0.1244462,1.631467,0.4134802,-0.125524,1.708066,NA,NA,Unknown,Unknown,
-0.1489258,-0.7827148,0.3237305,0.1538086,0.6660156,0.5561523,2,3,0,-1,-2,-3,-2,0,-3,-2,-3,1,-1,-2,-1,-1,-2.1875,-2.1875,-2.1875,-2.5,-2.5,-2.5,3.082351,5.466941,5.113687,6.43074,4.659088,0.4765485,0.1353162,-0.007739548,1.455789,0.1953404,-0.2047223,1.559892,0.1624888,0.3391055,1.722686,0.2014863,-0.01054584,1.5228,0.1843251,-0.2694609,1.58316,0.1422488,-0.1117125,1.729962,0.1357592,-0.4199675,1.713901,-0.02931226,0.07484951,1.719623,0.05477055,-0.4106471,1.680003,-0.1122817,-0.1253124,1.635075,0.4133435,-0.12589,1.70866,NA,NA,Unknown,Unknown,
-0.08740234,-0.737793,0.3496094,0.1118164,0.6416016,0.496582,1,0,-1,0,1,-2,-1,0,3,5,10,2,1,1,1,-1,-1.8125,-1.8125,-1.8125,2.4375,2.4375,2.4375,3.093089,5.400413,5.14689,6.435951,4.607439,0.46003,0.1296152,-0.047008,1.454133,0.1963888,-0.2161636,1.555831,0.1625518,0.3390799,1.722718,0.1861569,-0.06635782,1.52075,0.183499,-0.2794675,1.580891,0.1423677,-0.1115766,1.730202,0.1358827,-0.4196762,1.71433,-0.02772195,0.07450214,1.719605,0.05493236,-0.4103582,1.680191,-0.1137636,-0.1267359,1.64645,0.4128078,-0.1287785,1.712648,NA,NA,Unknown,Closed,
-0.07421875,-0.7026367,0.3422852,0.1279297,0.6259766,0.4321289,0,-2,-3,-1,-2,0,-3,0,1,3,4,2,1,-1,0,-1,10.4375,10.4375,10.4375,9.25,9.25,9.25,3.115856,5.22162,5.186251,6.454928,4.527118,0.4304661,0.1289971,-0.07644732,1.451697,0.201469,-0.2258885,1.55312,0.1625547,0.3390908,1.722712,0.1925757,-0.09799813,1.499334,0.166042,-0.2882236,1.5715,0.1424277,-0.111533,1.730225,0.1360602,-0.4194514,1.714478,-0.02657432,0.07428313,1.719449,0.05521176,-0.4100668,1.680222,-0.1105749,-0.1362888,1.61658,0.4119103,-0.1298975,1.714391,NA,NA,NotTracked,Closed,
-0.0625,-0.7172852,0.3115234,0.2075195,0.6523438,0.4257813,-3,-2,-1,-1,-2,3,-1,-1,-3,-4,-2,0,-3,-1,-3,-1,13.0625,13.0625,13.0625,18.6875,18.6875,18.6875,3.124814,5.140099,5.199714,6.488901,4.411876,0.3929601,0.1240913,-0.1144534,1.452105,0.2181191,-0.2460035,1.549888,0.1625549,0.3390715,1.722739,0.1774964,-0.1558717,1.49975,0.2087934,-0.3241518,1.56779,0.1425204,-0.1115085,1.730317,0.1363354,-0.4193921,1.714756,-0.02595785,0.07412384,1.71957,0.05559746,-0.409984,1.680533,-0.1109217,-0.1382861,1.617885,0.4089998,-0.1330232,1.716375,NA,NA,NotTracked,NotTracked,
0.07470703,-0.8125,0.3603516,0.300293,0.737793,0.3916016,-2,-2,-3,-3,-4,-5,-4,0,-3,2,4,0,-3,-1,0,-1,-6.4375,-6.4375,-6.4375,27.9375,27.9375,27.9375,3.125361,4.84668,5.26338,6.536513,4.252289,0.3522734,0.1180953,-0.1592031,1.455615,0.2221383,-0.2851869,1.547789,0.1625704,0.3390647,1.722749,0.156222,-0.216919,1.5345,0.2344693,-0.3575826,1.581568,0.1425394,-0.1115185,1.730336,0.1364162,-0.4195046,1.714813,-0.02585918,0.07400132,1.719779,0.05569045,-0.4100508,1.680677,-0.11191,-0.1457909,1.623761,0.4058314,-0.1353388,1.720532,NA,NA,NotTracked,NotTracked,
0.2504883,-0.949707,0.3735352,0.5566406,0.6689453,0.4462891,-1,-3,-1,-2,-4,-4,-3,-2,-2,-10,-16,-8,-2,1,-1,1,-1.5,-1.5,-1.5,5.4375,5.4375,5.4375,3.117341,4.623816,5.313216,6.577462,4.075857,0.2905993,0.107809,-0.2042254,1.463389,0.2374779,-0.3018026,1.544086,0.1625924,0.3390765,1.722725,0.1524998,-0.171247,1.547217,0.2628888,-0.3780036,1.576143,0.1425202,-0.1116215,1.730334,0.1361545,-0.4200429,1.714739,-0.02577833,0.07396679,1.72006,0.05547705,-0.4102762,1.680713,-0.1128282,-0.1509977,1.629694,0.4026563,-0.137257,1.723687,NA,NA,NotTracked,NotTracked,
0.1679688,-0.9418945,0.2250977,0.6616211,0.6757813,0.4355469,-1,-1,0,1,0,-2,0,-2,0,-6,-16,-6,-3,-2,0,-2,8.1875,8.1875,8.1875,6.4375,6.4375,6.4375,3.099617,4.389094,5.370821,6.629702,3.915213,0.2106661,0.09400672,-0.2483945,1.4816,0.2447499,-0.3230164,1.555072,0.1627184,0.3390798,1.722651,0.1300042,-0.2082882,1.568515,0.2879792,-0.4007353,1.567571,0.1424214,-0.1119008,1.730458,0.135246,-0.4213811,1.715392,-0.02571618,0.07384141,1.720463,0.0547277,-0.4111004,1.681468,-0.114965,-0.1564325,1.643619,0.3967379,-0.1418562,1.726899,NA,NA,NotTracked,NotTracked,
0.1679688,-0.9418945,0.2250977,0.6616211,0.6757813,0.4355469,-1,-1,0,1,0,-2,0,-2,0,-6,-16,-6,-3,-2,0,-2,8.1875,8.1875,8.1875,6.4375,6.4375,6.4375,3.099617,4.389094,5.370821,6.629702,3.915213,0.2106661,0.08249598,-0.2973119,1.495013,0.2536843,-0.3572803,1.556716,0.1628506,0.3390687,1.722657,0.07136566,-0.3668145,1.550667,0.2897889,-0.4470547,1.568572,0.1420458,-0.1123418,1.730682,0.1337737,-0.4228263,1.716236,-0.02581669,0.07390101,1.720964,0.05342332,-0.4121449,1.682561,-0.1109965,-0.1604665,1.649793,0.3935269,-0.1468255,1.727876,NA,NA,NotTracked,NotTracked,
0.5219727,-0.8295898,0.269043,0.8305664,0.6552734,0.328125,1,2,0,-1,0,-2,-1,-3,-3,2,1,-1,-3,-2,-3,-4,18.5,18.5,18.5,-12.5625,-12.5625,-12.5625,3.084458,4.119148,5.45221,6.704487,3.672595,0.07348187,0.0654036,-0.3399265,1.512049,0.2649135,-0.3749893,1.565428,0.1629182,0.3390556,1.722602,0.1157936,-0.3097503,1.570431,0.2105627,-0.4090084,1.578117,0.1419957,-0.1126295,1.730679,0.1335173,-0.423465,1.716293,-0.02584848,0.0739036,1.721551,0.05279423,-0.4131638,1.68295,-0.1065487,-0.1424801,1.722714,0.3878424,-0.1553915,1.72652,NA,NA,Unknown,NotTracked,
0.7758789,-0.9169922,0.3461914,0.9677734,0.6582031,0.3203125,2,0,0,0,-3,-1,-2,-1,-1,8,-6,-7,-1,-1,0,0,-6.1875,-6.1875,-6.1875,-7.75,-7.75,-7.75,3.031634,3.872247,5.53756,6.739008,3.591021,0.02265913,0.04963036,-0.3738413,1.539141,0.2930642,-0.405498,1.552934,0.1629819,0.3389772,1.722567,0.1074081,-0.3545182,1.574086,0.2609148,-0.4498225,1.559143,0.1420944,-0.1128823,1.730569,0.1339106,-0.424156,1.715846,-0.0259831,0.073823,1.72204,0.05285491,-0.4144556,1.68255,-0.1062399,-0.1443082,1.722712,0.3844646,-0.1620447,1.724346,NA,NA,Unknown,Closed,
0.6494141,-0.8613281,0.203125,1.035645,0.574707,0.28125,0,-1,1,-3,-3,-3,-2,0,0,3,14,6,1,-1,3,1,31.25,31.25,31.25,-9.625,-9.625,-9.625,2.964465,3.638954,5.659777,6.803664,3.459985,9.934357,0.008613823,-0.4041743,1.537156,0.3026189,-0.4257222,1.563604,0.1630503,0.3389377,1.722557,0.033625,-0.3881737,1.503535,0.2616033,-0.4497634,1.567342,0.1424628,-0.1131116,1.730373,0.135044,-0.4246258,1.715133,-0.02620619,0.07343049,1.722924,0.05326611,-0.4151525,1.682162,-0.1053256,-0.1475087,1.723729,0.3819833,-0.1707574,1.721613,NA,NA,Unknown,Closed,
1.319336,-0.6152344,0.2519531,1.001465,0.5209961,0.206543,0,-1,-1,0,-1,1,1,-3,4,9,6,5,4,1,2,3,47.875,47.875,47.875,-20.8125,-20.8125,-20.8125,2.865466,3.412104,5.853254,6.855886,3.308396,9.838696,-0.0110246,-0.4270874,1.563954,0.3083771,-0.446244,1.571375,0.1631784,0.3388644,1.722518,0.01497097,-0.4217914,1.526743,0.2684768,-0.435474,1.584871,0.1435198,-0.1136684,1.729717,0.1383753,-0.4259822,1.713153,-0.02644902,0.07280402,1.723693,0.055485,-0.4170271,1.680612,-0.1038468,-0.1519038,1.724301,0.3807642,-0.1744036,1.720022,NA,NA,Unknown,Unknown,
1.10498,-0.6235352,0.1425781,1.050293,0.4350586,0.2026367,-1,-2,-3,-2,-3,0,0,0,0,-2,-4,0,-1,1,0,-2,-8.75,-8.75,-8.75,-0.9375,-0.9375,-0.9375,2.747633,3.277913,5.995563,6.890509,3.23051,9.793096,-0.04312495,-0.4645594,1.602233,0.3150983,-0.4690158,1.587573,0.163166,0.338856,1.722487,0.006490936,-0.4566214,1.59334,0.266015,-0.4663555,1.582638,0.1438101,-0.1140884,1.729292,0.1387237,-0.4264779,1.712473,-0.02704857,0.07211863,1.72476,0.05561843,-0.4174384,1.680219,-0.09936378,-0.1679476,1.725531,0.3780919,-0.1768228,1.71764,NA,NA,Unknown,Unknown,
0.996582,-0.6157227,0.03417969,0.894043,0.4516602,0.1962891,-1,-2,0,-2,1,-1,-1,-1,-1,0,-4,-2,-4,-1,-2,-1,15,15,15,-8.625,-8.625,-8.625,2.615194,3.185343,6.150003,6.891167,3.191859,9.785351,-0.05608885,-0.4869954,1.616513,0.3187093,-0.470946,1.594726,0.1630781,0.3388442,1.722374,-0.00553678,-0.4837022,1.595936,0.2673603,-0.4560721,1.58186,0.1437522,-0.1142704,1.729198,0.1386179,-0.4267263,1.71244,-0.02706968,0.07177063,1.72526,0.0555065,-0.4176448,1.680258,-0.09901906,-0.1701249,1.727132,0.3775206,-0.1775552,1.717329,NA,NA,NotTracked,Unknown,
0.9365234,-0.5991211,0.06640625,0.8549805,0.4052734,0.2011719,-2,-2,-2,-1,0,-2,-2,-1,-1,-6,-9,0,0,-1,0,0,42.5625,42.5625,42.5625,-12.375,-12.375,-12.375,2.502949,3.128929,6.317792,6.884073,3.157292,9.775743,-0.06164515,-0.4937041,1.627955,0.3211746,-0.472053,1.599864,0.1629772,0.3387833,1.722219,-0.009895856,-0.4866394,1.600447,0.269031,-0.4557634,1.583259,0.1437233,-0.1144102,1.729133,0.1384327,-0.4270209,1.712437,-0.02730964,0.07147387,1.725856,0.05528464,-0.4178988,1.680373,-0.09903911,-0.1724538,1.729532,0.3772554,-0.1779373,1.71725,NA,NA,NotTracked,NotTracked,
0.9316406,-0.5161133,0.1357422,0.8730469,0.4423828,0.1987305,-1,-1,-1,-1,-2,0,-2,-1,-3,0,-2,-1,-1,-2,0,0,65.25,65.25,65.25,-10.625,-10.625,-10.625,2.459056,3.095797,6.441687,6.894144,3.133816,9.752937,-0.06561465,-0.4971829,1.636329,0.3228181,-0.4730784,1.603892,0.1628884,0.3388779,1.722112,-0.01402349,-0.4876595,1.605531,0.2717285,-0.45959,1.585623,0.1437066,-0.1145209,1.72902,0.1383843,-0.4271573,1.712441,-0.02751682,0.07122321,1.726507,0.05524008,-0.4179986,1.680415,-0.09834161,-0.1728017,1.731884,0.3769426,-0.1782844,1.717326,NA,NA,NotTracked,NotTracked,
0.9042969,-0.4223633,0.1064453,0.8759766,0.4106445,0.1674805,-1,-1,-2,-1,-1,-1,-1,-1,0,0,-2,0,-1,0,-1,0,59,59,59,-16.0625,-16.0625,-16.0625,2.457426,3.075908,6.522183,6.905495,3.120348,9.721582,-0.06850394,-0.4992565,1.641466,0.3233965,-0.4744866,1.606099,0.1626938,0.3389541,1.721851,-0.01397442,-0.5124603,1.607381,0.2742086,-0.4477516,1.587375,0.1436483,-0.114657,1.728904,0.1383341,-0.4272588,1.712445,-0.02781136,0.07107519,1.727036,0.05518003,-0.418116,1.680488,-0.09805093,-0.1729232,1.734274,0.3766506,-0.1781033,1.717305,NA,NA,NotTracked,NotTracked,
0.894043,-0.4072266,0.1049805,0.894043,0.3813477,0.1445313,1,0,0,1,0,1,-2,-4,0,0,2,1,-2,-1,-1,0,38.625,38.625,38.625,-11.75,-11.75,-11.75,2.472975,3.066438,6.560709,6.92222,3.109145,9.687737,-0.07345994,-0.5003865,1.650217,0.3264674,-0.4770515,1.610739,0.1623553,0.3387114,1.721123,-0.0212413,-0.5007631,1.614643,0.2741565,-0.4573967,1.587444,0.1435171,-0.1148983,1.728733,0.1380182,-0.4276025,1.712529,-0.02834526,0.07099461,1.72796,0.05485756,-0.4184417,1.680757,-0.09694487,-0.1730132,1.739122,0.3761009,-0.1784005,1.717523,NA,NA,NotTracked,NotTracked,
0.9067383,-0.4057617,0.0703125,0.9072266,0.371582,0.1279297,-2,-2,-1,-1,2,-2,-1,0,0,-1,0,-3,-3,-1,-2,0,25.625,25.625,25.625,-6.75,-6.75,-6.75,2.492539,3.061874,6.576166,6.939371,3.098278,9.660169,-0.07442197,-0.5014576,1.652485,0.3277674,-0.4786185,1.611418,0.1621104,0.338728,1.720906,-0.02101896,-0.5114223,1.614125,0.2779464,-0.4493462,1.590227,0.1434604,-0.1150736,1.728662,0.1378251,-0.4278116,1.7126,-0.02860345,0.07080935,1.728269,0.05467672,-0.418625,1.680903,-0.09578697,-0.1733853,1.741046,0.3755924,-0.1786359,1.717604,NA,NA,NotTracked,NotTracked,
0.9243164,-0.4018555,0.05029297,0.9072266,0.3457031,0.121582,1,-4,-4,-2,-1,-1,0,1,-2,-1,-2,-1,2,3,2,0,12.9375,12.9375,12.9375,0.75,0.75,0.75,2.52116,3.059446,6.566001,6.952831,3.088924,9.644231,-0.07348342,-0.4999715,1.653115,0.3287653,-0.4796922,1.6126,0.1618133,0.3387229,1.720586,-0.02345296,-0.4868002,1.617341,0.2780529,-0.4522789,1.590546,0.1433414,-0.115224,1.728597,0.137634,-0.4280243,1.712671,-0.02872839,0.0707297,1.728485,0.05449973,-0.4188052,1.681082,-0.09519473,-0.1734963,1.742493,0.3750474,-0.1788142,1.717663,NA,NA,NotTracked,NotTracked,
