ALX,ALY,ALZ,ARX,ARY,ARZ,EMG0L,EMG1L,EMG2L,EMG3L,EMG4L,EMG5L,EMG6L,EMG7L,EMG0R,EMG1R,EMG2R,EMG3R,EMG4R,EMG5R,EMG6R,EMG7R,GLX,GLY,GLZ,GRX,GRY,GRZ,ORL,OPL,OYL,ORR,OPR,OYR,LHNX,LHNY,LHNZ,RHNX,RHNY,RHNZ,HX,HY,HZ,LTX,LTY,LTZ,RTX,RTY,RTZ,SpineMidX,SpineMidY,SpineMidZ,SpineBaseX,SpineBaseY,SpineBaseZ,ShoulderLeftX,ShoulderLeftY,ShoulderLeftZ,ShoulderRightX,ShoulderRightY,ShoulderRightZ,ElbowLeftX,ElbowLeftY,ElbowLeftZ,ElbowRightX,ElbowRightY,ElbowRightZ,Myo_Pose_left,Myo_Pose_Right,Kinect_pose_left,Kinect_pose_right
0.9418945,-0.3515625,-0.02587891,0.6381836,0.7436523,0.527832,0,0,1,0,0,-2,0,-1,7,10,11,-9,-2,-2,-4,-2,-4.1875,-4.1875,-4.1875,-5.8125,-5.8125,-5.8125,2.387317,3.070039,2.363425,6.558234,4.064193,2.448288,-0.09140352,-0.4988717,1.618395,0.2319858,-0.379165,1.516131,0.1159833,0.3361899,1.706729,-0.04326936,-0.4850406,1.590841,0.2012767,-0.4356846,1.568568,0.1058447,-0.1192991,1.720191,0.09892016,-0.4304415,1.706344,-0.06823729,0.06748885,1.719647,0.01470594,-0.4196794,1.674428,-0.1233124,-0.1965874,1.724419,0.3436892,-0.1743591,1.719515,NA,NA,NotTracked,Closed,
0.9423828,-0.3540039,-0.02441406,0.5078125,0.7797852,0.550293,-1,-1,-2,-1,-1,-1,-2,0,-5,-8,-46,-12,-3,-1,1,-3,-3.875,-3.875,-3.875,-7,-7,-7,2.389728,3.07073,2.356612,6.531275,4.287856,2.490042,-0.09122597,-0.4990985,1.617443,0.2310109,-0.3390147,1.480025,0.1157426,0.3361708,1.706957,-0.04319153,-0.487968,1.590388,0.1889046,-0.3772748,1.556077,0.1052984,-0.1192153,1.720223,0.09776578,-0.4302937,1.706178,-0.06826872,0.06744672,1.719702,0.01369039,-0.419412,1.67428,-0.1230374,-0.1967426,1.724382,0.3442112,-0.1700621,1.720984,NA,NA,NotTracked,Closed,
0.940918,-0.3432617,-0.02685547,0.3178711,0.8007813,0.5458984,-1,-3,-1,-1,0,-1,0,0,7,13,12,2,1,0,-1,2,-2.3125,-2.3125,-2.3125,-11.0625,-11.0625,-11.0625,2.393388,3.071551,2.348797,6.503216,4.52694,2.529746,-0.09100819,-0.4985918,1.616688,0.2216583,-0.2980909,1.456935,0.115534,0.3362027,1.707151,-0.04358882,-0.4865493,1.590296,0.1791929,-0.3371938,1.549429,0.1050129,-0.1191844,1.720167,0.09707573,-0.43021,1.705938,-0.06830118,0.06729605,1.719724,0.01312936,-0.419324,1.674073,-0.1230624,-0.1967408,1.724337,0.3451454,-0.1642095,1.720491,NA,NA,NotTracked,Closed,
0.9365234,-0.3364258,-0.02880859,0.2265625,0.7661133,0.5566406,-3,-3,-1,-1,-2,-2,0,-1,1,-3,-5,-3,-1,-3,0,-3,-3.4375,-3.4375,-3.4375,-3.6875,-3.6875,-3.6875,2.395044,3.072176,2.343585,6.495924,4.649097,2.55082,-0.09028491,-0.4995029,1.616919,0.2107566,-0.2544854,1.455336,0.1153059,0.3362491,1.707506,-0.04250757,-0.4886387,1.589786,0.1599944,-0.2582767,1.558038,0.1050089,-0.1191124,1.720197,0.09698394,-0.4300455,1.705894,-0.0682753,0.06725435,1.719736,0.01309745,-0.4192492,1.674026,-0.1230223,-0.1968031,1.724278,0.3463764,-0.157261,1.719774,NA,NA,NotTracked,Closed,
0.9384766,-0.3442383,-0.02832031,0.002441406,0.7915039,0.5512695,0,-3,-3,0,-1,0,-2,-2,1,1,-2,-2,-4,-3,-3,0,-4.375,-4.375,-4.375,11.75,11.75,11.75,2.395794,3.072231,2.337439,6.498217,5.024531,2.613322,-0.08901566,-0.4989241,1.61696,0.2000463,-0.2133665,1.442675,0.1151506,0.3362134,1.707788,-0.04069071,-0.5012633,1.588907,0.1608432,-0.2539256,1.547857,0.1049629,-0.1190607,1.720305,0.09702899,-0.4299144,1.705953,-0.06831669,0.06715597,1.719803,0.0131437,-0.4191702,1.674106,-0.1228715,-0.1965146,1.724253,0.3460248,-0.1501004,1.716195,NA,NA,NotTracked,Closed,
0.9399414,-0.3378906,-0.03613281,-0.1386719,0.7983398,0.5458984,1,-2,-1,-3,-1,-1,0,-1,0,-17,-6,-1,-2,-1,-1,-2,-4.875,-4.875,-4.875,19.375,19.375,19.375,2.395808,3.07171,2.332002,6.523137,5.271678,2.663936,-0.08916861,-0.4986717,1.616938,0.1918179,-0.1705537,1.435598,0.1150528,0.3361703,1.708083,-0.04202233,-0.4917575,1.589872,0.1487896,-0.1837403,1.539611,0.1048344,-0.1189675,1.720476,0.09699768,-0.4297311,1.706018,-0.0683439,0.06700942,1.719875,0.01311255,-0.4190418,1.674193,-0.1227434,-0.1964547,1.724182,0.4092846,-0.159897,1.685162,NA,NA,NotTracked,Closed,
0.9448242,-0.3505859,-0.03759766,-0.2695313,0.7250977,0.496582,1,0,0,-1,-1,-1,-1,-1,-7,-6,-2,-2,-1,-1,1,-2,-6,-6,-6,13.9375,13.9375,13.9375,2.391233,3.071616,2.328979,6.554077,5.515132,2.722395,-0.08873028,-0.4989275,1.616633,0.1777678,-0.07667463,1.434694,0.1149888,0.3361461,1.708534,-0.04057521,-0.5014602,1.588402,0.1377828,-0.09380075,1.514,0.104576,-0.1187781,1.720851,0.0968836,-0.4291881,1.706238,-0.06826738,0.06679542,1.720016,0.01309483,-0.4186596,1.674562,-0.122693,-0.1965847,1.724023,0.4108339,-0.1709276,1.683986,NA,NA,NotTracked,Closed,
0.9365234,-0.3432617,-0.04589844,-0.3408203,0.7358398,0.5073242,-1,-1,-3,-1,-1,0,-1,0,2,-8,3,3,0,-2,0,2,-4.25,-4.25,-4.25,27.5,27.5,27.5,2.386016,3.072545,2.329209,6.610784,5.749534,2.791393,-0.08848827,-0.4982518,1.616414,0.1781086,-0.03726621,1.440006,0.1150069,0.3361146,1.708622,-0.04121052,-0.4968734,1.588917,0.1504543,-0.06990501,1.5385,0.1043998,-0.1186842,1.721188,0.09672558,-0.42898,1.706438,-0.06823874,0.06676129,1.720052,0.01298007,-0.4185042,1.674786,-0.1227116,-0.1965161,1.723923,0.4071891,-0.1818666,1.676992,NA,NA,NotTracked,Unknown,
0.9355469,-0.340332,-0.03710938,-0.4760742,0.7124023,0.4477539,0,-2,-2,-1,0,0,0,-1,0,6,1,-5,-2,-1,-2,0,-5.3125,-5.3125,-5.3125,15.375,15.375,15.375,2.378591,3.072331,2.33024,6.673465,5.969102,2.872753,-0.08921692,-0.4984589,1.61668,0.1763912,0.002830542,1.44857,0.1150316,0.3360566,1.70875,-0.03993014,-0.5059041,1.587041,0.1506051,-0.02543056,1.554,0.1043881,-0.1188102,1.721472,0.09669144,-0.4291847,1.706623,-0.06813179,0.06665248,1.72011,0.01289941,-0.4188484,1.675266,-0.1228824,-0.1961867,1.723841,0.4037539,-0.1864609,1.669677,NA,NA,NotTracked,Unknown,
0.9428711,-0.340332,-0.02197266,-0.534668,0.6015625,0.3930664,-2,1,-4,-2,0,-3,0,1,1,-6,-1,-1,-2,0,0,-1,-1.5625,-1.5625,-1.5625,6.625,6.625,6.625,2.37247,3.072798,2.334103,6.746984,6.166727,2.976386,-0.08907688,-0.4979974,1.617511,0.1765555,0.0372849,1.464908,0.1149655,0.3358402,1.70924,-0.03997607,-0.4841765,1.591021,0.1547704,0.01882066,1.56125,0.1042316,-0.1189451,1.72202,0.0964146,-0.4295106,1.70704,-0.06847882,0.06679922,1.720869,0.01234718,-0.4195217,1.676855,-0.1228778,-0.1962412,1.723881,0.399316,-0.1874888,1.664888,NA,NA,NotTracked,Lasso,
0.9414063,-0.3388672,-0.02148438,-0.5908203,0.5395508,0.3325195,-2,-2,-1,-2,-1,-2,0,-1,0,-1,0,-9,1,-4,-14,-3,-0.125,-0.125,-0.125,2.5625,2.5625,2.5625,2.368337,3.072404,2.337621,6.83894,6.339432,3.101727,-0.08946103,-0.4981573,1.616049,0.1769451,0.0673642,1.47948,0.1148101,0.3358024,1.709287,-0.04093641,-0.4941928,1.58927,0.1681749,0.03771149,1.5852,0.1039909,-0.1193494,1.722395,0.09598592,-0.4303376,1.70735,-0.06877232,0.06668781,1.721156,0.01163116,-0.4206771,1.678241,-0.1228898,-0.1961743,1.723792,0.3906842,-0.1854339,1.648725,NA,NA,NotTracked,Lasso,
0.925293,-0.3320313,-0.02148438,-0.6274414,0.5131836,0.2680664,1,0,-1,0,-3,-1,-2,-1,2,0,1,-2,0,-4,-4,0,1.625,1.625,1.625,-3.0625,-3.0625,-3.0625,2.365775,3.071081,2.341918,6.890005,6.414465,3.171612,-0.08994524,-0.497821,1.619312,0.1773112,0.1227258,1.515482,0.1141666,0.3360595,1.709617,-0.04189913,-0.476044,1.59452,0.180099,0.07510702,1.6076,0.103406,-0.119905,1.722402,0.09485766,-0.431949,1.708277,-0.06882924,0.06654497,1.721777,0.009873891,-0.4225946,1.681412,-0.1230565,-0.1961187,1.723918,0.3696438,-0.1723033,1.618962,NA,NA,NotTracked,Lasso,
0.9321289,-0.3339844,-0.03076172,-0.6831055,0.4453125,0.2114258,-1,-2,-1,-1,-1,-1,-3,-1,-1,1,-1,-3,-2,4,3,1,4.375,4.375,4.375,-4.9375,-4.9375,-4.9375,2.36183,3.069648,2.349493,7.000235,6.534366,3.317154,-0.09059693,-0.4983435,1.618933,0.187212,0.1200874,1.542226,0.1139217,0.336275,1.70965,-0.04130702,-0.4804198,1.592702,0.1613088,0.113046,1.593429,0.1034018,-0.1199445,1.722415,0.09439295,-0.4323402,1.708519,-0.06872939,0.06647547,1.721842,0.009238888,-0.4229705,1.682391,-0.1231787,-0.195548,1.724028,0.3638327,-0.1658964,1.606344,NA,NA,NotTracked,Unknown,
0.9301758,-0.34375,-0.02636719,-0.3837891,0.409668,0.3295898,-1,-2,-2,0,-1,-1,-3,-1,1,2,2,0,-3,-4,-2,2,4.5625,4.5625,4.5625,-24.6875,-24.6875,-24.6875,2.360178,3.068052,2.357086,7.141773,6.631871,3.516599,-0.09054717,-0.4983564,1.619784,0.1806569,0.1466793,1.554113,0.1136863,0.3366778,1.70978,-0.04085085,-0.4926049,1.591099,0.1723092,0.1071037,1.633572,0.1034022,-0.1200224,1.7224,0.09394117,-0.4325111,1.708588,-0.06852666,0.06642921,1.721921,0.00863454,-0.4230917,1.682842,-0.1233546,-0.1951218,1.724325,0.339389,-0.1246834,1.580685,NA,NA,NotTracked,Unknown,
0.9384766,-0.3500977,-0.03710938,-0.3632813,0.5053711,0.02978516,1,-1,-1,-1,-1,0,0,0,-1,3,-1,1,1,-3,-3,-5,5.75,5.75,5.75,-16.6875,-16.6875,-16.6875,2.359925,3.068096,2.364565,7.179849,6.63466,3.570329,-0.09084866,-0.4972142,1.619756,0.1863169,0.1398754,1.565466,0.1135873,0.3365035,1.709739,-0.04254353,-0.4759821,1.59396,0.1861641,0.07899604,1.628345,0.1033941,-0.1200814,1.722422,0.0934664,-0.4325707,1.708752,-0.06841239,0.06644192,1.72204,0.008037056,-0.4230743,1.683375,-0.123334,-0.1950256,1.724404,0.3392847,-0.124124,1.580245,NA,NA,NotTracked,Unknown,
0.9287109,-0.3642578,-0.02832031,-1.036621,0.4941406,-0.05029297,0,1,-2,-1,0,-1,-1,1,-6,-1,-2,-3,-2,-2,-2,1,4.875,4.875,4.875,-6.75,-6.75,-6.75,2.361058,3.069831,2.369542,7.250911,6.642757,3.65631,-0.09103314,-0.4974272,1.620864,0.1764654,0.164373,1.571393,0.1134942,0.336363,1.709852,-0.04057691,-0.4952207,1.591352,0.1696175,0.1177167,1.63985,0.1034197,-0.1202126,1.722495,0.09321396,-0.4327896,1.708925,-0.06815183,0.06643872,1.722191,0.007771202,-0.4232608,1.683743,-0.1233264,-0.1947591,1.724717,0.3389335,-0.1234745,1.578929,NA,NA,NotTracked,Unknown,
0.9248047,-0.3588867,-0.03564453,-0.8154297,0.5102539,0.1005859,0,-1,-1,-2,-3,-4,2,0,-2,1,0,-1,0,0,-3,-2,5.1875,5.1875,5.1875,-12.125,-12.125,-12.125,2.362766,3.072119,2.373517,7.26074,6.635038,3.694679,-0.09212761,-0.4983056,1.621071,0.1650668,0.1686717,1.589728,0.1134368,0.3362274,1.709898,-0.04073506,-0.5018351,1.590698,0.1596631,0.1066398,1.644714,0.1033757,-0.1203222,1.722554,0.09235171,-0.4329448,1.709187,-0.06800503,0.06635049,1.722637,0.006954794,-0.4232256,1.684402,-0.123579,-0.1941896,1.725495,0.3375248,-0.1218307,1.576407,NA,NA,NotTracked,Closed,
0.9306641,-0.3549805,-0.03320313,-0.8261719,0.5258789,0.1030273,-3,0,1,-2,0,0,-2,-1,1,1,0,-2,0,0,-3,-3,2.0625,2.0625,2.0625,-11.8125,-11.8125,-11.8125,2.364088,3.074374,2.375563,7.254481,6.629199,3.695703,-0.09189322,-0.497369,1.62022,0.1628869,0.1702544,1.589033,0.1133671,0.3360105,1.709847,-0.04052933,-0.5071783,1.588606,0.1580974,0.1033569,1.644813,0.103344,-0.1203948,1.722583,0.09210866,-0.4330308,1.709265,-0.0679777,0.06639462,1.722757,0.00665972,-0.4232718,1.684686,-0.1236465,-0.1938208,1.725715,0.3372118,-0.1217616,1.575781,NA,NA,NotTracked,Unknown,
0.9355469,-0.3540039,-0.02734375,-0.8535156,0.5400391,0.1074219,-1,0,-2,0,-2,0,-1,-1,1,1,-1,-1,-1,-1,2,-1,1.625,1.625,1.625,-6.75,-6.75,-6.75,2.366613,3.076485,2.375,7.240034,6.617367,3.690008,-0.09231552,-0.4977104,1.620571,0.1605074,0.1702904,1.588394,0.1133062,0.335622,1.709696,-0.04389663,-0.4791692,1.594276,0.1556923,0.1066844,1.643762,0.1033277,-0.1204802,1.722585,0.09194051,-0.4331023,1.709278,-0.06802905,0.0664639,1.722976,0.006537023,-0.4233076,1.684771,-0.123743,-0.1936049,1.725877,0.3366656,-0.1214076,1.574937,NA,NA,NotTracked,Unknown,
0.9311523,-0.3461914,-0.03515625,-0.859375,0.5595703,0.1044922,-1,-1,-2,1,-1,-2,-1,0,-7,-4,-5,-3,-4,0,2,0,-0.25,-0.25,-0.25,-1.75,-1.75,-1.75,2.366909,3.076849,2.37529,7.228549,6.605546,3.680431,-0.09234437,-0.4975534,1.6203,0.1485967,0.1939406,1.589709,0.1133722,0.3352143,1.709648,-0.04366793,-0.4786119,1.593602,0.1418688,0.1285793,1.646,0.1031587,-0.1207837,1.722651,0.09138405,-0.4333392,1.709411,-0.06816352,0.06643131,1.723314,0.006077416,-0.4233999,1.685021,-0.1237601,-0.1935579,1.725967,0.3364781,-0.1214116,1.574876,NA,NA,NotTracked,Unknown,
0.9296875,-0.347168,-0.02832031,-0.8525391,0.5717773,0.1337891,-1,-1,-1,-1,-2,1,-2,-1,0,-4,-4,-3,-1,0,-2,-1,-1.5625,-1.5625,-1.5625,0.8125,0.8125,0.8125,2.366307,3.076664,2.374688,7.22053,6.597365,3.671845,-0.09273744,-0.4986629,1.621299,0.1474838,0.1924189,1.588534,0.1133496,0.3351428,1.709739,-0.04121519,-0.5021244,1.591689,0.1486344,0.123661,1.645688,0.1030302,-0.1209695,1.722766,0.09108939,-0.4334615,1.709619,-0.06844471,0.06651828,1.723989,0.005792691,-0.4234709,1.685357,-0.1240603,-0.1934717,1.726347,0.3362459,-0.121454,1.574705,NA,NA,NotTracked,Unknown,
0.9277344,-0.3525391,-0.02978516,-0.8642578,0.5634766,0.09570313,1,-2,-3,-2,-2,0,0,-2,-3,-6,-5,-2,-2,1,0,-1,-3.4375,-3.4375,-3.4375,1.1875,1.1875,1.1875,2.366597,3.07621,2.37041,7.222522,6.594313,3.673995,-0.0931851,-0.49615,1.620612,0.1460265,0.1911704,1.586812,0.1133113,0.3350045,1.709763,-0.04281156,-0.49229,1.590981,0.1440622,0.1187315,1.644567,0.1014984,-0.1224136,1.721735,0.09067556,-0.4338889,1.709701,-0.06855099,0.06648296,1.724113,0.005435211,-0.423845,1.685653,-0.1242165,-0.1934994,1.726486,0.3355984,-0.1215454,1.574186,NA,NA,NotTracked,Closed,
0.9321289,-0.3544922,-0.03076172,-0.8691406,0.5454102,0.09716797,0,-2,0,-1,-1,0,-3,0,-1,5,-1,-2,-1,-2,1,-1,-3.0625,-3.0625,-3.0625,1.6875,1.6875,1.6875,2.366316,3.075805,2.367079,7.238077,6.598696,3.687878,-0.09331056,-0.4958455,1.620849,0.1457453,0.1910886,1.587511,0.1132301,0.3349256,1.709802,-0.04278133,-0.4880049,1.592257,0.1412598,0.1241,1.645471,0.1015,-0.1225083,1.721857,0.09055552,-0.4339567,1.709813,-0.06868986,0.06660251,1.724322,0.005355195,-0.4238532,1.685804,-0.1244305,-0.1935291,1.726579,0.3355276,-0.1216517,1.574151,NA,NA,NotTracked,Closed,
0.9326172,-0.3505859,-0.03173828,-0.8579102,0.534668,0.09326172,0,-1,-2,-1,0,-1,-3,-1,-7,-1,-5,-1,-1,1,0,-4,-3.375,-3.375,-3.375,3.5625,3.5625,3.5625,2.365407,3.074866,2.363878,7.245162,6.601197,3.694232,-0.09351597,-0.497936,1.620267,0.1452316,0.1922626,1.588945,0.1131491,0.3346899,1.709859,-0.04422382,-0.4780736,1.593907,0.1430537,0.1248886,1.645547,0.1014927,-0.1226077,1.721983,0.09036186,-0.4340816,1.710014,-0.06869485,0.06661093,1.724334,0.005178822,-0.4239325,1.68608,-0.1245877,-0.1934462,1.726734,0.3354515,-0.1215849,1.574199,NA,NA,NotTracked,Closed,
0.9326172,-0.3413086,-0.03173828,-0.8461914,0.5224609,0.08789063,0,-1,-1,-1,-2,-1,0,-2,4,6,-1,-1,-1,-1,0,-1,-3.875,-3.875,-3.875,6.0625,6.0625,6.0625,2.364111,3.073884,2.360285,7.258663,6.607565,3.703058,-0.09363697,-0.4960628,1.620829,0.1522498,0.1735633,1.591794,0.1131322,0.3345815,1.709848,-0.04306874,-0.4868998,1.592464,0.1506079,0.1065454,1.644789,0.1010336,-0.1230157,1.721784,0.09023532,-0.4341355,1.71009,-0.06880515,0.06661622,1.724418,0.005077737,-0.4239968,1.686204,-0.1247043,-0.1933274,1.726801,0.3349477,-0.1204634,1.574592,NA,NA,NotTracked,Unknown,
0.9306641,-0.3461914,-0.03369141,-0.8544922,0.5375977,0.09667969,-2,-1,0,0,-3,0,0,-2,8,10,5,-1,0,1,0,1,-4.25,-4.25,-4.25,8.875,8.875,8.875,2.363013,3.074051,2.359186,7.270903,6.615241,3.707074,-0.09345841,-0.4962211,1.620318,0.1531046,0.1739989,1.593237,0.1130546,0.3344185,1.709864,-0.04182277,-0.5005343,1.590047,0.151556,0.1052289,1.644839,0.1007867,-0.1234167,1.721648,0.09001509,-0.4343148,1.710222,-0.0688292,0.06662276,1.724409,0.004869535,-0.4241693,1.686392,-0.124781,-0.1931015,1.726739,0.3349607,-0.1207747,1.574418,NA,NA,NotTracked,Unknown,
0.9360352,-0.3378906,-0.02978516,-0.8681641,0.5258789,0.09228516,-1,-1,-1,-2,-1,0,-2,-1,-20,1,1,-1,1,-1,-2,-3,-1.6875,-1.6875,-1.6875,8.4375,8.4375,8.4375,2.363518,3.074123,2.354333,7.286036,6.627128,3.714423,-0.0938603,-0.4963905,1.620637,0.154818,0.1784215,1.591233,0.1130309,0.3343457,1.709836,-0.04202197,-0.4933177,1.591324,0.1533549,0.1130483,1.645427,0.1006925,-0.1235186,1.721495,0.08998641,-0.4343319,1.710262,-0.0689093,0.06666085,1.724392,0.004864464,-0.4242001,1.686465,-0.1249311,-0.192963,1.726686,0.3347004,-0.1205896,1.574458,NA,NA,NotTracked,Closed,
0.9389648,-0.3374023,-0.03271484,-0.8862305,0.5185547,0.07470703,0,-2,-1,0,-1,-3,-1,-3,1,-1,-3,0,1,0,0,2,-2.875,-2.875,-2.875,10.375,10.375,10.375,2.36256,3.073436,2.353367,7.307961,6.64333,3.727859,-0.09498298,-0.4976395,1.619355,0.1577637,0.1768462,1.598479,0.1128331,0.3339709,1.709689,-0.04612044,-0.4738779,1.5942,0.1546532,0.1092865,1.646697,0.1007294,-0.1235007,1.721519,0.08971793,-0.4343211,1.710384,-0.06897028,0.0666741,1.724269,0.004668224,-0.4241815,1.686582,-0.1252562,-0.1929707,1.726476,0.3343222,-0.1198099,1.573534,NA,NA,NotTracked,Closed,
0.9379883,-0.3447266,-0.02978516,-0.8808594,0.5146484,0.06103516,-2,-3,-1,-2,-1,-2,0,-1,-4,-7,-2,-3,0,0,-2,-1,-3.375,-3.375,-3.375,9.75,9.75,9.75,2.36062,3.072752,2.351414,7.33307,6.660178,3.744583,-0.09411994,-0.4979814,1.620642,0.1602741,0.1762834,1.601846,0.1128057,0.3338784,1.709642,-0.0442067,-0.4962871,1.592701,0.1577921,0.1097703,1.649016,0.1008503,-0.1233238,1.721756,0.08962781,-0.4342811,1.710452,-0.06902133,0.06661484,1.724298,0.004588035,-0.424143,1.686655,-0.1255226,-0.1929778,1.726435,0.3342175,-0.1195469,1.573331,NA,NA,NotTracked,Closed,
0.9379883,-0.3452148,-0.03369141,-0.8735352,0.4824219,0.05078125,-2,-2,0,-1,-3,-1,0,1,0,0,-1,-3,-2,-1,-1,-2,-3.125,-3.125,-3.125,7.9375,7.9375,7.9375,2.357557,3.071808,2.350642,7.356659,6.677612,3.761389,-0.09431415,-0.497903,1.619476,0.1615717,0.1747877,1.604042,0.1126329,0.3334118,1.709598,-0.04410732,-0.4931993,1.59115,0.1545162,0.1105553,1.64777,0.1009625,-0.123192,1.721911,0.0895991,-0.4342643,1.710478,-0.06899902,0.06663425,1.724194,0.004553411,-0.4241086,1.686685,-0.1256891,-0.1927934,1.726325,0.3344723,-0.1192232,1.572445,NA,NA,NotTracked,NotTracked,
0.934082,-0.3491211,-0.02978516,-0.8500977,0.4760742,0.05908203,0,1,0,1,-2,1,-2,0,-3,0,-2,2,1,2,3,-1,-1.0625,-1.0625,-1.0625,10.875,10.875,10.875,2.356283,3.072151,2.350905,7.379809,6.692573,3.774957,-0.09481134,-0.4978301,1.618589,0.1574993,0.1853207,1.608833,0.1125795,0.3332298,1.709601,-0.04005937,-0.5284333,1.588444,0.1439011,0.125272,1.652523,0.1010401,-0.1229929,1.722061,0.08941653,-0.4341257,1.710535,-0.06892578,0.06668665,1.723983,0.004395212,-0.4239624,1.686749,-0.1260793,-0.1923643,1.72606,0.3342214,-0.1186601,1.571423,NA,NA,NotTracked,NotTracked,
0.9350586,-0.3413086,-0.02734375,-0.8920898,0.4438477,0.03173828,-2,-3,-1,-1,1,0,-3,-2,1,-3,0,-5,-2,0,-2,0,-0.8125,-0.8125,-0.8125,2.1875,2.1875,2.1875,2.354932,3.071662,2.350323,7.395765,6.706621,3.788934,-0.09453058,-0.4964707,1.618735,0.160743,0.1903469,1.605845,0.1123211,0.3330609,1.709568,-0.04442586,-0.4887562,1.59189,0.1487121,0.1326267,1.65421,0.1011874,-0.1227489,1.722174,0.08935966,-0.4340707,1.710527,-0.06882456,0.06652094,1.723762,0.004326078,-0.4238495,1.686714,-0.1261864,-0.1922144,1.72599,0.3343341,-0.1182659,1.57088,NA,NA,NotTracked,NotTracked,
0.9350586,-0.3413086,-0.02734375,-0.8920898,0.4438477,0.03173828,-2,-3,-1,-1,1,0,-3,-2,2,1,-1,1,-3,-1,3,1,-0.8125,-0.8125,-0.8125,2.1875,2.1875,2.1875,2.354932,3.071662,2.350323,7.395765,6.706621,3.788934,-0.09427279,-0.4955204,1.618702,0.1640887,0.1948146,1.600518,0.1122848,0.3330203,1.70957,-0.04448206,-0.4889195,1.59146,0.1448306,0.1538668,1.652341,0.1012842,-0.1225008,1.722292,0.08926987,-0.4339738,1.710539,-0.06879914,0.06654546,1.723696,0.004220482,-0.4237408,1.686707,-0.1262435,-0.1921836,1.725891,0.3343443,-0.1179566,1.570449,NA,NA,NotTracked,NotTracked,
0.9350586,-0.3432617,-0.02783203,-0.8881836,0.4770508,0.04589844,0,0,0,-1,-3,-4,0,0,-6,-2,-4,-3,1,1,-3,-2,0.125,0.125,0.125,7.0625,7.0625,7.0625,2.356784,3.073228,2.349881,7.405184,6.709539,3.791405,-0.09440259,-0.4962768,1.619009,0.165453,0.1810295,1.608087,0.1121616,0.3329319,1.70952,-0.0434467,-0.4979376,1.591118,0.1560136,0.1180272,1.653851,0.1014089,-0.1222575,1.722469,0.08909193,-0.4337785,1.710635,-0.06876881,0.06655409,1.723635,0.004046693,-0.4235035,1.686816,-0.126475,-0.1917349,1.725796,0.3344654,-0.1175856,1.570054,NA,NA,NotTracked,NotTracked,
0.9345703,-0.347168,-0.02880859,-0.8676758,0.4633789,0.02880859,-1,0,1,0,-1,-1,0,0,2,-1,3,1,0,-2,0,0,-0.5625,-0.5625,-0.5625,-2.0625,-2.0625,-2.0625,2.356759,3.072741,2.349087,7.400343,6.707737,3.786158,-0.09465902,-0.4979372,1.618264,0.1661476,0.1830181,1.605649,0.111923,0.3328817,1.709496,-0.04375774,-0.4935961,1.591089,0.1568965,0.1211485,1.653394,0.1015498,-0.1221107,1.722556,0.08905153,-0.4337127,1.710644,-0.06876148,0.0665451,1.723584,0.004006153,-0.4234247,1.686809,-0.1266948,-0.1916075,1.725734,0.3343952,-0.1172589,1.56964,NA,NA,NotTracked,NotTracked,
0.9316406,-0.3388672,-0.03466797,-0.8701172,0.503418,0.06054688,-2,-2,-1,-1,-1,0,-2,0,2,0,-2,-2,0,-1,-1,1,1.4375,1.4375,1.4375,0.4375,0.4375,0.4375,2.358081,3.073303,2.348883,7.393072,6.703193,3.778664,-0.09428758,-0.497566,1.618041,0.1671246,0.1786184,1.606185,0.1118718,0.3328258,1.709501,-0.04351965,-0.4971193,1.590996,0.1572961,0.1169537,1.652327,0.1016194,-0.1219563,1.722615,0.08893302,-0.4335967,1.710631,-0.06876328,0.06656042,1.723574,0.003885239,-0.4232698,1.686769,-0.126785,-0.1914401,1.725616,0.3343725,-0.116958,1.569277,NA,NA,NotTracked,NotTracked,
0.9375,-0.3427734,-0.03076172,-0.8955078,0.4765625,0.04296875,-2,-2,0,-1,-1,-1,-1,0,-3,-3,0,-3,-1,-1,0,-2,2.5,2.5,2.5,-7.0625,-7.0625,-7.0625,2.362419,3.074389,2.347116,7.387615,6.703914,3.781778,-0.09458514,-0.4958455,1.617929,0.1666707,0.1912925,1.598917,0.1116395,0.3326768,1.709513,-0.04373939,-0.496129,1.590938,0.1550714,0.1403995,1.652833,0.1017135,-0.1218124,1.722641,0.08889177,-0.4334779,1.710594,-0.068772,0.06655943,1.723526,0.00386104,-0.4231617,1.686741,-0.1269176,-0.1913405,1.725513,0.3345486,-0.1164899,1.568633,NA,NA,NotTracked,NotTracked,
0.9389648,-0.3369141,-0.03271484,-0.9091797,0.4892578,0.04052734,0,0,-1,0,-2,-1,-2,0,-5,-1,0,-2,-2,-2,0,-2,4.0625,4.0625,4.0625,-4.4375,-4.4375,-4.4375,2.366973,3.07491,2.347093,7.38536,6.705304,3.785141,-0.09415532,-0.4954646,1.617921,0.1680419,0.1846976,1.59981,0.1115788,0.3325501,1.70944,-0.04433166,-0.4884516,1.590548,0.1499069,0.1409147,1.652596,0.1017602,-0.1217279,1.722669,0.08885657,-0.4334403,1.710569,-0.06874461,0.06654521,1.723403,0.003817555,-0.4231146,1.686698,-0.1270739,-0.1911652,1.725316,0.3345065,-0.1161979,1.568165,NA,NA,NotTracked,NotTracked,
0.9389648,-0.3369141,-0.03271484,-0.9091797,0.4892578,0.04052734,0,0,-1,0,-2,-1,-2,0,-5,-1,0,-2,-2,-2,0,-2,4.0625,4.0625,4.0625,-4.4375,-4.4375,-4.4375,2.366973,3.07491,2.347093,7.38536,6.705304,3.785141,-0.0941416,-0.4956533,1.619065,0.1645544,0.1843105,1.605029,0.111401,0.3326057,1.709481,-0.04354892,-0.4961102,1.590915,0.155926,0.1255659,1.653112,0.1018422,-0.121623,1.722742,0.08883465,-0.4333657,1.710579,-0.06875394,0.06654971,1.723397,0.003802977,-0.4230508,1.686696,-0.127154,-0.1910672,1.725297,0.3345876,-0.1159271,1.567914,NA,NA,NotTracked,NotTracked,
0.9345703,-0.3388672,-0.03417969,-0.8867188,0.4912109,0.02929688,-1,-1,-3,0,-1,-2,-2,-1,0,3,3,0,-1,0,-2,-1,2.4375,2.4375,2.4375,-1.9375,-1.9375,-1.9375,2.368012,3.073753,2.348109,7.38823,6.707136,3.793581,-0.09417166,-0.4958654,1.618048,0.1743141,0.1791777,1.593755,0.1111991,0.3325959,1.709491,-0.04349062,-0.4965206,1.590455,0.1622916,0.1383635,1.6415,0.1019833,-0.1214792,1.722762,0.08887013,-0.4333086,1.710552,-0.06870764,0.06652498,1.723346,0.003837172,-0.423016,1.686679,-0.1271436,-0.1908614,1.725274,0.3343763,-0.1156276,1.567463,NA,NA,NotTracked,Unknown,
0.9311523,-0.3476563,-0.03271484,-0.8793945,0.4882813,0.03369141,-1,-3,-2,-1,1,0,1,-1,-4,0,0,-4,-2,-1,-2,0,1.5625,1.5625,1.5625,-2.3125,-2.3125,-2.3125,2.368376,3.073043,2.349977,7.388847,6.707018,3.796087,-0.09432151,-0.4954497,1.618193,0.1750899,0.1783572,1.593489,0.1111102,0.3324808,1.709385,-0.04420028,-0.4907522,1.591755,0.160422,0.1336009,1.649316,0.1019819,-0.1211541,1.722379,0.08886046,-0.433225,1.710524,-0.0686913,0.06653976,1.723241,0.003843397,-0.4229796,1.686648,-0.1272396,-0.1908322,1.725258,0.3338898,-0.113299,1.568599,NA,NA,NotTracked,Unknown,
0.934082,-0.3574219,-0.03027344,-0.8735352,0.4853516,0.04638672,0,-1,0,-1,-1,-1,-3,-1,37,8,3,4,3,-1,0,2,1.6875,1.6875,1.6875,-1.25,-1.25,-1.25,2.368415,3.072506,2.351538,7.387405,6.705315,3.796667,-0.09405399,-0.4958403,1.61904,0.1757581,0.1776149,1.594104,0.1110546,0.3324423,1.709394,-0.04390702,-0.4961175,1.59113,0.1595036,0.1363366,1.648565,0.1020343,-0.121081,1.722446,0.08884012,-0.433141,1.71054,-0.06866166,0.06654712,1.723205,0.003835616,-0.4228881,1.68667,-0.127252,-0.1908427,1.725222,0.3337891,-0.1133337,1.568101,NA,NA,NotTracked,Unknown,
0.9355469,-0.3564453,-0.03027344,-0.8740234,0.4858398,0.04492188,-1,-3,-1,0,0,-1,-1,-1,0,6,2,-2,-1,0,-1,2,2.1875,2.1875,2.1875,-1.25,-1.25,-1.25,2.368687,3.072459,2.352576,7.383347,6.701894,3.793903,-0.09416751,-0.4953595,1.61841,0.1685598,0.1926219,1.598747,0.1108467,0.332502,1.709346,-0.04340792,-0.4952521,1.590755,0.1486946,0.1544425,1.650807,0.1021205,-0.1209932,1.722455,0.08884378,-0.4330905,1.710504,-0.06867038,0.06656542,1.723173,0.003858909,-0.4228259,1.68658,-0.1272446,-0.190931,1.725098,0.3337963,-0.1134368,1.567778,NA,NA,NotTracked,Unknown,
0.934082,-0.3530273,-0.03076172,-0.878418,0.4790039,0.04833984,-1,1,1,-1,0,-3,-1,-1,-2,10,6,2,1,0,-2,-1,1.875,1.875,1.875,-2.375,-2.375,-2.375,2.369595,3.073093,2.355021,7.375537,6.699228,3.787278,-0.09396242,-0.4955101,1.618883,0.1666549,0.1822992,1.606452,0.1108177,0.3323002,1.709237,-0.04370216,-0.4952651,1.591042,0.1582083,0.1162995,1.650509,0.1022247,-0.1208901,1.722499,0.08886895,-0.4330345,1.710498,-0.06867388,0.06655599,1.723171,0.003883892,-0.4227566,1.686579,-0.1272597,-0.1909751,1.725059,0.3339463,-0.1132343,1.567011,NA,NA,NotTracked,NotTracked,
0.934082,-0.3530273,-0.03076172,-0.878418,0.4790039,0.04833984,-1,1,1,-1,0,-3,-1,-1,-2,10,6,2,1,0,-2,-1,1.875,1.875,1.875,-2.375,-2.375,-2.375,2.369595,3.073093,2.355021,7.375537,6.699228,3.787278,-0.09381845,-0.4961076,1.619343,0.1663462,0.1813389,1.606307,0.1107479,0.3322407,1.709213,-0.04339854,-0.4940761,1.591361,0.1580962,0.1171583,1.651244,0.1022481,-0.1208718,1.722529,0.08885584,-0.4330224,1.710495,-0.06867666,0.06654953,1.723145,0.003875162,-0.4227456,1.686572,-0.1272557,-0.1909368,1.725055,0.333964,-0.1132783,1.566666,NA,NA,NotTracked,NotTracked,
0.9311523,-0.3500977,-0.03417969,-0.8735352,0.4736328,0.04736328,-1,-1,0,-2,-2,1,0,-3,-6,2,-4,-2,-2,0,1,-1,1.1875,1.1875,1.1875,-2.125,-2.125,-2.125,2.368153,3.072752,2.358179,7.360199,6.695908,3.77264,-0.09385646,-0.4957432,1.62018,0.1757109,0.1562876,1.607505,0.1105522,0.3323978,1.709208,-0.04362619,-0.4952308,1.591184,0.1497547,0.09889264,1.644394,0.1023218,-0.1207795,1.722577,0.0888515,-0.4329839,1.710503,-0.06861297,0.06654626,1.723103,0.003870054,-0.4227088,1.686558,-0.1273086,-0.1906235,1.725046,0.3339671,-0.113295,1.566544,NA,NA,NotTracked,NotTracked,
0.9306641,-0.3481445,-0.03076172,-0.862793,0.4804688,0.05664063,-1,1,-1,0,-1,0,0,-1,-2,-13,-5,0,-1,-1,-1,-2,0,0,0,0.1875,0.1875,0.1875,2.368153,3.072752,2.358179,7.334084,6.688943,3.74317,-0.09402996,-0.4960452,1.618766,0.1357098,0.2407696,1.613859,0.110261,0.33231,1.708885,-0.04385191,-0.4895445,1.591337,0.1115535,0.1810132,1.654941,0.1022197,-0.1206076,1.722288,0.08882245,-0.432922,1.710493,-0.06859434,0.06653769,1.723019,0.003853071,-0.4226525,1.686574,-0.1272666,-0.1907162,1.725041,0.3339542,-0.1125811,1.56692,NA,NA,NotTracked,NotTracked,
0.934082,-0.3476563,-0.02636719,-0.8442383,0.4765625,0.06152344,0,0,-1,-1,-2,-1,0,-2,-6,-6,2,0,0,-1,0,-1,-0.5625,-0.5625,-0.5625,0.75,0.75,0.75,2.368153,3.072752,2.358179,7.297143,6.679299,3.699992,-0.09391759,-0.4956104,1.61959,0.1687408,0.170202,1.603344,0.1099751,0.332531,1.708782,-0.04370453,-0.4945,1.591047,0.1593301,0.1096209,1.647644,0.1021949,-0.1202677,1.721929,0.08880883,-0.4328286,1.710486,-0.06858952,0.06654002,1.723,0.003858684,-0.4225966,1.686575,-0.127299,-0.1907127,1.725038,0.3339282,-0.1119597,1.567303,NA,NA,NotTracked,NotTracked,
0.9345703,-0.3540039,-0.03125,-0.8120117,0.4741211,0.07080078,0,-2,-1,-2,-1,-3,-2,-1,-11,-4,-2,-2,-1,-2,0,-3,-1.75,-1.75,-1.75,-0.0625,-0.0625,-0.0625,2.367792,3.072496,2.357044,7.242864,6.661153,3.636621,-0.09398757,-0.496022,1.619964,0.1608645,0.1905933,1.598917,0.1097693,0.3322612,1.708696,-0.04372662,-0.4868973,1.591486,0.1540047,0.1289804,1.650189,0.1022269,-0.1202194,1.721985,0.08877458,-0.4327738,1.71052,-0.06859957,0.06657603,1.722971,0.003826486,-0.4225321,1.686597,-0.127336,-0.1906082,1.724985,0.3340349,-0.112442,1.566713,NA,NA,NotTracked,NotTracked,
0.9360352,-0.3500977,-0.02294922,-0.8383789,0.4833984,0.109375,0,1,0,-1,-1,-2,1,0,2,-6,-1,-1,0,-1,0,-2,-1.125,-1.125,-1.125,6.1875,6.1875,6.1875,2.368885,3.072262,2.355062,7.167919,6.630061,3.54497,-0.09421305,-0.4959771,1.619701,0.1637202,0.1906402,1.593764,0.109705,0.332237,1.708632,-0.04371727,-0.4933285,1.591154,0.1578022,0.132119,1.64917,0.1022496,-0.1202102,1.722016,0.08877677,-0.4327709,1.710519,-0.06857813,0.066588,1.722804,0.003833564,-0.4225277,1.686592,-0.1274017,-0.1905329,1.724877,0.334274,-0.1126875,1.566519,NA,NA,NotTracked,Unknown,
0.9360352,-0.3500977,-0.02294922,-0.8383789,0.4833984,0.109375,0,1,0,-1,-1,-2,1,0,2,-6,-1,-1,0,-1,0,-2,-1.125,-1.125,-1.125,6.1875,6.1875,6.1875,2.368885,3.072262,2.355062,7.167919,6.630061,3.54497,-0.09411471,-0.4956772,1.618545,0.1693214,0.184246,1.583282,0.1096451,0.3323269,1.708528,-0.04401742,-0.4904163,1.591209,0.1603642,0.124678,1.646088,0.1020958,-0.1199511,1.721604,0.08877776,-0.4327658,1.710508,-0.06855983,0.06647521,1.722631,0.003843102,-0.4225373,1.68657,-0.1273916,-0.1905393,1.724857,0.334473,-0.112591,1.567116,NA,NA,NotTracked,Unknown,
0.9365234,-0.3432617,-0.02734375,-0.7797852,0.5039063,0.137207,-1,-1,-1,-1,-2,-1,0,0,2,3,-3,1,-2,-1,-1,-3,0.375,0.375,0.375,5.875,5.875,5.875,2.369027,3.072122,2.355198,7.084738,6.584665,3.436757,-0.09389362,-0.4960195,1.618443,0.1811634,0.1449224,1.585359,0.1091274,0.3329513,1.708087,-0.04328676,-0.4962481,1.590207,0.1578267,0.09781723,1.639065,0.1019659,-0.1197654,1.721206,0.0887851,-0.4327504,1.710493,-0.06865434,0.06646556,1.722555,0.003849456,-0.4225366,1.686563,-0.1274441,-0.1904344,1.724667,0.3347708,-0.1128077,1.568138,NA,NA,NotTracked,Unknown,
0.9287109,-0.3344727,-0.02392578,-0.6982422,0.5097656,0.1557617,-1,-2,1,-1,0,-1,-1,-2,-2,-3,1,0,1,1,3,0,1.25,1.25,1.25,8.9375,8.9375,8.9375,2.371717,3.071447,2.353265,6.99611,6.522479,3.319304,-0.093814,-0.4960935,1.618031,0.1805261,0.1432499,1.572687,0.1090624,0.3329269,1.707961,-0.0427717,-0.4973485,1.589489,0.1629861,0.09345859,1.63577,0.1014885,-0.1194529,1.720647,0.08876359,-0.4327271,1.710459,-0.06874355,0.06651207,1.722302,0.003838456,-0.4225232,1.686522,-0.1274733,-0.1903536,1.724507,0.3347346,-0.1135522,1.570061,NA,NA,NotTracked,Unknown,
0.9335938,-0.3422852,-0.03466797,-0.7348633,0.5478516,0.190918,-2,-4,-1,-1,-1,0,0,-1,-2,0,0,-1,-1,-1,3,1,2.4375,2.4375,2.4375,6,6,6,2.374847,3.071005,2.351772,6.907541,6.434875,3.197059,-0.09362505,-0.4954024,1.617838,0.1814568,0.1311307,1.563123,0.10831,0.3337689,1.707912,-0.04327424,-0.4960218,1.590278,0.1626683,0.0814089,1.628619,0.1012548,-0.1194296,1.720295,0.08876346,-0.4327301,1.710459,-0.06884342,0.06651779,1.722082,0.00384644,-0.4225408,1.686537,-0.127534,-0.1905437,1.724323,0.3357964,-0.1155456,1.574606,NA,NA,NotTracked,Unknown,
0.9453125,-0.3330078,-0.03222656,-0.6318359,0.53125,0.2172852,-1,-1,-1,0,-2,-2,-2,0,1,-4,-3,0,0,1,-1,-8,4.3125,4.3125,4.3125,5.5625,5.5625,5.5625,2.37878,3.070875,2.352602,6.822456,6.314828,3.077833,-0.09355638,-0.4964196,1.617462,0.1783275,0.1299452,1.543271,0.1078566,0.3346593,1.70787,-0.04301727,-0.496016,1.590093,0.1729209,0.07731146,1.623001,0.1007355,-0.1195432,1.719752,0.08871449,-0.4327394,1.710429,-0.06915502,0.06657668,1.721915,0.003812082,-0.4225506,1.68653,-0.1275555,-0.1906074,1.724267,0.3367224,-0.1192104,1.578672,NA,NA,NotTracked,Unknown,
0.9301758,-0.3364258,-0.03222656,-0.6118164,0.5805664,0.3325195,0,-2,-2,0,0,-3,-1,1,0,-1,-1,0,-2,-1,-6,1,5.25,5.25,5.25,11.4375,11.4375,11.4375,2.383375,3.070027,2.353319,6.75454,6.159461,2.965161,-0.09348957,-0.4958563,1.617772,0.1741377,0.1035414,1.506811,0.1074236,0.3351353,1.707917,-0.04316997,-0.4962464,1.589927,0.1644533,0.06243273,1.60819,0.09949383,-0.1199956,1.719408,0.08865411,-0.4329298,1.710298,-0.07007945,0.06662056,1.721939,0.003748487,-0.4227152,1.686466,-0.1277062,-0.1913667,1.724046,0.3411112,-0.1280199,1.591684,NA,NA,NotTracked,Closed,
0.9404297,-0.3417969,-0.03320313,-0.5908203,0.5908203,0.3198242,-2,0,-1,0,2,-2,-3,-1,1,-2,-2,0,-1,0,-5,-2,5.25,5.25,5.25,10,10,10,2.38557,3.069326,2.357013,6.703492,5.980336,2.864933,-0.09337912,-0.4958695,1.617615,0.17745,0.07671994,1.488151,0.107379,0.3352003,1.707887,-0.04268248,-0.5017132,1.588895,0.1716356,0.04326645,1.585889,0.09915397,-0.1200825,1.719618,0.08865542,-0.4329495,1.710246,-0.07066312,0.06661749,1.721846,0.003769582,-0.4227543,1.686324,-0.1277114,-0.1913776,1.724021,0.3440128,-0.1336794,1.606799,NA,NA,NotTracked,Closed,
0.9291992,-0.3413086,-0.04394531,-0.3544922,0.6308594,0.4125977,0,0,-2,-1,1,1,0,2,1,-7,-4,0,-1,0,0,0,4.9375,4.9375,4.9375,14.9375,14.9375,14.9375,2.38437,3.067989,2.364254,6.672745,5.771659,2.778966,-0.09372779,-0.4956012,1.618304,0.1769821,0.05166136,1.467714,0.1074019,0.3352152,1.707825,-0.04323782,-0.4955812,1.590231,0.1508199,0.04971849,1.564625,0.09902231,-0.1201235,1.719992,0.08866386,-0.4329291,1.710206,-0.07133565,0.0666215,1.722101,0.003841436,-0.4227543,1.686037,-0.1275973,-0.1918517,1.72411,0.3453574,-0.1344592,1.613684,NA,NA,NotTracked,Closed,
0.9257813,-0.3603516,-0.01269531,-0.2817383,0.6967773,0.449707,1,-2,1,0,-2,-2,-3,-1,-2,-4,-1,1,1,-2,0,-3,2,2,2,1.3125,1.3125,1.3125,2.384849,3.066552,2.366244,6.640078,5.416632,2.671236,-0.0936305,-0.495759,1.617638,0.177984,0.01925923,1.448123,0.107526,0.335287,1.707694,-0.04242473,-0.5013183,1.587706,0.1431787,0.02539879,1.4855,0.09903492,-0.120047,1.720118,0.08886113,-0.4326665,1.710008,-0.07156768,0.06668997,1.722028,0.004280891,-0.4223254,1.685054,-0.1276814,-0.192024,1.724038,0.3470059,-0.1359166,1.617472,NA,NA,NotTracked,Closed,
0.9521484,-0.3579102,-0.02294922,-0.2011719,0.6855469,0.4746094,-2,-1,-3,-1,-2,-3,0,-3,-1,-1,1,-2,0,0,-2,0,0.125,0.125,0.125,7.8125,7.8125,7.8125,2.380026,3.065456,2.372259,6.637794,5.287429,2.642908,-0.09425496,-0.4958051,1.618468,0.1785862,-0.01597603,1.424515,0.1076461,0.335352,1.707575,-0.04346783,-0.4897496,1.589053,0.138442,-0.02067105,1.444786,0.09902742,-0.1199019,1.72027,0.08908325,-0.4320084,1.709924,-0.071713,0.0667147,1.721911,0.004849266,-0.4214632,1.68412,-0.1277562,-0.1922278,1.723966,0.349413,-0.1368873,1.625812,NA,NA,NotTracked,Closed,
0.9428711,-0.3549805,-0.02099609,-0.09570313,0.7626953,0.387207,-2,-1,1,-1,-1,1,-1,0,-2,-2,1,-2,-2,-1,0,-1,0.75,0.75,0.75,12.4375,12.4375,12.4375,2.378901,3.065675,2.374241,6.644816,5.005599,2.593787,-0.09434888,-0.4960357,1.619486,0.1899644,-0.1108258,1.39859,0.1079053,0.3353809,1.707249,-0.04354044,-0.4962231,1.589447,0.1515204,-0.1219376,1.400286,0.09885991,-0.1194682,1.720628,0.08940356,-0.4304529,1.709578,-0.0718126,0.06667954,1.721601,0.005537611,-0.4198738,1.682593,-0.1279242,-0.1929532,1.724063,0.4023348,-0.1735805,1.653902,NA,NA,NotTracked,Closed,
0.9287109,-0.3442383,-0.01904297,0.1342773,0.8105469,0.4951172,-2,1,-2,0,-2,1,0,-1,1,-1,0,-2,-1,0,2,4,0.0625,0.0625,0.0625,30.375,30.375,30.375,2.384083,3.066184,2.372444,6.684566,4.714561,2.539073,-0.09444386,-0.4956973,1.618609,0.2018126,-0.1655569,1.396473,0.1079724,0.3354081,1.707181,-0.04379585,-0.4961961,1.589351,0.1573156,-0.181252,1.396667,0.09887923,-0.1192706,1.720778,0.08955325,-0.4301136,1.709521,-0.07189135,0.06669254,1.72146,0.00574485,-0.4195036,1.682066,-0.1280255,-0.1931635,1.724055,0.4048565,-0.1650578,1.65662,NA,NA,NotTracked,Closed,
0.9360352,-0.3554688,-0.02246094,0.3891602,0.8452148,0.4697266,-1,-1,-1,2,0,-1,0,0,-4,-1,2,1,0,-2,-2,-1,-3.9375,-3.9375,-3.9375,10.5625,10.5625,10.5625,2.382554,3.065517,2.370126,6.719437,4.437263,2.477905,-0.09445442,-0.4954754,1.61791,0.2078098,-0.2200686,1.393802,0.1080816,0.335384,1.707072,-0.04371065,-0.4957471,1.588865,0.1756128,-0.2445597,1.390625,0.09886471,-0.1192542,1.720782,0.08953937,-0.4300044,1.70945,-0.07204688,0.06670109,1.721065,0.00582215,-0.4193277,1.681389,-0.1280471,-0.1931506,1.724025,0.3972235,-0.1543874,1.663592,NA,NA,NotTracked,Closed,
0.9384766,-0.3583984,-0.02783203,0.6005859,0.7973633,0.440918,1,0,-1,-2,0,-1,2,-2,-1,-1,8,1,-2,-2,0,-3,-3.875,-3.875,-3.875,2.125,2.125,2.125,2.382354,3.065949,2.36838,6.748534,4.180008,2.415804,-0.09476596,-0.4966096,1.616976,0.221949,-0.2719589,1.408769,0.1081565,0.335458,1.706972,-0.04423325,-0.492039,1.58903,0.2338284,-0.3113929,1.39575,0.09870667,-0.1191356,1.720731,0.08935209,-0.4296632,1.708979,-0.07221917,0.06667006,1.720725,0.005644054,-0.4188796,1.679895,-0.128231,-0.1935588,1.723825,0.3933296,-0.1512693,1.668107,NA,NA,NotTracked,Closed,
0.9345703,-0.34375,-0.02197266,0.762207,0.7890625,0.4116211,-1,0,1,-1,-2,0,-3,-2,0,-6,-3,-3,-2,-1,0,2,-2.25,-2.25,-2.25,-12.5,-12.5,-12.5,2.388016,3.067047,2.358565,6.776632,3.944931,2.338905,-0.0945382,-0.4963758,1.61659,0.2343053,-0.3210808,1.424716,0.1082583,0.3354614,1.706745,-0.04370784,-0.4943046,1.589343,0.2590372,-0.3562916,1.412905,0.0986862,-0.1191148,1.720735,0.0891458,-0.4295771,1.70874,-0.07243976,0.0665992,1.720267,0.005257735,-0.4186106,1.679018,-0.1284275,-0.1939379,1.723414,0.3892668,-0.1510739,1.671632,NA,NA,NotTracked,Closed,
0.9516602,-0.3378906,-0.02636719,0.9169922,0.7280273,0.3696289,-1,0,-1,-2,-2,0,2,-2,0,2,1,-2,0,0,0,-1,0.0625,0.0625,0.0625,-5.1875,-5.1875,-5.1875,2.387268,3.068372,2.357896,6.820817,3.728836,2.258253,-0.09481012,-0.4959424,1.615323,0.2580557,-0.3956543,1.476144,0.1083791,0.3354516,1.706482,-0.04420878,-0.4918946,1.588739,0.2169942,-0.4337168,1.463956,0.09832184,-0.1191481,1.720614,0.08905301,-0.4296182,1.708243,-0.0728621,0.06650782,1.719419,0.005079102,-0.4186091,1.677546,-0.1288401,-0.1942196,1.722435,0.3332916,-0.1579753,1.6948,NA,NA,NotTracked,Closed,
0.9570313,-0.3413086,-0.01660156,0.9819336,0.6660156,0.2612305,-1,-2,-1,0,-1,-3,-1,0,-1,3,3,-2,-1,-2,-3,0,2.75,2.75,2.75,9.8125,9.8125,9.8125,2.390906,3.069488,2.356174,6.899655,3.530241,2.166144,-0.09514052,-0.4975887,1.613738,0.2731475,-0.4236807,1.486136,0.1085182,0.3354698,1.706105,-0.04432317,-0.4896151,1.588183,0.2320254,-0.4202652,1.472393,0.09832091,-0.1191498,1.720593,0.08924804,-0.4295928,1.708116,-0.0728786,0.06651741,1.718881,0.005375997,-0.4185593,1.677069,-0.128856,-0.194339,1.722184,0.3322651,-0.162379,1.69402,NA,NA,NotTracked,Closed,
0.9316406,-0.3168945,-0.03466797,1.025879,0.5820313,0.215332,0,-1,-1,-1,-2,-1,-1,-1,0,7,9,1,0,-2,-2,1,3.4375,3.4375,3.4375,6.5625,6.5625,6.5625,2.397343,3.071171,2.356567,6.983972,3.36196,2.07271,-0.09462003,-0.4972947,1.613323,0.2827474,-0.4478435,1.508158,0.1085959,0.335559,1.705859,-0.04402336,-0.5036628,1.585544,0.2479378,-0.440703,1.492046,0.09838675,-0.119179,1.720518,0.09010789,-0.4298185,1.707827,-0.07301433,0.06653763,1.718431,0.006383745,-0.4188788,1.67627,-0.1288525,-0.1945123,1.722041,0.331702,-0.168133,1.692383,NA,NA,NotTracked,Closed,
0.925293,-0.3320313,-0.0234375,1.03125,0.5224609,0.1572266,0,-1,0,0,1,-2,-2,-2,-1,3,0,-1,-1,-1,-2,-2,3.4375,3.4375,3.4375,6.1875,6.1875,6.1875,2.396239,3.071023,2.361599,7.081875,3.232659,1.970087,-0.09446117,-0.4969964,1.612797,0.2896828,-0.4716474,1.528799,0.1087276,0.3356247,1.705501,-0.04392254,-0.4956104,1.587799,0.2570263,-0.4605666,1.514302,0.09862822,-0.1192261,1.720446,0.09148309,-0.4299919,1.707549,-0.07310855,0.06647702,1.718063,0.007875367,-0.4192797,1.675737,-0.1288497,-0.1945236,1.721863,0.3314298,-0.1735117,1.691676,NA,NA,NotTracked,Unknown,
0.9365234,-0.331543,-0.03222656,1.031738,0.4501953,0.1152344,0,-2,-2,-1,-2,-1,-2,0,0,0,-1,0,0,-1,-2,-1,4.5,4.5,4.5,10.0625,10.0625,10.0625,2.395272,3.070593,2.365229,7.174665,3.139836,1.876883,-0.09433012,-0.4969597,1.613099,0.2962641,-0.4862208,1.552078,0.108818,0.3355969,1.705376,-0.0438961,-0.4958375,1.588133,0.2595712,-0.4828591,1.5399,0.09899237,-0.1192822,1.720297,0.09278629,-0.4301819,1.707233,-0.07328047,0.06646457,1.717943,0.009227812,-0.4196356,1.67504,-0.1287901,-0.1949677,1.721447,0.3310693,-0.1793286,1.691509,NA,NA,NotTracked,Unknown,
0.9360352,-0.3300781,-0.02734375,1.003418,0.4472656,0.04833984,0,-2,-3,-1,-2,-2,0,-2,-1,-2,-2,-1,0,-1,-1,-2,4.875,4.875,4.875,7.9375,7.9375,7.9375,2.389683,3.067288,2.378841,7.25027,3.079061,1.807102,-0.09513149,-0.4974053,1.61371,0.2989127,-0.5005619,1.590321,0.1090516,0.3353807,1.704521,-0.04433166,-0.5013672,1.584852,0.2472572,-0.4656709,1.595,0.09959539,-0.119565,1.71996,0.09430616,-0.4308286,1.70671,-0.07340236,0.06632262,1.717585,0.01083682,-0.4204206,1.674113,-0.1286188,-0.1952209,1.720912,0.3309368,-0.1851756,1.693338,NA,NA,NotTracked,Unknown,
0.9316406,-0.34375,-0.0234375,0.9628906,0.4008789,0.02099609,0,-1,0,-2,-2,1,-2,-2,-1,0,-1,-1,-2,-1,-3,0,5.1875,5.1875,5.1875,6.8125,6.8125,6.8125,2.385483,3.065151,2.388591,7.275554,3.049244,1.789592,-0.09485745,-0.4975668,1.614276,0.2997406,-0.5005143,1.601835,0.1092003,0.3355056,1.704201,-0.04394893,-0.4941005,1.586967,0.2423093,-0.464154,1.5895,0.0999848,-0.1195734,1.719854,0.09512048,-0.4308361,1.706574,-0.07338059,0.06634228,1.717469,0.01165333,-0.4205638,1.673938,-0.1283817,-0.1954762,1.72092,0.3311939,-0.1871105,1.695067,NA,NA,NotTracked,NotTracked,
0.934082,-0.3349609,-0.02294922,0.9541016,0.4121094,0.09228516,-1,0,-1,-1,-1,1,-2,-1,-1,5,4,-1,-2,0,0,0,6.1875,6.1875,6.1875,12.875,12.875,12.875,2.384845,3.064095,2.393412,7.260923,3.038446,1.818894,-0.0954092,-0.4977868,1.613368,0.3002292,-0.5034429,1.607699,0.1093271,0.3354985,1.703877,-0.04429445,-0.4963554,1.586073,0.2449971,-0.4673297,1.589706,0.1002143,-0.1196342,1.719571,0.09543767,-0.4308895,1.706247,-0.07340466,0.06635812,1.717428,0.01189209,-0.4206615,1.673713,-0.1283514,-0.195507,1.720892,0.3318298,-0.1895933,1.697711,NA,NA,NotTracked,NotTracked,
0.9467773,-0.3491211,-0.02636719,0.9013672,0.4443359,0.1245117,0,0,-1,-2,-2,-1,-2,-1,-2,-2,-1,-1,-1,-1,-1,0,6.1875,6.1875,6.1875,3.125,3.125,3.125,2.382903,3.06173,2.405583,7.226696,3.042462,1.861019,-0.0956082,-0.4980094,1.613124,0.2998395,-0.5030117,1.611403,0.1095492,0.3355309,1.703421,-0.04452366,-0.4964837,1.585486,0.2449942,-0.4596942,1.590758,0.1003489,-0.1197276,1.719294,0.09585831,-0.4309537,1.705941,-0.07347357,0.0664181,1.717209,0.01233767,-0.4207405,1.673343,-0.128269,-0.1955942,1.72079,0.3324862,-0.1915545,1.700671,NA,NA,NotTracked,NotTracked,
0.9301758,-0.3461914,-0.03515625,0.8759766,0.4228516,0.1303711,1,0,-1,-2,-1,-4,0,-2,2,-2,-2,-1,-1,0,0,-1,4.9375,4.9375,4.9375,-9.625,-9.625,-9.625,2.381373,3.059639,2.413548,7.194608,3.049737,1.886378,-0.09557159,-0.4978539,1.614307,0.299934,-0.5021383,1.615526,0.1096102,0.3355136,1.703154,-0.04417371,-0.5046223,1.580973,0.2475996,-0.4735229,1.592289,0.100621,-0.1197858,1.719061,0.09618275,-0.4310783,1.705679,-0.07351469,0.06631655,1.717098,0.01269693,-0.4209039,1.672897,-0.1279764,-0.1956495,1.720807,0.3339896,-0.193399,1.705075,NA,NA,NotTracked,NotTracked,
0.9262695,-0.3500977,-0.02978516,0.8730469,0.390625,0.1162109,1,-3,0,0,0,-1,-2,-2,-2,-3,-1,-1,-2,-1,1,0,3.125,3.125,3.125,-18.875,-18.875,-18.875,2.380085,3.058651,2.417041,7.168314,3.057469,1.893025,-0.09585009,-0.4986065,1.614379,0.3001347,-0.50213,1.617865,0.1098172,0.3354207,1.702469,-0.04445302,-0.501001,1.582924,0.2482919,-0.4665707,1.592912,0.1007048,-0.1199501,1.718559,0.09653486,-0.4311771,1.705225,-0.07356693,0.06631095,1.71677,0.01300772,-0.4210292,1.672314,-0.1276518,-0.1961286,1.720629,0.3357545,-0.1943119,1.710296,NA,NA,NotTracked,NotTracked,
0.9365234,-0.3618164,-0.02050781,0.894043,0.3535156,0.1079102,0,0,-1,-1,-2,-1,0,-2,-2,-1,-1,0,-2,0,1,0,-3.1875,-3.1875,-3.1875,-18.0625,-18.0625,-18.0625,2.372256,3.055504,2.422865,7.154557,3.061361,1.884375,-0.0959774,-0.4990787,1.614931,0.3004347,-0.5020027,1.618777,0.1098538,0.3353934,1.702202,-0.04569588,-0.4903026,1.583829,0.2481673,-0.4651218,1.592964,0.1008496,-0.1199954,1.718338,0.09673109,-0.4312141,1.705073,-0.07364123,0.06625465,1.716695,0.01318815,-0.4211158,1.672122,-0.1274181,-0.1967208,1.720671,0.3362385,-0.1947916,1.712101,NA,NA,NotTracked,NotTracked,
0.9462891,-0.3583984,-0.01464844,0.9174805,0.3349609,0.07080078,-2,-2,-3,0,-1,1,-1,-1,0,-1,-1,0,0,-3,-2,-1,0.4375,0.4375,0.4375,-15.9375,-15.9375,-15.9375,2.373335,3.055537,2.420757,7.147725,3.06376,1.871944,-0.09562984,-0.498576,1.615391,0.3010017,-0.50034,1.619259,0.1098744,0.3354076,1.702085,-0.04463791,-0.5091544,1.581474,0.2494239,-0.4769066,1.593829,0.1008725,-0.1200114,1.718287,0.09691364,-0.4312477,1.704987,-0.07366654,0.06625354,1.716645,0.01343297,-0.4211852,1.671897,-0.1273805,-0.1968732,1.720636,0.336512,-0.1951411,1.713268,NA,NA,NotTracked,NotTracked,
0.9458008,-0.3427734,-0.01513672,0.9194336,0.3125,0.07470703,-1,-1,-1,-2,-2,-1,-2,-1,-2,-1,-2,-1,-1,0,0,-1,1.25,1.25,1.25,-11.75,-11.75,-11.75,2.376937,3.056217,2.418807,7.133527,3.067305,1.871268,-0.0958681,-0.4996679,1.615996,0.3010328,-0.5002065,1.619761,0.1098461,0.3353997,1.702045,-0.04433356,-0.5011877,1.583939,0.2489011,-0.4772431,1.593333,0.1009632,-0.1199991,1.718266,0.09709647,-0.4312648,1.704967,-0.07370298,0.06622918,1.716593,0.0136255,-0.4212441,1.67186,-0.1273531,-0.1969069,1.720684,0.3365051,-0.1950376,1.71461,NA,NA,NotTracked,NotTracked,
