ALX,ALY,ALZ,ARX,ARY,ARZ,EMG0L,EMG1L,EMG2L,EMG3L,EMG4L,EMG5L,EMG6L,EMG7L,EMG0R,EMG1R,EMG2R,EMG3R,EMG4R,EMG5R,EMG6R,EMG7R,GLX,GLY,GLZ,GRX,GRY,GRZ,ORL,OPL,OYL,ORR,OPR,OYR,LHNX,LHNY,LHNZ,RHNX,RHNY,RHNZ,HX,HY,HZ,LTX,LTY,LTZ,RTX,RTY,RTZ,SpineMidX,SpineMidY,SpineMidZ,SpineBaseX,SpineBaseY,SpineBaseZ,ShoulderLeftX,ShoulderLeftY,ShoulderLeftZ,ShoulderRightX,ShoulderRightY,ShoulderRightZ,ElbowLeftX,ElbowLeftY,ElbowLeftZ,ElbowRightX,ElbowRightY,ElbowRightZ,Myo_Pose_left,Myo_Pose_Right,Kinect_pose_left,Kinect_pose_right
0.9399414,-0.3295898,-0.05957031,1.063965,0.6430664,0.4047852,0,-4,-3,-1,-2,1,0,0,-3,-22,-66,-15,-2,-1,-4,-2,2,2,2,-21.125,-21.125,-21.125,2.25404,3.057374,8.759644,6.652693,3.404382,7.151335,-0.09640127,-0.5014968,1.656304,0.2821884,-0.4586228,1.581459,0.1263185,0.3379284,1.737834,-0.1445084,-0.4964637,1.664897,0.2658236,-0.5012623,1.602637,0.115127,-0.1189337,1.745172,0.1063322,-0.4322932,1.727885,-0.05892963,0.06947226,1.75179,0.02274562,-0.4220396,1.697239,-0.1221273,-0.1930664,1.75883,0.3532773,-0.1963159,1.739563,NA,NA,NotTracked,NotTracked,
0.9365234,-0.3374023,-0.06005859,0.8110352,0.8554688,0.5708008,-1,0,0,-1,-3,-1,-1,-3,2,9,35,7,-1,1,0,-1,1,1,1,-40.4375,-40.4375,-40.4375,2.256338,3.058504,8.758548,6.495018,3.747663,7.285759,-0.09638169,-0.5017616,1.655779,0.2732397,-0.4265375,1.556549,0.1261134,0.3380176,1.737738,-0.1458306,-0.4862763,1.672375,0.2576882,-0.4671593,1.581375,0.1147755,-0.1188827,1.74487,0.10537,-0.4321188,1.727457,-0.05904561,0.06939543,1.751768,0.02163704,-0.4217025,1.696822,-0.1221174,-0.1931285,1.758758,0.3549,-0.1910502,1.743244,NA,NA,NotTracked,Unknown,
0.9277344,-0.3310547,-0.06201172,0.5541992,0.8579102,0.5751953,1,0,0,0,0,-1,0,-1,-5,1,36,1,-3,-1,-5,-6,-5.125,-5.125,-5.125,-46.4375,-46.4375,-46.4375,2.252689,3.057346,8.758339,6.41173,4.032433,7.334299,-0.09633914,-0.5013496,1.65604,0.2391315,-0.3936658,1.569736,0.1259002,0.3380377,1.737686,-0.1450834,-0.4875719,1.670244,0.2162769,-0.4636892,1.589228,0.1140131,-0.1188808,1.744609,0.1033833,-0.4320244,1.726859,-0.05913057,0.06930482,1.751694,0.01945903,-0.4213045,1.69616,-0.1220883,-0.1931828,1.758501,0.3571163,-0.1824664,1.746923,NA,NA,NotTracked,Unknown,
0.9345703,-0.3442383,-0.05419922,0.3183594,0.8144531,0.6259766,-2,0,-1,-1,1,-2,-1,0,-4,1,-8,-15,-8,-1,-2,-2,-14.125,-14.125,-14.125,-26.375,-26.375,-26.375,2.241757,3.054488,8.755564,6.365608,4.348536,7.35954,-0.09646141,-0.5014313,1.656896,0.2350831,-0.3376669,1.547199,0.1256988,0.3380315,1.737639,-0.1441524,-0.4967551,1.663886,0.1810765,-0.3783616,1.589,0.1133726,-0.1188181,1.744536,0.1023927,-0.4318145,1.726717,-0.05917988,0.06930543,1.751684,0.01861504,-0.4210648,1.696015,-0.1221792,-0.1933431,1.75834,0.3591669,-0.1702692,1.748822,NA,NA,NotTracked,Closed,
0.9335938,-0.3623047,-0.05810547,0.1357422,0.862793,0.6811523,-2,-2,-2,0,-2,-2,-1,0,3,0,36,35,6,1,-5,0,-14.625,-14.625,-14.625,-15.125,-15.125,-15.125,2.230704,3.053958,8.749579,6.338746,4.696509,7.385405,-0.09634966,-0.5019351,1.656797,0.2444425,-0.2751414,1.481656,0.1255869,0.3380064,1.737701,-0.1459236,-0.4971273,1.670286,0.2092185,-0.3253844,1.570812,0.1128071,-0.1186955,1.744473,0.1016008,-0.4315086,1.726475,-0.0592121,0.06925372,1.751672,0.0179325,-0.4207966,1.695728,-0.1222581,-0.1932749,1.75822,0.3626528,-0.1585292,1.747369,NA,NA,NotTracked,Closed,
0.9472656,-0.3676758,-0.04541016,-0.04980469,0.8745117,0.6586914,-2,-2,-2,-1,-1,0,-1,-2,-4,7,13,1,6,0,-3,3,-12.75,-12.75,-12.75,20.0625,20.0625,20.0625,2.228755,3.05516,8.736962,6.354708,5.071647,7.405694,-0.09611687,-0.5022701,1.655905,0.2328919,-0.1460507,1.443362,0.1254382,0.33794,1.737959,-0.1432194,-0.5086122,1.6652,0.1894881,-0.1381918,1.476813,0.1126153,-0.1186785,1.74462,0.1014922,-0.431397,1.72653,-0.05924872,0.06916715,1.751455,0.0178466,-0.4206988,1.695747,-0.1225473,-0.1934259,1.757655,0.4364794,-0.1687184,1.692458,NA,NA,NotTracked,Closed,
0.9477539,-0.3554688,-0.05273438,-0.2167969,0.8139648,0.675293,-5,-1,0,-1,-2,-2,-3,-1,-21,-2,-12,-36,-9,1,2,1,-12.125,-12.125,-12.125,22.8125,22.8125,22.8125,2.229384,3.058374,8.722625,6.386353,5.455943,7.440475,-0.0960786,-0.5027013,1.653849,0.2314973,-0.07652829,1.442855,0.1253304,0.337882,1.738276,-0.1449584,-0.5336536,1.659455,0.1853043,-0.04480422,1.472,0.1124926,-0.11869,1.744689,0.1014552,-0.4313492,1.726543,-0.05914925,0.06901922,1.751099,0.01783979,-0.4206871,1.695817,-0.1226378,-0.1936054,1.756566,0.3740469,-0.1422923,1.667636,NA,NA,NotTracked,Unknown,
0.9443359,-0.3583984,-0.05566406,-0.3569336,0.6494141,0.6542969,-1,-2,0,-1,0,-1,-1,0,4,34,0,1,-4,-7,-1,5,-14.3125,-14.3125,-14.3125,41.625,41.625,41.625,2.228624,3.063498,8.707102,6.445284,5.834058,7.489305,-0.09587045,-0.5018398,1.652743,0.2330057,-0.005973998,1.449844,0.1253622,0.3378981,1.738465,-0.1429721,-0.5246993,1.653521,0.1762974,0.02674939,1.4885,0.1124368,-0.1187596,1.744811,0.101352,-0.4314626,1.726563,-0.05888686,0.06883529,1.750863,0.01773212,-0.4208819,1.69591,-0.1228155,-0.1938932,1.75573,0.3679522,-0.1438767,1.647212,NA,NA,NotTracked,Unknown,
0.9428711,-0.3530273,-0.05224609,-0.4560547,0.6669922,0.5732422,-3,-5,-1,-1,-1,0,1,-5,15,-5,-5,-8,4,2,6,11,-9.8125,-9.8125,-9.8125,51.9375,51.9375,51.9375,2.233613,3.072249,8.688684,6.547075,6.195237,7.570574,-0.09546223,-0.5030099,1.649679,0.2380095,0.05679408,1.467153,0.125276,0.337829,1.738605,-0.1444911,-0.5075734,1.656769,0.188631,0.1078463,1.53175,0.1121716,-0.119468,1.745141,0.100877,-0.4330476,1.726612,-0.05892596,0.06872676,1.750788,0.01711555,-0.4227547,1.696619,-0.123111,-0.1935573,1.754827,0.3691674,-0.1389624,1.634335,NA,NA,NotTracked,Closed,
0.9272461,-0.3417969,-0.04443359,-0.5898438,0.4907227,0.4370117,0,8,-1,-2,-2,-2,-2,-2,-10,-42,-9,-20,-12,2,-2,-9,-0.0625,-0.0625,-0.0625,15.25,15.25,15.25,2.245362,3.084417,8.672738,6.677919,6.53364,7.706014,-0.09444353,-0.5015801,1.647268,0.2436073,0.1177147,1.487764,0.1250955,0.3378069,1.738757,-0.1432236,-0.5015966,1.658619,0.2666089,0.1676485,1.514833,0.1114703,-0.1205937,1.744597,0.1006193,-0.4333709,1.726601,-0.05890461,0.06870574,1.750778,0.01662155,-0.4231569,1.696834,-0.1227402,-0.1922433,1.7536,0.3712381,-0.1357902,1.619585,NA,NA,NotTracked,Closed,
0.9321289,-0.3330078,-0.05712891,-0.6132813,0.25,0.2802734,-1,4,0,-2,-3,0,1,1,31,25,-5,-29,-8,-3,3,15,5.625,5.625,5.625,41.25,41.25,41.25,2.251424,3.097957,8.67199,6.901872,6.827725,7.92793,-0.09533816,-0.4966024,1.643648,0.2542991,0.2002464,1.543279,0.124434,0.3379256,1.739412,-0.1445801,-0.5043658,1.649937,0.2936525,0.2100691,1.536882,0.111421,-0.1205139,1.744322,0.09989312,-0.4322551,1.726506,-0.05941632,0.06855632,1.751039,0.01532051,-0.4215641,1.696437,-0.1212742,-0.1852018,1.751834,0.3743803,-0.106403,1.571231,NA,NA,NotTracked,Unknown,
0.9311523,-0.3193359,-0.06054688,-0.6030273,0.3095703,0.1708984,0,-4,0,1,-1,-1,0,0,-37,-6,1,-6,-3,-2,-6,-9,13.1875,13.1875,13.1875,39.5,39.5,39.5,2.263934,3.110601,8.672692,7.308765,7.056419,8.308135,-0.09427394,-0.4979423,1.640943,0.2611441,0.2234096,1.569849,0.1243938,0.3378884,1.739446,-0.1423786,-0.5088955,1.645444,0.2916251,0.2485914,1.565283,0.1113937,-0.1205044,1.744197,0.09979173,-0.43174,1.726314,-0.06008524,0.06842209,1.751189,0.01512809,-0.4209215,1.695908,-0.1211084,-0.1846943,1.751293,0.3742549,-0.09129722,1.553653,NA,NA,NotTracked,Open,
0.9287109,-0.3129883,-0.05859375,-0.8569336,0.1416016,-0.06347656,0,-1,-2,-1,0,0,4,0,-6,-3,3,17,3,-4,1,-4,13.5,13.5,13.5,15.8125,15.8125,15.8125,2.271861,3.118491,8.680684,7.924443,7.193785,8.921124,-0.09494304,-0.4983455,1.642034,0.2527398,0.2612809,1.605543,0.1243438,0.3379351,1.739914,-0.1500924,-0.5287614,1.661834,0.2957294,0.2380627,1.565283,0.1113714,-0.1205207,1.744151,0.09974664,-0.4315394,1.726264,-0.05624635,0.06854833,1.751507,0.0150518,-0.4207474,1.695874,-0.1210865,-0.1845348,1.751239,0.3743372,-0.07295164,1.537551,NA,NA,NotTracked,Open,
0.9291992,-0.3256836,-0.05175781,-1.22168,0.04882813,-0.2919922,0,1,-2,-2,-1,-3,-4,-1,-33,-15,-3,-6,-8,-3,0,-5,14.5625,14.5625,14.5625,24.6875,24.6875,24.6875,2.273836,3.120833,8.687182,8.648616,7.234004,9.63468,-0.09463909,-0.4990421,1.639839,0.2419016,0.2830305,1.63233,0.1243175,0.3379615,1.740294,-0.143791,-0.4978361,1.6458,0.2522196,0.3269165,1.621846,0.1111425,-0.1206171,1.743969,0.0995575,-0.4312914,1.726024,-0.05415737,0.06884556,1.75148,0.01484591,-0.4205597,1.695839,-0.1210587,-0.1843131,1.751246,0.3730591,-0.06138527,1.528303,NA,NA,NotTracked,NotTracked,
0.9287109,-0.3286133,-0.07568359,-1.309082,-0.03027344,-0.1196289,-1,0,-2,-2,-2,-2,2,0,6,-5,7,18,3,-2,5,-1,18.75,18.75,18.75,2.25,2.25,2.25,2.281749,3.12093,8.711246,9.070007,7.233663,0.05356272,-0.09514018,-0.4990841,1.641177,0.2715032,0.2568961,1.62018,0.1240891,0.3380187,1.740962,-0.1443629,-0.49626,1.648195,0.2954921,0.2568045,1.577167,0.1106877,-0.1208074,1.743676,0.09901623,-0.4306975,1.725524,-0.05434043,0.06868763,1.752392,0.01444638,-0.4201678,1.695861,-0.1209886,-0.1843453,1.751351,0.3718174,-0.04290904,1.516507,NA,NA,NotTracked,NotTracked,
0.9238281,-0.3408203,-0.06640625,-0.8808594,0.08642578,-0.1000977,1,-1,-2,-2,-2,-2,-4,-1,12,10,-1,-5,-2,-1,-5,1,10.4375,10.4375,10.4375,-3.75,-3.75,-3.75,2.281049,3.115785,8.727253,9.142561,7.230554,0.1331038,-0.09481417,-0.4995037,1.642437,0.215334,0.3018419,1.662513,0.1240027,0.3381705,1.741359,-0.1445105,-0.4963142,1.648659,0.1703015,0.2420787,1.687562,0.1105775,-0.1208677,1.743524,0.09886263,-0.4305117,1.725263,-0.0530162,0.0685963,1.752703,0.01434599,-0.4200521,1.695903,-0.1211285,-0.1844683,1.751854,0.3734916,0.01699453,1.495286,NA,NA,NotTracked,NotTracked,
0.9282227,-0.3696289,-0.06738281,-0.8979492,0.1318359,-0.07519531,-1,-5,-1,-1,-1,-3,-4,-1,11,-1,6,18,8,-1,-2,-3,7,7,7,-10.25,-10.25,-10.25,2.27129,3.106635,8.75043,9.101461,7.225592,0.09905047,-0.09652606,-0.4979791,1.647421,0.2120868,0.3028123,1.661528,0.123879,0.338305,1.741954,-0.1457949,-0.4945599,1.656969,0.1695531,0.2456565,1.680729,0.110405,-0.1209395,1.743425,0.09867785,-0.4304347,1.725092,-0.05173664,0.06835991,1.753296,0.01421772,-0.419993,1.695945,-0.1210276,-0.1846143,1.752448,0.3737477,0.01698652,1.49508,NA,NA,NotTracked,NotTracked,
0.9321289,-0.3911133,-0.05322266,-0.9521484,0.1079102,-0.1245117,-2,-1,-2,-2,-1,1,5,2,10,-13,-5,-6,-3,-2,-1,-3,6.8125,6.8125,6.8125,-9.4375,-9.4375,-9.4375,2.262477,3.101093,8.768238,9.04443,7.226995,0.05254636,-0.09648801,-0.4991486,1.647434,0.2088532,0.305066,1.661666,0.1234049,0.3382937,1.742529,-0.1450572,-0.5004693,1.650834,0.1716433,0.244087,1.687918,0.1102998,-0.1208516,1.743271,0.09846629,-0.4299866,1.724756,-0.05614862,0.06796519,1.754021,0.01407902,-0.4197926,1.695895,-0.1211124,-0.1849572,1.752984,0.3699916,-0.01381843,1.502015,NA,NA,NotTracked,NotTracked,
0.9287109,-0.3881836,-0.06689453,-0.9824219,0.1206055,-0.1225586,-3,-2,-1,-2,-1,-3,-5,-2,8,12,-1,-7,-4,-2,-1,-2,7.375,7.375,7.375,-2.5,-2.5,-2.5,2.253258,3.097528,8.787246,9.010526,7.232577,0.02353181,-0.0984626,-0.5015702,1.651868,0.2376581,0.2930554,1.635656,0.1229862,0.3383916,1.742973,-0.1486031,-0.4974222,1.663621,0.1697394,0.2465697,1.676384,0.1099063,-0.1209061,1.742908,0.09809536,-0.4296249,1.724192,-0.05343845,0.06810752,1.754693,0.01381249,-0.4195501,1.695726,-0.1210811,-0.1847657,1.754986,0.3686311,0.00815944,1.494439,NA,NA,NotTracked,NotTracked,
0.9277344,-0.3916016,-0.06201172,-0.9790039,0.1206055,-0.1083984,-2,-2,-1,0,-2,-1,-4,-4,-7,-3,-1,-4,-4,-2,-1,-4,5.4375,5.4375,5.4375,-7.75,-7.75,-7.75,2.248567,3.095751,8.795589,8.988515,7.237185,0.008704199,-0.09872604,-0.5013763,1.652588,0.2226886,0.3012995,1.651792,0.1226986,0.3385238,1.743076,-0.1501095,-0.4737245,1.675143,0.1806838,0.2587714,1.688571,0.1097775,-0.1209859,1.742714,0.09792715,-0.429514,1.723823,-0.05259912,0.06822428,1.754896,0.01363439,-0.4194343,1.695602,-0.1211539,-0.1845689,1.756011,0.3653072,-0.01385879,1.49967,NA,NA,NotTracked,NotTracked,
0.9213867,-0.394043,-0.05126953,-1.022949,0.1015625,-0.1513672,-3,-2,0,0,0,-3,-3,-2,-14,14,5,1,1,-1,3,1,1.6875,1.6875,1.6875,-8.75,-8.75,-8.75,2.241049,3.093734,8.80688,8.99419,7.241052,0.0255869,-0.09996622,-0.5024155,1.654998,0.220964,0.3015818,1.65222,0.1226193,0.3384538,1.743065,-0.1515198,-0.4778299,1.679625,0.1802651,0.2592914,1.691171,0.1095889,-0.1210275,1.74253,0.09775473,-0.4293817,1.723576,-0.0521528,0.06833404,1.75513,0.01349084,-0.4193553,1.695572,-0.1214716,-0.1846281,1.757659,0.3647061,-0.01604385,1.500216,NA,NA,NotTracked,NotTracked,
0.9228516,-0.3994141,-0.04296875,-0.9892578,0.09912109,-0.1235352,-2,-2,-2,-2,-2,-1,-3,-2,12,2,0,-1,-1,-1,2,1,0.25,0.25,0.25,-1.625,-1.625,-1.625,2.232827,3.094988,8.816488,9.017034,7.248703,0.052839,-0.1006188,-0.5020179,1.655422,0.2181161,0.3052992,1.654024,0.1224086,0.3384747,1.74322,-0.1504632,-0.4837494,1.668961,0.1737514,0.2518348,1.6816,0.1095166,-0.1210436,1.742378,0.09765732,-0.4292541,1.723317,-0.0517234,0.06836124,1.755235,0.01340408,-0.4192817,1.695525,-0.1216861,-0.1849596,1.758545,0.3635309,0.01182038,1.491119,NA,NA,NotTracked,NotTracked,
0.918457,-0.3969727,-0.04101563,-0.987793,0.08740234,-0.1333008,0,-2,-1,-3,-2,-3,-5,-3,-5,-4,-1,0,5,0,-1,0,1.8125,1.8125,1.8125,-9.625,-9.625,-9.625,2.23281,3.096768,8.818105,9.017202,7.256578,0.06151227,-0.1013651,-0.5028934,1.655801,0.2186233,0.3051129,1.653551,0.1223336,0.3385071,1.743243,-0.1525619,-0.4920768,1.667666,0.1771168,0.2578642,1.684488,0.1094831,-0.1209939,1.742266,0.09751825,-0.4290802,1.72312,-0.05103298,0.06844392,1.755354,0.01325642,-0.4191335,1.695526,-0.1216702,-0.1847847,1.758981,0.36108,-0.01275662,1.497312,NA,NA,NotTracked,NotTracked,
0.9233398,-0.3833008,-0.04785156,-1.021484,0.08447266,-0.1757813,-2,-2,-1,-2,-1,0,0,0,6,7,-2,-1,-3,-5,-8,-3,5.1875,5.1875,5.1875,-9.75,-9.75,-9.75,2.237166,3.101593,8.819305,8.964695,7.267206,0.01808199,-0.1029235,-0.5034906,1.655517,0.2108984,0.3047829,1.651264,0.1220508,0.3388051,1.743433,-0.1522381,-0.4856049,1.671818,0.1612208,0.2439102,1.670431,0.1092775,-0.1209623,1.742042,0.09721743,-0.4289113,1.722822,-0.05030475,0.06852309,1.755573,0.0129637,-0.4189875,1.695518,-0.1216793,-0.1846935,1.759786,0.360543,-0.01737214,1.498856,NA,NA,NotTracked,NotTracked,
0.918457,-0.3774414,-0.03466797,-0.9995117,0.09326172,-0.1606445,-1,-1,0,-1,-3,-1,0,1,3,7,0,0,-6,2,4,-3,4.625,4.625,4.625,-9.5,-9.5,-9.5,2.250148,3.11046,8.8142,8.902785,7.271965,9.961453,-0.1026445,-0.5029705,1.6545,0.210591,0.3049786,1.65049,0.1220187,0.3387754,1.74346,-0.1517065,-0.493186,1.664259,0.1655806,0.2430488,1.678289,0.1092417,-0.1209517,1.741975,0.09715663,-0.4288726,1.72277,-0.04997784,0.06861152,1.75581,0.01291949,-0.418958,1.695546,-0.1218445,-0.1847688,1.760044,0.3609998,0.01181453,1.48978,NA,NA,NotTracked,NotTracked,
0.9233398,-0.3632813,-0.0546875,-1.063965,0.08447266,-0.1591797,0,-4,-2,1,-1,-1,0,-1,-13,1,-1,-1,2,-1,-3,-5,5.1875,5.1875,5.1875,-13.375,-13.375,-13.375,2.260064,3.115896,8.81016,8.206121,7.296026,9.285627,-0.1027547,-0.5007553,1.653263,0.2099054,0.3063127,1.647377,0.1218808,0.3387956,1.743531,-0.1506137,-0.4853631,1.666252,0.1756845,0.2521207,1.686556,0.1091385,-0.1209757,1.741859,0.09704322,-0.4288489,1.722607,-0.04967903,0.06861793,1.756012,0.01287708,-0.4189543,1.69553,-0.1217186,-0.1846249,1.760277,0.3590234,-0.01075434,1.49556,NA,NA,NotTracked,NotTracked,
0.9243164,-0.3666992,-0.0546875,-1.061523,0.1098633,-0.144043,0,0,-2,-1,-1,-1,-3,0,3,28,9,-1,-12,-2,-4,-1,1,1,1,-6.4375,-6.4375,-6.4375,2.266795,3.119326,8.805308,7.921787,7.292722,9.001614,-0.102578,-0.5009047,1.652749,0.2114503,0.3110749,1.6443,0.1218582,0.3388297,1.743635,-0.1517512,-0.4866771,1.663897,0.1718162,0.2521467,1.680308,0.109109,-0.1209912,1.741824,0.09703746,-0.4288468,1.722595,-0.05432791,0.06846937,1.756081,0.01285018,-0.4189615,1.695558,-0.1218959,-0.1845991,1.760481,0.3583508,-0.01398975,1.496342,NA,NA,NotTracked,NotTracked,
0.9223633,-0.3569336,-0.05615234,-1.007324,0.1640625,0.004882813,-2,-1,-2,-1,-2,-1,-4,-3,-8,-21,-6,5,-3,-1,-1,-5,0.9375,0.9375,0.9375,-11.0625,-11.0625,-11.0625,2.275426,3.121468,8.797149,7.078266,7.223952,8.165277,-0.1028449,-0.5005304,1.651515,0.2098553,0.3135717,1.636126,0.1218084,0.3388357,1.743655,-0.1509582,-0.4863383,1.668199,0.17174,0.2559237,1.675053,0.1090563,-0.1210579,1.741724,0.09700323,-0.4289343,1.72245,-0.05310585,0.06872021,1.75626,0.01282779,-0.4189968,1.695537,-0.1218849,-0.1846675,1.760551,0.3575386,-0.01657303,1.49695,NA,NA,NotTracked,NotTracked,
0.9233398,-0.359375,-0.05957031,-1.052246,0.2319336,-0.04052734,-2,0,-1,0,-2,-3,-2,0,20,24,3,-1,-2,0,-1,8,-1.125,-1.125,-1.125,-11.75,-11.75,-11.75,2.281263,3.121901,8.789822,6.736199,7.14226,7.824709,-0.1013119,-0.5002437,1.650452,0.1834269,0.3393244,1.638877,0.1210813,0.3388813,1.743967,-0.1495878,-0.4895795,1.657542,0.1925155,0.3113267,1.691333,0.1090377,-0.1211245,1.741597,0.09721684,-0.4288957,1.722249,-0.05185468,0.06911199,1.756618,0.01307625,-0.4190525,1.695601,-0.1219213,-0.1848727,1.760599,0.3552398,-0.0005295599,1.490801,NA,NA,NotTracked,Unknown,
0.9248047,-0.3632813,-0.05615234,-1.02832,0.1958008,0.07128906,-1,-1,-1,-1,0,-1,-2,0,5,2,1,0,-4,-3,0,4,-0.375,-0.375,-0.375,-13.875,-13.875,-13.875,2.287081,3.122337,8.782511,6.581017,7.093032,7.672752,-0.1010599,-0.5002503,1.650179,0.1803695,0.3446985,1.635553,0.1208221,0.3388436,1.744061,-0.1503329,-0.4843396,1.667708,0.1708214,0.3043783,1.660659,0.1097229,-0.1204511,1.742342,0.09741388,-0.4290054,1.722095,-0.05179192,0.06919324,1.756774,0.01325317,-0.4192263,1.695588,-0.1219228,-0.1849553,1.760619,0.3535835,0.002206807,1.489253,NA,NA,NotTracked,NotTracked,
0.9287109,-0.3632813,-0.06445313,-1.015137,0.2758789,0.1650391,-2,-1,-1,-1,0,-2,0,0,-1,-19,-10,-6,9,3,1,1,-0.375,-0.375,-0.375,7.3125,7.3125,7.3125,2.288799,3.122125,8.780053,6.287117,6.927537,7.359113,-0.1004416,-0.5020922,1.649669,0.1834509,0.3431769,1.62921,0.1204102,0.3387446,1.744323,-0.1491866,-0.4850807,1.662992,0.1694282,0.3132339,1.656286,0.1098652,-0.1200618,1.74276,0.0974407,-0.4290326,1.722046,-0.05180623,0.06930434,1.757023,0.01328881,-0.419295,1.695604,-0.1219571,-0.1861482,1.76054,0.3515527,0.004345687,1.487792,NA,NA,NotTracked,NotTracked,
0.9248047,-0.3681641,-0.0625,-0.9555664,0.2973633,0.2094727,0,-2,-1,0,0,-1,0,0,-6,2,-1,-6,8,1,-3,-4,-1.125,-1.125,-1.125,-2.5,-2.5,-2.5,2.292575,3.122004,8.774641,6.216821,6.868166,7.284822,-0.1000107,-0.5017115,1.649445,0.2881024,0.2653374,1.462924,0.1200943,0.3387216,1.744528,-0.1472079,-0.4928515,1.654806,0.2537842,0.2536907,1.453028,0.110094,-0.1197066,1.743208,0.09742805,-0.4290589,1.722012,-0.0522134,0.06928635,1.757338,0.01328815,-0.4193706,1.695649,-0.1220067,-0.1870383,1.760612,0.3495246,0.007199286,1.48615,NA,NA,NotTracked,Closed,
0.9213867,-0.378418,-0.05566406,-0.722168,0.3120117,0.4741211,-1,0,0,-1,-2,-1,-2,-2,6,-1,0,-14,6,3,8,5,-2.25,-2.25,-2.25,11.6875,11.6875,11.6875,2.295803,3.121933,8.767654,6.077571,6.686742,7.131178,-0.09983282,-0.5014282,1.649401,0.2925605,0.2646396,1.438852,0.1195918,0.3386656,1.744874,-0.149116,-0.4889885,1.662832,0.2561169,0.2560646,1.430786,0.1100585,-0.1191962,1.743615,0.09741209,-0.4290382,1.722008,-0.05823448,0.06862813,1.757463,0.01327155,-0.4194032,1.69577,-0.1221367,-0.1878674,1.760546,0.3474935,0.01069324,1.484354,NA,NA,NotTracked,Closed,
0.9213867,-0.378418,-0.05566406,-0.722168,0.3120117,0.4741211,-1,0,0,-1,-2,-1,-2,-2,-10,-5,-4,-2,-5,1,3,-1,-2.25,-2.25,-2.25,11.6875,11.6875,11.6875,2.295803,3.121933,8.767654,6.077571,6.686742,7.131178,-0.09917951,-0.5020894,1.648767,0.2968374,0.2656687,1.414684,0.1192187,0.3386705,1.745199,-0.1471526,-0.4883769,1.657684,0.2604506,0.2558957,1.403865,0.1100162,-0.1188815,1.744039,0.0973262,-0.4291082,1.721997,-0.05806563,0.0685348,1.757661,0.01316964,-0.4196503,1.695998,-0.1220821,-0.1886854,1.760364,0.3461107,0.01126206,1.483322,NA,NA,NotTracked,Closed,
0.9287109,-0.3759766,-0.05322266,-0.6391602,0.4482422,0.6323242,-1,-2,-3,-1,-2,-1,-2,-2,-3,7,-2,-11,-1,0,-2,-1,-0.5,-0.5,-0.5,6.75,6.75,6.75,2.296895,3.122685,8.765279,6.040189,6.575008,7.078814,-0.09973162,-0.4996864,1.648645,0.3000387,0.2645439,1.394548,0.1187912,0.3386882,1.745632,-0.1476933,-0.4904345,1.654765,0.2685986,0.2521078,1.398643,0.1099422,-0.1188182,1.744158,0.09710651,-0.429417,1.721873,-0.05814932,0.06831947,1.757853,0.01291899,-0.4201273,1.696136,-0.1221413,-0.1888632,1.760286,0.3563353,-0.056841,1.483196,NA,NA,NotTracked,Closed,
0.9257813,-0.3740234,-0.05517578,-0.5913086,0.3603516,0.6523438,-1,-1,-1,-2,-1,-1,-2,-2,-7,5,-1,-8,3,-2,-6,-5,3.8125,3.8125,3.8125,4.375,4.375,4.375,2.297866,3.124626,8.767007,6.023512,6.531445,7.058634,-0.09972055,-0.5005722,1.649583,0.3025053,0.2620317,1.382033,0.1183762,0.3387477,1.746148,-0.1473985,-0.495316,1.654992,0.2661897,0.2652231,1.390333,0.1097372,-0.1186678,1.744548,0.09672296,-0.4296237,1.721944,-0.05818341,0.06817555,1.758239,0.01247699,-0.420495,1.696658,-0.122298,-0.1890471,1.760342,0.3564441,-0.05670071,1.483124,NA,NA,NotTracked,Closed,
0.9208984,-0.3681641,-0.04736328,-0.7338867,0.3676758,0.59375,0,-1,-1,-1,-1,0,-1,0,7,-14,-3,2,3,0,3,2,7.1875,7.1875,7.1875,-3.375,-3.375,-3.375,2.302087,3.126535,8.770564,6.001786,6.455904,7.038221,-0.1002198,-0.5004321,1.649628,0.3023262,0.260965,1.371249,0.1178298,0.3385873,1.746431,-0.1477885,-0.4947576,1.656466,0.2682377,0.2662674,1.386278,0.1094173,-0.1186314,1.744869,0.096306,-0.4300887,1.721959,-0.05844276,0.06785653,1.758811,0.01203712,-0.4211277,1.69707,-0.1222295,-0.1894061,1.760493,0.3567523,-0.05653867,1.483021,NA,NA,NotTracked,Closed,
0.9306641,-0.3706055,-0.05126953,-0.7885742,0.3950195,0.5722656,-1,-1,-1,-1,-2,0,0,0,0,3,2,9,-5,-3,5,-1,6.5,6.5,6.5,-6.625,-6.625,-6.625,2.302371,3.126134,8.778114,5.995456,6.434771,7.040623,-0.09985308,-0.5002931,1.650115,0.3014929,0.2572263,1.366087,0.1174143,0.3387899,1.74677,-0.1487414,-0.4895488,1.661325,0.2646078,0.2844973,1.392546,0.1092814,-0.1184946,1.745077,0.09610866,-0.4302436,1.721997,-0.05842541,0.06760702,1.759096,0.01183357,-0.4213566,1.697298,-0.1223871,-0.1898972,1.760766,0.3567137,-0.0564127,1.483052,NA,NA,NotTracked,Closed,
0.9326172,-0.3613281,-0.05615234,-0.8496094,0.4082031,0.4995117,0,0,-1,-2,-1,1,0,-3,-7,-8,-1,-2,-4,-1,-3,-1,1.375,1.375,1.375,-13.4375,-13.4375,-13.4375,2.297753,3.122114,8.786705,5.99184,6.42898,7.051224,-0.1000815,-0.4997466,1.652062,0.2979121,0.255113,1.360992,0.1166822,0.3389107,1.747274,-0.1504253,-0.4815135,1.670294,0.2606618,0.2758811,1.3851,0.1084215,-0.1193212,1.744537,0.09569503,-0.4306945,1.722055,-0.05841494,0.06722395,1.759452,0.0114493,-0.4219433,1.697843,-0.1224919,-0.1902995,1.761079,0.3557054,-0.05591657,1.482003,NA,NA,NotTracked,Closed,
0.9321289,-0.3789063,-0.04785156,-0.8359375,0.4072266,0.5253906,0,0,0,-2,0,0,-2,0,8,38,7,11,7,2,6,4,-2.75,-2.75,-2.75,-9.9375,-9.9375,-9.9375,2.288854,3.116711,8.793523,5.990227,6.428061,7.055439,-0.1004075,-0.5007604,1.654022,0.2964476,0.2544898,1.36265,0.1165805,0.3388958,1.747317,-0.1513092,-0.4783475,1.6742,0.2626654,0.2588696,1.380401,0.1083091,-0.1191816,1.744776,0.09557884,-0.4308246,1.72214,-0.05832136,0.06711927,1.759549,0.0113261,-0.4221544,1.698085,-0.122527,-0.1903188,1.761256,0.3556879,-0.05593856,1.482004,NA,NA,NotTracked,Closed,
0.9223633,-0.3730469,-0.05078125,-0.8291016,0.4306641,0.4736328,-2,0,1,-1,-2,0,-1,-2,-13,2,5,14,2,-1,-3,-2,-2.625,-2.625,-2.625,-3.875,-3.875,-3.875,2.284783,3.113664,8.796403,5.998147,6.429059,7.068321,-0.1004813,-0.5000697,1.654456,0.2943006,0.2545266,1.361815,0.1165424,0.3387473,1.747314,-0.1492445,-0.495191,1.661125,0.261209,0.2641554,1.385182,0.1082634,-0.1190448,1.744879,0.09549373,-0.4308704,1.722141,-0.05832492,0.06707096,1.759568,0.01128053,-0.4221869,1.698114,-0.1225202,-0.1905472,1.761591,0.3552216,-0.05603153,1.481626,NA,NA,NotTracked,Closed,
0.9208984,-0.3823242,-0.05566406,-0.7885742,0.4077148,0.4985352,-1,-1,-2,-2,1,1,0,-2,2,17,1,-5,-1,0,0,-2,-0.625,-0.625,-0.625,3.9375,3.9375,3.9375,2.274595,3.107933,8.804705,5.999757,6.4276,7.067189,-0.1003165,-0.5007783,1.655386,0.2950315,0.2536504,1.360356,0.1164671,0.338741,1.747213,-0.1498092,-0.488389,1.665027,0.2580833,0.2678273,1.376417,0.1082118,-0.1189794,1.744989,0.09539364,-0.4309916,1.722195,-0.0582353,0.06709741,1.759644,0.01119484,-0.4223201,1.698261,-0.1224895,-0.190724,1.761866,0.3548072,-0.05626043,1.481368,NA,NA,NotTracked,Closed,
0.9155273,-0.3818359,-0.05664063,-0.7729492,0.4262695,0.4960938,-1,1,-3,1,-1,-1,0,0,-2,-22,-8,-11,-3,-1,2,-3,0,0,0,8.1875,8.1875,8.1875,2.270236,3.106289,8.809916,6.00538,6.425331,7.066914,-0.1007098,-0.5009063,1.655592,0.294205,0.2540001,1.361808,0.116433,0.3387502,1.747162,-0.1499194,-0.4878466,1.6646,0.2595317,0.2673586,1.383225,0.1081971,-0.1188337,1.745095,0.09520922,-0.4309519,1.722226,-0.06117552,0.06710923,1.759177,0.01100572,-0.4222897,1.698452,-0.1224066,-0.1910341,1.762049,0.3546248,-0.05665327,1.481102,NA,NA,NotTracked,Closed,
0.9155273,-0.3818359,-0.05664063,-0.7729492,0.4262695,0.4960938,-1,1,-3,1,-1,-1,0,0,-2,-22,-8,-11,-3,-1,2,-3,0,0,0,8.1875,8.1875,8.1875,2.270236,3.106289,8.809916,6.00538,6.425331,7.066914,-0.1010183,-0.5010796,1.656857,0.296098,0.2503665,1.361631,0.1163982,0.3388047,1.747147,-0.1496439,-0.4902244,1.665959,0.2605765,0.2562293,1.374056,0.1082204,-0.1186997,1.745269,0.0950996,-0.4309822,1.722298,-0.06068411,0.06719711,1.759274,0.01094107,-0.4223025,1.698513,-0.1224287,-0.1910934,1.762232,0.3535192,-0.05673268,1.480783,NA,NA,NotTracked,Closed,
0.9155273,-0.3813477,-0.05029297,-0.7646484,0.3637695,0.5039063,-2,-2,0,0,1,-1,1,0,-1,-1,-1,-2,-3,-1,-2,-1,-1.25,-1.25,-1.25,4.6875,4.6875,4.6875,2.265139,3.104232,8.814126,6.011299,6.418647,7.066392,-0.1012168,-0.5008321,1.657309,0.296653,0.2507962,1.360884,0.1164108,0.3387287,1.747088,-0.1503691,-0.4875293,1.667603,0.2586324,0.2694194,1.383316,0.1081917,-0.1186556,1.745305,0.09500059,-0.4310961,1.722317,-0.0603687,0.06719043,1.759344,0.01086315,-0.4224074,1.69862,-0.1225497,-0.1912939,1.762452,0.3533146,-0.05691184,1.480544,NA,NA,NotTracked,Closed,
0.9174805,-0.3813477,-0.05175781,-0.7329102,0.4008789,0.4956055,-1,-2,-3,-1,-2,-2,-3,-1,-2,-4,-1,1,-5,1,0,-1,-2.75,-2.75,-2.75,11.9375,11.9375,11.9375,2.259979,3.102502,8.816892,6.021281,6.411264,7.06046,-0.1012474,-0.5010478,1.657226,0.2970377,0.2505633,1.361341,0.1163552,0.3387568,1.746969,-0.1495913,-0.4917741,1.661519,0.259687,0.2666698,1.383538,0.1078577,-0.1192706,1.744588,0.09495249,-0.4311113,1.722313,-0.06023448,0.06719295,1.759386,0.01083533,-0.422414,1.69864,-0.1225876,-0.1914789,1.762635,0.3531697,-0.05722803,1.480254,NA,NA,NotTracked,Closed,
0.921875,-0.378418,-0.05078125,-0.7104492,0.3813477,0.4707031,-3,-1,0,-1,-2,-1,-2,-1,-1,0,0,4,2,0,-5,-1,-3.75,-3.75,-3.75,13.5625,13.5625,13.5625,2.255144,3.101038,8.818215,6.033331,6.39995,7.057157,-0.1014523,-0.503459,1.656396,0.2987995,0.249523,1.360756,0.1163398,0.3387771,1.746701,-0.1513675,-0.4817469,1.670748,0.2570987,0.2868821,1.404572,0.1073907,-0.1199429,1.743928,0.09477276,-0.4312626,1.722307,-0.06019126,0.06720556,1.75938,0.01070771,-0.4225195,1.698687,-0.1225854,-0.191494,1.762676,0.3546772,-0.05881147,1.481612,NA,NA,NotTracked,Closed,
0.9243164,-0.3701172,-0.04785156,-0.6015625,0.3662109,0.4892578,-3,-1,-1,-2,0,0,0,-1,-10,-10,-2,0,-1,-3,0,-1,-3.125,-3.125,-3.125,33.9375,33.9375,33.9375,2.251916,3.099176,8.817787,6.060393,6.378492,7.054501,-0.101724,-0.503317,1.657719,0.2989604,0.2469136,1.361294,0.1163268,0.3388712,1.746389,-0.1539224,-0.4862487,1.679846,0.2626309,0.2651362,1.3955,0.1073565,-0.1197706,1.744019,0.0946662,-0.4313019,1.722332,-0.06013472,0.06723983,1.759409,0.01065049,-0.4225259,1.698716,-0.1226248,-0.1916605,1.762696,0.3546841,-0.05923051,1.481419,NA,NA,NotTracked,Closed,
0.9204102,-0.3647461,-0.04296875,-0.6289063,0.387207,0.4833984,-1,-1,-1,-1,-3,-1,-1,-1,1,1,0,-2,-2,1,-1,-3,-1.25,-1.25,-1.25,68.0625,68.0625,68.0625,2.255189,3.098142,8.810796,6.119653,6.347562,7.044216,-0.1025198,-0.5041586,1.656238,0.3002355,0.2428392,1.359757,0.116432,0.3387933,1.746112,-0.1511884,-0.4953662,1.662714,0.2516545,0.2927396,1.42125,0.1073558,-0.119721,1.744028,0.09456629,-0.4313707,1.722346,-0.06006135,0.0672911,1.75929,0.01056178,-0.4225907,1.698801,-0.1226973,-0.1917643,1.762713,0.355756,-0.05997102,1.481136,NA,NA,NotTracked,Closed,
0.9204102,-0.3647461,-0.04296875,-0.6289063,0.387207,0.4833984,-1,-1,-1,-1,-3,-1,-1,-1,1,1,0,-2,-2,1,-1,-3,-1.25,-1.25,-1.25,68.0625,68.0625,68.0625,2.255189,3.098142,8.810796,6.119653,6.347562,7.044216,-0.1028618,-0.5041674,1.655189,0.298876,0.2365302,1.357717,0.1163104,0.3388801,1.744923,-0.1517443,-0.4959591,1.661455,0.2490081,0.271358,1.379111,0.1073992,-0.1196465,1.743993,0.0944902,-0.4314463,1.722299,-0.05973979,0.06736803,1.759009,0.01052646,-0.4226173,1.698778,-0.1227238,-0.1917802,1.762696,0.3586668,-0.06239722,1.481174,NA,NA,NotTracked,Closed,
0.9296875,-0.3530273,-0.05126953,-0.5839844,0.3881836,0.4775391,-2,-1,0,-2,-1,-1,-1,-1,-11,0,-1,0,-3,-1,1,-1,0.625,0.625,0.625,66.3125,66.3125,66.3125,2.26184,3.097297,8.804145,6.188856,6.306052,7.038215,-0.1027354,-0.5014973,1.656978,0.2975829,0.2281954,1.357646,0.1162989,0.339021,1.744491,-0.1506018,-0.4922163,1.664885,0.2516693,0.2500747,1.400286,0.1073935,-0.1195584,1.744021,0.09445949,-0.4314775,1.722334,-0.05954754,0.06761597,1.758945,0.010521,-0.4226186,1.698775,-0.1227265,-0.1919981,1.762718,0.3612592,-0.06427232,1.481918,NA,NA,NotTracked,Closed,
0.9257813,-0.3574219,-0.05322266,-0.6181641,0.4208984,0.5063477,-1,-1,-2,-2,-2,-2,-2,-2,-5,-5,-3,0,0,1,-7,-6,0.6875,0.6875,0.6875,61.9375,61.9375,61.9375,2.26912,3.09503,8.797329,6.256279,6.24276,7.036355,-0.1031522,-0.501797,1.654831,0.2967694,0.2136833,1.351934,0.1164078,0.3392237,1.743605,-0.152075,-0.4805463,1.668755,0.2442523,0.2436428,1.3766,0.1071606,-0.1201234,1.743382,0.0944558,-0.4314911,1.722329,-0.05939873,0.06776448,1.758624,0.01055468,-0.4226315,1.698727,-0.1228771,-0.1917566,1.762498,0.3678032,-0.07108496,1.485689,NA,NA,NotTracked,Closed,
0.9316406,-0.3359375,-0.05029297,-0.5083008,0.4399414,0.4887695,0,-1,-2,0,-2,2,-2,-1,-2,-1,-1,0,0,-3,-2,-2,-5.3125,-5.3125,-5.3125,58.125,58.125,58.125,2.271985,3.088787,8.789757,6.311484,6.162239,7.031104,-0.1028891,-0.5019235,1.654545,0.2957882,0.1950706,1.349449,0.1162059,0.339309,1.742423,-0.151263,-0.4893498,1.666415,0.2470222,0.2157806,1.374286,0.1070386,-0.1204895,1.742934,0.09445903,-0.4314943,1.722345,-0.06293577,0.06746479,1.75759,0.01057688,-0.4226403,1.698728,-0.1228628,-0.1917683,1.762382,0.3594405,-0.06191705,1.508232,NA,NA,NotTracked,Closed,
0.921875,-0.362793,-0.04248047,-0.5283203,0.4384766,0.5092773,-2,-1,-2,0,0,-1,-2,-1,-2,-4,-4,-7,-7,-4,5,1,-7.8125,-7.8125,-7.8125,71.4375,71.4375,71.4375,2.269373,3.082679,8.783185,6.379844,6.05622,7.024906,-0.1020145,-0.501205,1.654147,0.2961084,0.1739459,1.345516,0.116207,0.339553,1.741149,-0.1501896,-0.4921316,1.663967,0.255854,0.204614,1.3932,0.1069329,-0.120795,1.742491,0.09450018,-0.4314921,1.722352,-0.06260514,0.06729397,1.756955,0.01071393,-0.4225864,1.698566,-0.1231049,-0.1919175,1.761954,0.3596798,-0.06710725,1.515931,NA,NA,NotTracked,Closed,
0.9384766,-0.3310547,-0.05029297,-0.4941406,0.5195313,0.4174805,-2,0,-1,-1,-1,0,-2,-2,0,1,-1,-1,0,2,-3,0,-0.8125,-0.8125,-0.8125,47.1875,47.1875,47.1875,2.274514,3.077047,8.775036,6.436964,5.914796,7.025588,-0.101932,-0.5015869,1.655161,0.2925774,0.1199704,1.332392,0.1159295,0.3397987,1.739608,-0.1519662,-0.4763935,1.681385,0.243452,0.1528288,1.336286,0.1066502,-0.1207369,1.741857,0.09444384,-0.4314695,1.722293,-0.06241971,0.06748729,1.75606,0.01061648,-0.4223635,1.698194,-0.1231888,-0.1920723,1.7615,0.3617302,-0.1035254,1.551735,NA,NA,NotTracked,Closed,
0.9165039,-0.3603516,-0.04003906,-0.315918,0.5458984,0.440918,-1,0,-2,-2,-3,-1,-1,0,0,-1,-5,1,-15,-5,-6,-2,-2.5,-2.5,-2.5,56.25,56.25,56.25,2.280539,3.072428,8.766323,6.503439,5.727802,7.041767,-0.100979,-0.5028845,1.652567,0.2889574,0.08258548,1.323888,0.1157103,0.3398225,1.738449,-0.148909,-0.4912772,1.66535,0.2427567,0.1079999,1.324222,0.1066462,-0.1207042,1.741782,0.09452567,-0.4317675,1.722173,-0.0625835,0.06745218,1.755396,0.01074213,-0.4225874,1.697817,-0.1235146,-0.1921442,1.76104,0.3626563,-0.1137862,1.564709,NA,NA,NotTracked,Closed,
0.9238281,-0.3662109,-0.02880859,-0.3203125,0.703125,0.4995117,-2,-2,-2,-1,-1,-2,-1,-2,2,4,-1,0,-6,-5,-10,1,-0.0625,-0.0625,-0.0625,47.5,47.5,47.5,2.287425,3.070865,8.759062,6.571906,5.496069,7.071081,-0.1009583,-0.502686,1.652464,0.2898359,0.0340209,1.321262,0.1155256,0.3398246,1.737348,-0.1495318,-0.4897329,1.669047,0.2462694,0.06028534,1.322857,0.1065521,-0.1206344,1.741572,0.09452231,-0.4319811,1.721946,-0.06268767,0.06741858,1.754883,0.01071363,-0.4228948,1.696942,-0.1237416,-0.1923347,1.760506,0.3893302,-0.174181,1.599833,NA,NA,NotTracked,Closed,
0.9438477,-0.3261719,-0.05810547,-0.1416016,0.815918,0.4257813,-2,0,-1,0,-2,-1,-2,0,-1,-2,4,1,15,9,-6,1,0.625,0.625,0.625,38.625,38.625,38.625,2.298739,3.068397,8.748128,6.620787,5.219056,7.09642,-0.1005028,-0.5033936,1.652364,0.2893916,-0.0213261,1.325595,0.1153481,0.3400323,1.736636,-0.1488754,-0.4867864,1.668172,0.2404813,0.009803915,1.344667,0.1064789,-0.1203111,1.74131,0.09457777,-0.4318253,1.721836,-0.06293366,0.06740782,1.754426,0.01083761,-0.4227041,1.696692,-0.1240019,-0.1926454,1.760023,0.3921074,-0.1864152,1.618576,NA,NA,NotTracked,Closed,
0.9370117,-0.3574219,-0.03808594,0.03759766,0.7958984,0.5043945,-1,0,-1,0,1,-2,-1,-2,-3,-1,0,-3,-13,-7,-3,-2,5.75,5.75,5.75,60.1875,60.1875,60.1875,2.322463,3.067816,8.729487,6.68193,4.914775,7.127519,-0.1001549,-0.5031294,1.650666,0.2813054,-0.0762664,1.319967,0.1151729,0.3399699,1.735633,-0.1469027,-0.4941072,1.665333,0.2417181,-0.05074777,1.331667,0.1064134,-0.120027,1.740833,0.09466477,-0.4317603,1.72141,-0.06336855,0.06729125,1.753971,0.01103502,-0.4225809,1.695881,-0.124191,-0.1927802,1.759674,0.3672868,-0.1215416,1.595314,NA,NA,NotTracked,Closed,
0.9438477,-0.3325195,-0.046875,0.2416992,0.9462891,0.4648438,-2,-4,-1,-2,-2,-1,-2,0,-2,-8,-5,-3,5,5,-3,-1,3.875,3.875,3.875,80.75,80.75,80.75,2.328984,3.067671,8.724686,6.757974,4.578901,7.160577,-0.09891282,-0.5032665,1.650074,0.2803853,-0.2149762,1.332029,0.1142752,0.340058,1.733839,-0.1470379,-0.4822268,1.677364,0.256493,-0.2170497,1.316286,0.1060926,-0.1194399,1.74001,0.0947349,-0.4314515,1.720883,-0.06406961,0.0672937,1.753041,0.01121918,-0.4221002,1.694567,-0.1244195,-0.1934874,1.758894,0.4033025,-0.1230634,1.642197,NA,NA,NotTracked,Unknown,
0.9570313,-0.3408203,-0.046875,0.5292969,0.8276367,0.4951172,0,-2,-1,-3,-2,-1,-2,0,-3,-19,-22,-3,0,-2,3,0,1.25,1.25,1.25,53.3125,53.3125,53.3125,2.333391,3.066058,8.721161,6.829904,4.260206,7.164816,-0.09827263,-0.5033953,1.647348,0.2836536,-0.2562914,1.376055,0.1139792,0.3400348,1.733029,-0.1453506,-0.4799401,1.666448,0.2545571,-0.2320551,1.342,0.105943,-0.119194,1.739194,0.0947072,-0.4313363,1.720435,-0.06461371,0.06709688,1.752268,0.01123911,-0.4219558,1.693905,-0.124438,-0.1938731,1.758362,0.3754447,-0.1401166,1.661418,NA,NA,NotTracked,Unknown,
0.9321289,-0.3286133,-0.05761719,0.6591797,0.8330078,0.3808594,0,0,0,-1,-1,-3,-2,0,1,5,15,1,2,0,0,-4,2.125,2.125,2.125,62.5625,62.5625,62.5625,2.336989,3.064789,8.722071,6.907961,3.973703,7.141045,-0.09783945,-0.5027293,1.649233,0.2858034,-0.3152671,1.406848,0.1135601,0.3399467,1.732254,-0.147075,-0.481365,1.670758,0.2457733,-0.2941341,1.389572,0.1057326,-0.1189733,1.738671,0.09464125,-0.4312105,1.720098,-0.06519505,0.06712162,1.75194,0.0112257,-0.4216675,1.693073,-0.1244368,-0.1938602,1.758331,0.4112165,-0.1403258,1.659923,NA,NA,NotTracked,Unknown,
0.9414063,-0.3344727,-0.04541016,0.8623047,0.9370117,0.2817383,-1,1,-2,0,-3,0,-1,-1,2,5,-20,-7,2,-1,-3,1,-0.625,-0.625,-0.625,74.625,74.625,74.625,2.332654,3.063534,8.726192,7.004526,3.693047,7.115262,-0.09772244,-0.5028062,1.647893,0.2901822,-0.3668162,1.437047,0.1133294,0.3398529,1.731365,-0.1463316,-0.4750208,1.669062,0.2598718,-0.3598204,1.406,0.105629,-0.1187555,1.737947,0.09464192,-0.4311354,1.719614,-0.06569731,0.06701268,1.751,0.01123746,-0.4214968,1.692161,-0.1243416,-0.1939315,1.758111,0.3625718,-0.157862,1.671568,NA,NA,NotTracked,Unknown,
0.9428711,-0.3579102,-0.04150391,0.9863281,1.003418,0.2480469,0,-2,-1,0,-2,0,-2,-2,-1,-6,-11,-1,-1,0,1,-4,-1.3125,-1.3125,-1.3125,9.875,9.875,9.875,2.321694,3.060434,8.736576,7.134278,3.461649,6.996617,-0.09840342,-0.5031837,1.648219,0.2970064,-0.4059696,1.472654,0.1133161,0.3399132,1.73048,-0.1463594,-0.5009377,1.66245,0.2484521,-0.451374,1.476,0.1057265,-0.118614,1.737483,0.09478553,-0.4311206,1.719346,-0.06602728,0.06720918,1.750491,0.0115056,-0.4214103,1.691614,-0.1243352,-0.1941388,1.757764,0.3616417,-0.1613054,1.672086,NA,NA,NotTracked,Unknown,
0.9501953,-0.3139648,-0.04492188,1.128418,0.7294922,0.06982422,-1,-1,0,-2,-1,-1,-1,-2,-1,1,3,0,1,-2,-5,-1,-5.375,-5.375,-5.375,-92.8125,-92.8125,-92.8125,2.305119,3.054705,8.74931,7.217438,3.272545,6.806813,-0.09931121,-0.5027809,1.649169,0.3127347,-0.4685546,1.532964,0.1135726,0.339961,1.72875,-0.1457535,-0.5077314,1.651471,0.267746,-0.4841819,1.520837,0.1059633,-0.1185318,1.736148,0.09582449,-0.4312925,1.718355,-0.06655478,0.06717587,1.749079,0.01287387,-0.4215361,1.690027,-0.1247665,-0.194557,1.756362,0.3529382,-0.1789272,1.675774,NA,NA,NotTracked,Unknown,
0.9511719,-0.3461914,-0.04443359,1.112793,0.5351563,-0.0234375,0,-1,-1,-1,-1,-2,0,-1,-1,2,4,1,0,0,-1,1,-5.5625,-5.5625,-5.5625,-54.125,-54.125,-54.125,2.285807,3.051463,8.762477,7.317307,3.119854,6.605296,-0.09975008,-0.503025,1.64951,0.3193001,-0.4899009,1.558177,0.1139465,0.3399615,1.727442,-0.1499656,-0.4753053,1.678539,0.276522,-0.5049567,1.546767,0.1061867,-0.1185771,1.7357,0.09651659,-0.4314646,1.718047,-0.06662662,0.06725567,1.748457,0.01373143,-0.4216463,1.689572,-0.1250403,-0.1946791,1.755584,0.3489434,-0.1871205,1.677736,NA,NA,NotTracked,Closed,
0.9384766,-0.3505859,-0.04296875,1.09668,0.5810547,-0.02392578,-1,-3,0,-1,-2,0,1,-2,0,0,2,1,-1,-1,-1,0,1.6875,1.6875,1.6875,-1.8125,-1.8125,-1.8125,2.279374,3.049555,8.769977,7.445699,3.037326,6.46201,-0.09947973,-0.5034052,1.647755,0.3223626,-0.503554,1.577833,0.1145477,0.3398336,1.726166,-0.1462978,-0.4982992,1.651,0.2785117,-0.520786,1.568568,0.1067253,-0.1185654,1.73495,0.09765634,-0.4315638,1.717534,-0.06666426,0.06732314,1.747759,0.0150186,-0.4218033,1.688831,-0.1249863,-0.1948489,1.755184,0.3450486,-0.193574,1.680324,NA,NA,NotTracked,Closed,
0.9331055,-0.3251953,-0.05419922,1.061523,0.4609375,-0.02783203,-2,-1,-2,0,0,-1,-1,-1,-2,-2,0,-2,0,-1,7,-5,0.125,0.125,0.125,11.875,11.875,11.875,2.275948,3.047797,8.773438,7.488021,3.002392,6.427127,-0.1003224,-0.5023521,1.648429,0.3214141,-0.5070802,1.596271,0.1149096,0.3396656,1.725168,-0.1498789,-0.4781076,1.667812,0.2678562,-0.4577594,1.615706,0.10726,-0.1185787,1.734143,0.09847751,-0.4316802,1.717151,-0.06660537,0.06741367,1.746732,0.01592684,-0.4219115,1.688209,-0.1248525,-0.1949041,1.754856,0.3429805,-0.1958245,1.68314,NA,NA,NotTracked,NotTracked,
0.9145508,-0.3374023,-0.04394531,0.9755859,0.4321289,0.06298828,-2,0,0,-1,-2,0,0,-2,2,0,-1,0,0,0,-22,-2,-9.1875,-9.1875,-9.1875,23.9375,23.9375,23.9375,2.255148,3.042805,8.782039,7.442758,2.992393,6.499126,-0.1003299,-0.5034465,1.650822,0.318581,-0.5090453,1.611843,0.1153978,0.3395749,1.724569,-0.1484095,-0.4872122,1.663761,0.2733501,-0.4865251,1.626191,0.1077289,-0.1185114,1.733732,0.09927867,-0.4317448,1.717043,-0.06651282,0.06773368,1.746131,0.01676335,-0.4219461,1.687947,-0.1249117,-0.1947898,1.75469,0.3418486,-0.1986094,1.687701,NA,NA,NotTracked,NotTracked,
0.9125977,-0.347168,-0.04296875,0.8994141,0.4555664,0.08886719,-1,1,-3,-1,-1,-1,-1,-2,-1,-2,1,1,2,0,3,1,-6.5,-6.5,-6.5,8.0625,8.0625,8.0625,2.250461,3.042945,8.783563,7.353814,2.998373,6.606374,-0.1013635,-0.5025036,1.649747,0.312849,-0.5048515,1.621033,0.1165995,0.3394291,1.723063,-0.1512076,-0.4923361,1.669716,0.2705193,-0.475483,1.621012,0.1082995,-0.1184951,1.732698,0.09991787,-0.4318051,1.716454,-0.06628848,0.06812563,1.74453,0.01740231,-0.4219541,1.68708,-0.1251068,-0.1947777,1.753909,0.3418906,-0.2002213,1.696575,NA,NA,NotTracked,NotTracked,
0.9414063,-0.3251953,-0.03710938,0.8413086,0.4130859,0.09082031,0,-2,-2,0,-1,0,-1,0,0,-2,0,1,-2,-1,-7,-2,-4.8125,-4.8125,-4.8125,-8.5625,-8.5625,-8.5625,2.240945,3.040948,8.788408,7.270567,3.013131,6.689163,-0.1024367,-0.5028338,1.649899,0.3103643,-0.5004033,1.622067,0.1171337,0.3393044,1.722472,-0.1527284,-0.5035037,1.664263,0.2693707,-0.4710361,1.618739,0.1085607,-0.1185854,1.732267,0.1001294,-0.4318844,1.71629,-0.0662699,0.06817973,1.743838,0.01758508,-0.4220086,1.68691,-0.1249641,-0.1949976,1.753251,0.3423409,-0.2004437,1.700573,NA,NA,NotTracked,NotTracked,
0.949707,-0.3374023,-0.02685547,0.8583984,0.3505859,0.1005859,-3,0,-1,-1,-2,-2,-1,0,1,-2,-3,1,0,-3,-2,0,-4.75,-4.75,-4.75,-12.875,-12.875,-12.875,2.238826,3.040354,8.785149,7.201361,3.025411,6.745684,-0.1019645,-0.5023473,1.649294,0.3094183,-0.498859,1.623114,0.1176404,0.3392254,1.721726,-0.1512471,-0.4884484,1.668404,0.2697538,-0.467294,1.619354,0.1086692,-0.1186145,1.732011,0.1002752,-0.4319112,1.716151,-0.0662293,0.06816297,1.7433,0.01774112,-0.4220029,1.686656,-0.1249827,-0.1950981,1.752765,0.3425183,-0.1997519,1.704551,NA,NA,NotTracked,NotTracked,
0.9545898,-0.3344727,-0.03369141,0.8735352,0.3242188,0.07275391,0,-1,0,0,-1,-2,-2,-2,-2,-1,-1,-2,-2,-2,3,1,-3.1875,-3.1875,-3.1875,-1,-1,-1,2.241334,3.040216,8.780918,7.16989,3.033344,6.772989,-0.1017001,-0.503668,1.648,0.3077383,-0.4955719,1.622546,0.118025,0.3391472,1.721071,-0.1517687,-0.4868593,1.668281,0.2679985,-0.4575433,1.615346,0.108767,-0.1187882,1.731658,0.1006679,-0.4319804,1.715902,-0.06612395,0.06805956,1.742653,0.01807477,-0.4220868,1.686367,-0.1249326,-0.1952152,1.751951,0.3427292,-0.1993049,1.707017,NA,NA,NotTracked,NotTracked,
0.9433594,-0.3193359,-0.03955078,0.9013672,0.3354492,0.06054688,-1,0,-2,0,-1,0,-1,0,0,-1,-2,-1,-1,0,1,1,-5.5625,-5.5625,-5.5625,8.0625,8.0625,8.0625,2.260187,3.039944,8.755071,7.167746,3.037678,6.783304,-0.1009735,-0.5026891,1.647616,0.3082288,-0.4939398,1.622809,0.1182463,0.3390665,1.720802,-0.150777,-0.4987205,1.668891,0.2693499,-0.4659377,1.61761,0.1090259,-0.118833,1.73133,0.1007622,-0.4319904,1.715764,-0.06600305,0.06813876,1.741932,0.01812186,-0.4220641,1.686243,-0.1249848,-0.1952069,1.751337,0.3425799,-0.1989062,1.708871,NA,NA,NotTracked,NotTracked,
0.9433594,-0.3193359,-0.03955078,0.9013672,0.3354492,0.06054688,-1,0,-2,0,-1,0,-1,0,-1,-1,-2,0,2,2,2,1,-5.5625,-5.5625,-5.5625,8.0625,8.0625,8.0625,2.260187,3.039944,8.755071,7.167746,3.037678,6.783304,-0.1007747,-0.5021909,1.645759,0.3076365,-0.4932705,1.621642,0.1186017,0.3389295,1.72014,-0.1512807,-0.4842288,1.674,0.269092,-0.4663058,1.615572,0.1092507,-0.1189115,1.730995,0.1010126,-0.4321343,1.715588,-0.06587729,0.06814783,1.741153,0.01834285,-0.4222471,1.685972,-0.1248608,-0.1950763,1.750377,0.3424601,-0.1991442,1.709799,NA,NA,NotTracked,NotTracked,
0.9433594,-0.3193359,-0.03955078,0.9155273,0.3378906,0.05566406,-2,0,-1,1,-3,-2,0,0,-2,-2,-2,-1,-1,1,6,3,-5.5625,-5.5625,-5.5625,5.25,5.25,5.25,2.260187,3.039944,8.755071,7.171717,3.041924,6.787708,-0.09937187,-0.5023473,1.645534,0.307498,-0.4929261,1.622121,0.1187186,0.3389465,1.720004,-0.1486243,-0.4904155,1.665721,0.2686088,-0.4653184,1.615503,0.1094954,-0.1188478,1.730803,0.1013558,-0.4320413,1.715407,-0.06570059,0.06835472,1.740516,0.01863986,-0.4221414,1.68571,-0.1248137,-0.1951423,1.750054,0.3423373,-0.198692,1.711064,NA,NA,NotTracked,NotTracked,
0.9394531,-0.3188477,-0.05273438,0.9150391,0.3251953,0.05712891,0,0,0,-1,1,0,0,-2,-2,0,-2,0,-1,0,-6,-1,-2.125,-2.125,-2.125,-0.25,-0.25,-0.25,2.283734,3.04103,8.723432,7.16942,3.042819,6.790203,-0.09882694,-0.5022644,1.643936,0.3074944,-0.4925182,1.62094,0.1188945,0.338886,1.719859,-0.1485738,-0.490917,1.668833,0.2694188,-0.4644918,1.615652,0.1096679,-0.1188996,1.730544,0.1016087,-0.4320638,1.715257,-0.06575451,0.06836511,1.740054,0.01885878,-0.4221576,1.685439,-0.1244202,-0.1952221,1.749341,0.3422686,-0.1986574,1.711666,NA,NA,NotTracked,NotTracked,
0.9394531,-0.3188477,-0.05273438,0.9296875,0.2978516,0.05810547,-1,-2,-3,-3,0,-2,-1,-2,-1,-2,-2,0,1,0,1,1,-2.125,-2.125,-2.125,3.4375,3.4375,3.4375,2.283734,3.04103,8.723432,7.171661,3.041599,6.789962,-0.09773082,-0.5014744,1.642606,0.3078277,-0.4901877,1.621474,0.1189697,0.338896,1.719759,-0.1439375,-0.492604,1.653391,0.2693628,-0.4657024,1.615931,0.1096997,-0.1189866,1.730382,0.1017627,-0.4321886,1.715112,-0.06571473,0.06838229,1.73949,0.01891355,-0.4222645,1.685335,-0.1243601,-0.1953163,1.748648,0.3422248,-0.1986057,1.711976,NA,NA,NotTracked,NotTracked,
0.9433594,-0.3261719,-0.05371094,0.9291992,0.3105469,0.06835938,1,0,-2,-2,0,-1,0,-1,-3,-2,-3,-1,0,0,-4,0,-1.5,-1.5,-1.5,0.9375,0.9375,0.9375,2.301226,3.042517,8.700704,7.174118,3.041121,6.789785,-0.09701493,-0.500953,1.642222,0.2995781,-0.4967268,1.619996,0.1190217,0.3388725,1.719634,-0.1423339,-0.4930007,1.652173,0.2523862,-0.4665478,1.598359,0.1097484,-0.1190135,1.730341,0.1018394,-0.4322111,1.715105,-0.06567492,0.06838361,1.739205,0.01897239,-0.4222913,1.685304,-0.124331,-0.1954618,1.748408,0.3422113,-0.1985874,1.712113,NA,NA,NotTracked,NotTracked,
