ALX,ALY,ALZ,ARX,ARY,ARZ,EMG0L,EMG1L,EMG2L,EMG3L,EMG4L,EMG5L,EMG6L,EMG7L,EMG0R,EMG1R,EMG2R,EMG3R,EMG4R,EMG5R,EMG6R,EMG7R,GLX,GLY,GLZ,GRX,GRY,GRZ,ORL,OPL,OYL,ORR,OPR,OYR,LHNX,LHNY,LHNZ,RHNX,RHNY,RHNZ,HX,HY,HZ,LTX,LTY,LTZ,RTX,RTY,RTZ,SpineMidX,SpineMidY,SpineMidZ,SpineBaseX,SpineBaseY,SpineBaseZ,ShoulderLeftX,ShoulderLeftY,ShoulderLeftZ,ShoulderRightX,ShoulderRightY,ShoulderRightZ,ElbowLeftX,ElbowLeftY,ElbowLeftZ,ElbowRightX,ElbowRightY,ElbowRightZ,Myo_Pose_left,Myo_Pose_Right,Kinect_pose_left,Kinect_pose_right
0.9350586,-0.3305664,-0.05224609,0.9165039,0.3305664,0.08496094,0,1,0,-1,-2,0,0,-2,-6,-6,-2,-1,-2,-2,-2,-4,0.25,0.25,0.25,0.1875,0.1875,0.1875,2.270864,3.053541,8.796883,7.098928,3.076884,6.798836,-0.09451206,-0.5035346,1.638744,0.293559,-0.4940434,1.608721,0.1236287,0.3377831,1.725713,-0.1448292,-0.5030432,1.651006,0.3370762,-0.5072173,1.591035,0.1124618,-0.1194,1.733002,0.1054742,-0.4326578,1.71657,-0.06304825,0.06818925,1.736959,0.0220062,-0.4223726,1.685764,-0.1245144,-0.1935725,1.741332,0.336612,-0.2024185,1.710437,NA,NA,NotTracked,NotTracked,
0.940918,-0.3325195,-0.04589844,0.921875,0.3134766,0.08984375,-1,-1,-1,-1,-3,0,-1,0,-1,8,-1,-2,-3,-2,-1,2,0.875,0.875,0.875,5.125,5.125,5.125,2.275765,3.052812,8.792464,7.089001,3.0764,6.813972,-0.09386425,-0.5031595,1.639266,0.2939884,-0.494408,1.609564,0.123611,0.3378124,1.72566,-0.1435724,-0.4961872,1.653134,0.3373171,-0.4948831,1.592345,0.1124076,-0.1194279,1.733007,0.1054847,-0.4326709,1.716574,-0.06305734,0.06818502,1.736955,0.02201761,-0.4224072,1.685782,-0.1244275,-0.1937046,1.741288,0.3366582,-0.2024674,1.710486,NA,NA,NotTracked,NotTracked,
0.9360352,-0.3393555,-0.05273438,0.9291992,0.3774414,0.04736328,-1,-2,-2,-2,-1,0,-1,-1,1,0,-4,2,2,-1,4,1,0.5,0.5,0.5,1.9375,1.9375,1.9375,2.277555,3.053216,8.790826,7.078097,3.080011,6.830547,-0.09409841,-0.5036578,1.638515,0.2932131,-0.4988693,1.607853,0.1235348,0.3378553,1.725593,-0.143102,-0.5002387,1.649206,0.3370649,-0.4981844,1.592001,0.1123998,-0.1194335,1.732994,0.1054752,-0.432675,1.716567,-0.06305538,0.06818903,1.736953,0.02201305,-0.4224164,1.685771,-0.1243515,-0.1937809,1.741198,0.3366929,-0.2024685,1.710523,NA,NA,NotTracked,NotTracked,
0.9379883,-0.3374023,-0.05712891,0.9970703,0.4448242,0.0546875,-1,-2,-2,-1,-2,-2,-1,-2,1,-4,-4,-1,0,1,-3,-1,1.25,1.25,1.25,-23.6875,-23.6875,-23.6875,2.278329,3.053566,8.790701,7.042051,3.097648,6.851968,-0.09398033,-0.5032471,1.639441,0.2933952,-0.5009269,1.607648,0.1235265,0.33786,1.725575,-0.1467301,-0.5179225,1.647941,0.3367512,-0.5007772,1.590561,0.1124025,-0.1194359,1.732987,0.1055463,-0.4326874,1.716524,-0.06306508,0.0681801,1.736948,0.02208611,-0.4224316,1.685718,-0.1243393,-0.193783,1.741204,0.3367004,-0.2024601,1.710551,NA,NA,NotTracked,NotTracked,
0.9428711,-0.3369141,-0.04736328,1.039551,0.4628906,0.1157227,-3,-1,-2,-1,-1,0,0,1,-2,-6,-37,1,3,1,2,2,2.4375,2.4375,2.4375,-57.5625,-57.5625,-57.5625,2.282534,3.054474,8.788592,6.945414,3.139431,6.899957,-0.09344995,-0.50348,1.640452,0.2931906,-0.5040998,1.60703,0.1234697,0.3378676,1.725562,-0.1420716,-0.4895611,1.6535,0.3344187,-0.5104953,1.584294,0.11241,-0.1194545,1.732988,0.1056026,-0.4327564,1.716524,-0.06306977,0.06814361,1.736942,0.02214483,-0.4224988,1.685692,-0.1242098,-0.1939093,1.741224,0.3368656,-0.2026044,1.710799,NA,NA,NotTracked,NotTracked,
0.9453125,-0.3408203,-0.05712891,1.101074,0.4892578,0.2109375,-1,0,0,-2,-2,0,-2,-1,-1,-13,-45,-3,0,-3,2,0,1.9375,1.9375,1.9375,-51.5,-51.5,-51.5,2.283881,3.054984,8.789134,6.806931,3.220528,6.983984,-0.09357476,-0.5035143,1.63956,0.2888994,-0.4991414,1.595979,0.1234081,0.3378855,1.725553,-0.1428139,-0.498208,1.65074,0.3312431,-0.5061294,1.572783,0.1124047,-0.1194696,1.732963,0.105628,-0.4327714,1.716508,-0.06310419,0.06806929,1.737033,0.0221826,-0.4225237,1.685668,-0.1241432,-0.1939169,1.741307,0.3377351,-0.2025505,1.712231,NA,NA,NotTracked,NotTracked,
0.9448242,-0.3432617,-0.05517578,1.104004,0.605957,0.3432617,0,-1,-1,0,-2,1,0,-1,-7,-4,10,6,-1,1,-1,-2,3.5,3.5,3.5,-47.9375,-47.9375,-47.9375,2.285104,3.056452,8.791391,6.663893,3.355231,7.088077,-0.09333817,-0.5032946,1.6395,0.2841711,-0.4899354,1.584563,0.123384,0.3378704,1.725642,-0.143028,-0.5003309,1.651754,0.3221276,-0.5078977,1.54712,0.1123974,-0.11947,1.732959,0.1055423,-0.4327854,1.71648,-0.06310172,0.06806775,1.737042,0.02205923,-0.4225116,1.685599,-0.1240522,-0.1939336,1.741362,0.3392541,-0.2007712,1.714942,NA,NA,NotTracked,NotTracked,
0.9389648,-0.3398438,-0.05859375,0.9892578,0.746582,0.5532227,0,-1,-1,-1,0,-1,-1,-2,-2,0,10,1,0,1,5,0,2.625,2.625,2.625,-36.3125,-36.3125,-36.3125,2.284747,3.057286,8.793376,6.543288,3.550026,7.182982,-0.09311225,-0.5027231,1.639212,0.2809423,-0.4713685,1.565428,0.1233059,0.3379523,1.725792,-0.1424275,-0.4976987,1.651628,0.3010406,-0.4659234,1.514569,0.112335,-0.119443,1.732957,0.1053316,-0.4327724,1.716411,-0.06320059,0.0680494,1.737124,0.02180193,-0.422439,1.685516,-0.1240365,-0.193867,1.741409,0.3409346,-0.1989508,1.718175,NA,NA,NotTracked,NotTracked,
0.9287109,-0.3432617,-0.05322266,0.9394531,0.7763672,0.5966797,-1,-2,-3,-1,0,-1,0,-1,-1,5,2,20,10,-3,-2,-1,1.3125,1.3125,1.3125,-41.25,-41.25,-41.25,2.280245,3.059626,8.80002,6.490781,3.664834,7.221351,-0.09361992,-0.5031345,1.640196,0.2746581,-0.4436555,1.539276,0.1232638,0.3379699,1.725907,-0.1432782,-0.4995121,1.652069,0.2889446,-0.4282113,1.491634,0.1121012,-0.119406,1.733012,0.1046759,-0.4327191,1.716381,-0.06326547,0.06803015,1.737263,0.02099534,-0.4222516,1.685479,-0.123961,-0.1939874,1.741416,0.3431355,-0.1959318,1.722129,NA,NA,NotTracked,NotTracked,
0.9287109,-0.3447266,-0.05029297,0.5141602,0.9038086,0.7026367,-2,-2,-1,-1,0,-1,-2,0,1,7,27,6,-1,-3,-1,0,0.0625,0.0625,0.0625,-47.9375,-47.9375,-47.9375,2.275564,3.060153,8.804915,6.356359,4.084311,7.313177,-0.09384857,-0.5031438,1.640484,0.2672429,-0.3979026,1.5282,0.1233051,0.3379353,1.72598,-0.1422263,-0.4933959,1.649783,0.2863597,-0.3825371,1.476795,0.1112496,-0.1193369,1.733108,0.1034026,-0.432418,1.716192,-0.06327394,0.06803767,1.737488,0.0195412,-0.4217321,1.685199,-0.124018,-0.1938864,1.741628,0.3457247,-0.1887268,1.727754,NA,NA,NotTracked,Closed,
0.9272461,-0.3496094,-0.04833984,0.3618164,0.7646484,0.765625,-2,-2,0,-2,-1,-1,-2,-2,-3,-6,-2,-5,1,1,-1,-3,-4.3125,-4.3125,-4.3125,-47.0625,-47.0625,-47.0625,2.263154,3.06108,8.814368,6.284483,4.409454,7.347912,-0.0953531,-0.5027448,1.641794,0.2534389,-0.3583477,1.499931,0.123276,0.3379416,1.726176,-0.1468039,-0.494374,1.662809,0.2765587,-0.338049,1.448827,0.1102137,-0.1192993,1.733292,0.1012814,-0.4321536,1.716053,-0.06330528,0.06803233,1.737686,0.01751493,-0.4213133,1.685197,-0.1241193,-0.1938772,1.741934,0.3490133,-0.1791404,1.73161,NA,NA,NotTracked,Closed,
0.9272461,-0.3496094,-0.04833984,0.3618164,0.7646484,0.765625,-2,-2,0,-2,-1,-1,-2,-2,-3,-6,-2,-5,1,1,-1,-3,-4.3125,-4.3125,-4.3125,-47.0625,-47.0625,-47.0625,2.263154,3.06108,8.814368,6.284483,4.409454,7.347912,-0.0948364,-0.5034581,1.642113,0.2507438,-0.2988832,1.463767,0.1232518,0.3379738,1.726653,-0.1445765,-0.4952716,1.652748,0.2812121,-0.2857483,1.43892,0.1099827,-0.1192459,1.733471,0.1005855,-0.4320231,1.716167,-0.06329922,0.06800529,1.737859,0.01692099,-0.4211724,1.685364,-0.1241475,-0.1938589,1.742067,0.3511475,-0.1655378,1.732948,NA,NA,NotTracked,Unknown,
0.9326172,-0.3623047,-0.03955078,0.1884766,0.7636719,0.7563477,-1,0,1,-2,-2,0,-1,-2,-2,-5,-16,-16,-1,0,-1,-1,-11.5625,-11.5625,-11.5625,-10.1875,-10.1875,-10.1875,2.239718,3.064033,8.81762,6.256102,4.769526,7.379618,-0.09580177,-0.5041184,1.641551,0.2442873,-0.2334556,1.443513,0.1232748,0.3381159,1.727353,-0.1452063,-0.5029904,1.65221,0.2688741,-0.2444546,1.390688,0.1098039,-0.1191438,1.733672,0.1002721,-0.4318579,1.716161,-0.06326307,0.06795815,1.738144,0.01669566,-0.4210876,1.6853,-0.1242625,-0.1939244,1.742218,0.3534988,-0.154396,1.729784,NA,NA,NotTracked,Unknown,
0.9526367,-0.3803711,-0.03466797,-0.03710938,0.8095703,0.7348633,-2,0,-2,-1,0,-2,-2,-1,0,1,-30,-3,-4,-3,-1,3,-8.625,-8.625,-8.625,12.625,12.625,12.625,2.233729,3.068811,8.813334,6.263784,5.159181,7.411304,-0.0960959,-0.5040363,1.6406,0.2357472,-0.1673257,1.428404,0.123395,0.3381608,1.728004,-0.1455684,-0.4978529,1.64865,0.2556325,-0.1797712,1.39038,0.1098881,-0.1190853,1.733973,0.1002928,-0.4317638,1.716309,-0.06315321,0.06792312,1.738295,0.01675271,-0.4210061,1.685555,-0.1243394,-0.1938749,1.742189,0.4283146,-0.1619649,1.698751,NA,NA,NotTracked,Unknown,
0.9482422,-0.3696289,-0.04199219,-0.2382813,0.668457,0.6611328,1,0,1,0,0,0,-1,0,-29,-5,8,6,-1,1,-5,-9,-5.5,-5.5,-5.5,1.375,1.375,1.375,2.232759,3.071794,8.811409,6.28,5.559025,7.45833,-0.09636017,-0.5033591,1.639272,0.2313718,-0.09687208,1.425776,0.1234898,0.3381332,1.728421,-0.1452889,-0.4980012,1.643184,0.2465255,-0.1162709,1.393,0.1097713,-0.1190553,1.734182,0.1000808,-0.4316007,1.716276,-0.06304999,0.06789979,1.738362,0.01659682,-0.4209005,1.685613,-0.1246498,-0.1932006,1.742111,0.3651597,-0.1552864,1.649076,NA,NA,NotTracked,Unknown,
0.9350586,-0.3588867,-0.05175781,-0.3803711,0.5380859,0.5947266,-1,-4,0,0,1,0,0,1,-17,1,-7,-13,-10,5,-1,4,-6.0625,-6.0625,-6.0625,20.5625,20.5625,20.5625,2.236136,3.082218,8.798546,6.32828,5.948532,7.529884,-0.09678113,-0.5023357,1.638227,0.238082,0.03641248,1.453513,0.1239139,0.3380895,1.730196,-0.1460631,-0.5001438,1.646433,0.1832987,0.08213743,1.497333,0.1095283,-0.1196593,1.73533,0.09950074,-0.4329704,1.716782,-0.06539156,0.06760893,1.74102,0.01595679,-0.4224949,1.686446,-0.1251678,-0.1931124,1.741961,0.3920487,-0.2040571,1.66571,NA,NA,NotTracked,Closed,
0.9287109,-0.3481445,-0.04541016,-0.5483398,0.5205078,0.4628906,1,1,-1,-3,-2,0,2,2,32,13,-4,-20,-15,-5,-2,5,-4.375,-4.375,-4.375,9.125,9.125,9.125,2.24203,3.091758,8.78635,6.415824,6.322075,7.634489,-0.09664644,-0.5020041,1.636415,0.242318,0.09817559,1.475186,0.123513,0.3382185,1.731172,-0.1458943,-0.4998886,1.645501,0.2748291,0.1382841,1.499167,0.1091619,-0.1200851,1.735744,0.0984528,-0.4342477,1.716913,-0.06500468,0.06767371,1.74116,0.01438164,-0.4239404,1.687516,-0.1252125,-0.1928052,1.741849,0.3646388,-0.1488235,1.602365,NA,NA,NotTracked,Closed,
0.925293,-0.3520508,-0.05761719,-0.5800781,0.2885742,0.4638672,1,0,1,-1,-2,0,0,-2,-21,-9,-4,1,-6,-9,-6,-2,-0.5625,-0.5625,-0.5625,27.125,27.125,27.125,2.24515,3.096479,8.782465,6.570423,6.653261,7.803154,-0.09638379,-0.5010035,1.634217,0.2447128,0.149732,1.501736,0.123139,0.3385133,1.731837,-0.1463576,-0.4960846,1.646318,0.2759637,0.1752224,1.507111,0.1095688,-0.1187945,1.736111,0.09734417,-0.4337358,1.716898,-0.06389647,0.06821583,1.741538,0.01274424,-0.4230126,1.68758,-0.123475,-0.1859217,1.74175,0.3642476,-0.1413848,1.5872,NA,NA,NotTracked,Closed,
0.9248047,-0.340332,-0.05566406,-0.7036133,0.3017578,0.2211914,-1,-1,-1,0,-2,0,2,-2,68,14,12,17,4,-4,-2,7,6.5625,6.5625,6.5625,25.5,25.5,25.5,2.257645,3.111175,8.777709,6.850754,6.924903,8.071867,-0.09638298,-0.5002297,1.632885,0.2459307,0.1936899,1.53195,0.1230227,0.3385408,1.732119,-0.1468574,-0.509309,1.639333,0.2727163,0.2085429,1.513726,0.1095608,-0.1188117,1.736102,0.09667097,-0.4329387,1.716936,-0.06461063,0.06811114,1.742785,0.01186353,-0.4219502,1.687532,-0.1233856,-0.1828745,1.74147,0.365834,-0.133733,1.575815,NA,NA,NotTracked,Unknown,
0.9291992,-0.3339844,-0.0625,-0.7158203,0.1953125,0.01855469,-1,-1,-1,-2,0,-3,-1,0,-5,1,7,-1,4,0,2,-1,8.3125,8.3125,8.3125,29,29,29,2.261159,3.117744,8.782745,7.266248,7.103368,8.482377,-0.0960525,-0.5000697,1.632018,0.2538428,0.2137454,1.555561,0.1228899,0.3384413,1.732603,-0.1444562,-0.499212,1.632395,0.2878354,0.2278049,1.5394,0.1095816,-0.1188427,1.736107,0.09655265,-0.4325134,1.716979,-0.05782661,0.06853309,1.742712,0.01162686,-0.4214073,1.687392,-0.1233367,-0.1812802,1.74149,0.365401,-0.09903154,1.534252,NA,NA,NotTracked,Unknown,
0.9291992,-0.3291016,-0.06201172,-0.5415039,0.2768555,-0.2412109,2,0,-2,-1,-2,-1,-2,-1,-83,-19,2,16,5,2,-1,-7,10.6875,10.6875,10.6875,33.625,33.625,33.625,2.263766,3.120576,8.786216,7.861816,7.187064,9.054132,-0.0960955,-0.4993989,1.632123,0.2093157,0.3015758,1.635198,0.1230392,0.3380836,1.733241,-0.1449999,-0.5008605,1.631405,0.2593057,0.317344,1.610546,0.1095671,-0.1188935,1.73615,0.09638961,-0.4315322,1.717061,-0.05598781,0.06891727,1.743981,0.01147339,-0.4205846,1.687554,-0.1232842,-0.1807717,1.741532,0.3636223,-0.07445732,1.515248,NA,NA,NotTracked,Open,
0.9262695,-0.3393555,-0.06445313,-0.8935547,0.2612305,-0.3686523,-1,-3,0,-1,-1,-1,0,-1,-2,8,9,35,14,-1,-2,-5,11.3125,11.3125,11.3125,15.625,15.625,15.625,2.269323,3.122464,8.801034,8.182798,7.19144,9.370637,-0.09597193,-0.4985273,1.631301,0.2620763,0.2349936,1.592992,0.1229226,0.3380669,1.733415,-0.1465599,-0.4907894,1.637856,0.2478158,0.2654769,1.573444,0.1095213,-0.1190048,1.736142,0.0963475,-0.431414,1.717046,-0.05409952,0.06900999,1.743711,0.01140887,-0.4204347,1.687584,-0.1233681,-0.1807634,1.741576,0.361437,-0.06293116,1.507266,NA,NA,NotTracked,Unknown,
0.9267578,-0.3510742,-0.06152344,-0.8935547,0.2612305,-0.3686523,0,0,-1,-1,-2,-1,-6,-5,-2,8,9,35,14,-1,-2,-5,7.375,7.375,7.375,15.625,15.625,15.625,2.26669,3.118581,8.813468,8.182798,7.19144,9.370637,-0.09636353,-0.4997104,1.633052,0.2451483,0.2674656,1.616474,0.1232458,0.3378824,1.733703,-0.1471546,-0.5025234,1.63672,0.2245727,0.3510177,1.618667,0.1094546,-0.1190677,1.73616,0.09625526,-0.4311599,1.717041,-0.05313032,0.06905497,1.743963,0.01133898,-0.4201994,1.687675,-0.1233769,-0.1808496,1.741675,0.3603455,-0.05375798,1.502373,NA,NA,NotTracked,Unknown,
0.9355469,-0.3491211,-0.06542969,-0.7783203,0.1328125,-0.1420898,0,-1,0,-1,0,-3,0,-3,13,-1,0,16,2,0,-1,-2,6.5,6.5,6.5,1,1,1,2.263872,3.115414,8.820116,8.548148,7.177346,9.734329,-0.09665783,-0.4999563,1.635595,0.2197346,0.2953924,1.640235,0.1231746,0.3378775,1.733921,-0.1470343,-0.4952291,1.641845,0.1694058,0.2397187,1.674111,0.109355,-0.1191757,1.736226,0.09602374,-0.430753,1.717138,-0.05683775,0.06866625,1.74579,0.01116883,-0.4198817,1.687923,-0.1234062,-0.1810524,1.742168,0.3593532,-0.04936445,1.500273,NA,NA,NotTracked,NotTracked,
0.9326172,-0.371582,-0.06591797,-0.8964844,0.1445313,-0.06347656,-1,-1,-3,0,-1,-1,1,0,-28,-11,-11,-29,-5,-3,-2,-4,3.4375,3.4375,3.4375,1.8125,1.8125,1.8125,2.255361,3.105643,8.837248,8.697341,7.155298,9.884876,-0.09737176,-0.5006711,1.640358,0.2193992,0.2956653,1.640546,0.1234038,0.3377557,1.734372,-0.1497741,-0.4914399,1.650619,0.1753861,0.2448865,1.67708,0.1092637,-0.1192709,1.736285,0.0958394,-0.4303873,1.717198,-0.05979037,0.0684557,1.747485,0.01103943,-0.4195583,1.688163,-0.1237055,-0.1812836,1.744078,0.357971,-0.04345813,1.496803,NA,NA,NotTracked,NotTracked,
0.9165039,-0.3891602,-0.05712891,-0.9663086,0.1542969,-0.125,-1,0,0,-2,0,-2,0,-1,18,0,-1,-8,-2,-1,0,2,3.6875,3.6875,3.6875,-5.5625,-5.5625,-5.5625,2.24848,3.100267,8.848716,8.756126,7.148581,9.960971,-0.09826172,-0.50151,1.640952,0.2182665,0.2982918,1.642896,0.1234241,0.3377637,1.73446,-0.1472782,-0.4971998,1.642577,0.1721209,0.242496,1.675668,0.1091573,-0.1193321,1.736311,0.09577884,-0.4300111,1.717182,-0.06057617,0.06843743,1.747935,0.0110046,-0.4192997,1.688285,-0.1235387,-0.1813674,1.744886,0.3571882,-0.0413226,1.495603,NA,NA,NotTracked,NotTracked,
0.9194336,-0.387207,-0.05859375,-0.9663086,0.1542969,-0.125,-2,-1,0,-2,-2,-3,-3,0,12,-8,-6,-15,-3,-1,0,1,3.1875,3.1875,3.1875,-5.5625,-5.5625,-5.5625,2.244144,3.097953,8.855485,8.756126,7.148581,9.960971,-0.09878901,-0.500757,1.643999,0.2169587,0.2974961,1.641889,0.1237213,0.3376385,1.734625,-0.1477547,-0.4970452,1.645154,0.1796219,0.2493783,1.679956,0.1090856,-0.1194489,1.736325,0.09565095,-0.429925,1.717174,-0.05709755,0.06886873,1.747556,0.01088188,-0.4191846,1.688348,-0.1235466,-0.1816236,1.746016,0.3568067,-0.04022004,1.494919,NA,NA,NotTracked,NotTracked,
0.9228516,-0.3955078,-0.06054688,-0.9882813,0.1489258,-0.1542969,0,0,-2,-1,1,0,4,2,-8,-4,0,4,1,1,1,1,-0.6875,-0.6875,-0.6875,3.625,3.625,3.625,2.227809,3.092295,8.875233,8.824041,7.157193,0.02890736,-0.1001228,-0.5002794,1.646061,0.2144161,0.2976865,1.643773,0.1240279,0.3375983,1.734817,-0.1495757,-0.4958111,1.65229,0.168731,0.2421401,1.671119,0.1090806,-0.1194561,1.736326,0.09561456,-0.4298192,1.71719,-0.05497332,0.06924759,1.747337,0.01084329,-0.4190479,1.688468,-0.1236089,-0.1818252,1.746833,0.3565285,-0.03908657,1.494239,NA,NA,NotTracked,NotTracked,
0.9291992,-0.3994141,-0.04736328,-0.9912109,0.1069336,-0.1479492,-1,-1,0,-1,-2,-2,-1,0,-5,-10,-1,10,0,0,-2,0,-1.625,-1.625,-1.625,-9.625,-9.625,-9.625,2.218375,3.091129,8.884024,8.8568,7.16431,0.07444916,-0.1019047,-0.4977297,1.647118,0.2114041,0.2968422,1.644703,0.1243203,0.3375456,1.734903,-0.1514243,-0.4823183,1.66263,0.1651497,0.2363617,1.671618,0.1090744,-0.1194675,1.736314,0.09551854,-0.4296193,1.717126,-0.05374293,0.06945702,1.747204,0.01078198,-0.4188268,1.688506,-0.1236392,-0.1816417,1.747685,0.3563206,-0.03841236,1.493852,NA,NA,NotTracked,NotTracked,
0.9160156,-0.394043,-0.04833984,-0.9711914,0.1069336,-0.1723633,-1,-1,0,-1,-2,1,1,-1,-4,-1,4,9,1,-2,-4,-2,0,0,0,-4.125,-4.125,-4.125,2.213101,3.093714,8.889605,8.859419,7.167821,0.07901721,-0.1039311,-0.4973397,1.649851,0.2093449,0.2987328,1.644654,0.1246424,0.3375498,1.73498,-0.1547177,-0.4955187,1.666154,0.173311,0.2430104,1.677307,0.1090684,-0.119465,1.736311,0.0954618,-0.429174,1.717086,-0.0522178,0.06967559,1.74692,0.01072896,-0.4183203,1.688664,-0.1235582,-0.1816719,1.749024,0.355847,-0.03705633,1.493278,NA,NA,NotTracked,NotTracked,
0.9130859,-0.3881836,-0.04589844,-0.987793,0.1289063,-0.1010742,-1,-2,-2,0,-1,-1,2,-1,-7,1,-6,-1,-1,0,0,0,1.3125,1.3125,1.3125,-10.625,-10.625,-10.625,2.21458,3.095722,8.889139,8.707649,7.187548,9.934323,-0.1032861,-0.4963107,1.650496,0.2117901,0.2992797,1.642882,0.1248388,0.3375667,1.735074,-0.1538618,-0.4777925,1.665933,0.1759122,0.2445537,1.67774,0.1090962,-0.1195595,1.736331,0.09546012,-0.4291468,1.717106,-0.05149384,0.06957448,1.746868,0.01070807,-0.4182278,1.688859,-0.1235221,-0.1814815,1.749819,0.3557634,-0.03676072,1.493086,NA,NA,NotTracked,NotTracked,
0.9213867,-0.3764648,-0.04394531,-1.067383,0.07275391,-0.2260742,0,-3,-3,-1,1,-1,3,1,-4,1,-2,-4,-5,-6,-12,-3,2.125,2.125,2.125,-1.0625,-1.0625,-1.0625,2.224275,3.104154,8.881605,8.556537,7.204047,9.782677,-0.1033472,-0.4988668,1.64824,0.2053429,0.3009443,1.641564,0.1248368,0.3375269,1.735085,-0.1527174,-0.4884154,1.657503,0.1656229,0.2367979,1.668079,0.1090997,-0.1195712,1.736333,0.09547137,-0.4289947,1.717117,-0.05586745,0.06908804,1.748059,0.01075204,-0.4181317,1.688946,-0.1235533,-0.1813708,1.749973,0.3555758,-0.03636655,1.492849,NA,NA,NotTracked,NotTracked,
0.9248047,-0.3676758,-0.04785156,-1.067383,0.07275391,-0.2260742,-1,-1,0,0,0,0,-1,-2,-4,1,-2,-4,-5,-6,-12,-3,3.375,3.375,3.375,-1.0625,-1.0625,-1.0625,2.235631,3.110042,8.873716,8.556537,7.204047,9.782677,-0.1026416,-0.4987821,1.647659,0.2042317,0.3014039,1.639981,0.1248821,0.3374895,1.735081,-0.1514244,-0.4860337,1.655078,0.1653105,0.2363589,1.671154,0.1090846,-0.1195923,1.736356,0.0955037,-0.4288723,1.717177,-0.05771761,0.06879711,1.748606,0.01082136,-0.4180407,1.68903,-0.1236161,-0.1813405,1.750202,0.3546842,0.01041193,1.475799,NA,NA,NotTracked,NotTracked,
0.9248047,-0.3642578,-0.04541016,-1.08252,0.1088867,-0.168457,0,-1,-1,-1,-2,-2,1,-1,-4,-4,-4,-6,0,-3,2,0,3.1875,3.1875,3.1875,5,5,5,2.242054,3.112906,8.868972,7.828819,7.225282,9.043549,-0.1025233,-0.4986164,1.644957,0.2021723,0.3103586,1.632612,0.1248055,0.3374653,1.735202,-0.1520981,-0.4862328,1.657146,0.176903,0.2536411,1.673533,0.1089915,-0.1196973,1.736418,0.09551893,-0.4287688,1.717255,-0.05314582,0.06975085,1.748175,0.01085865,-0.4179381,1.689305,-0.1237656,-0.1811485,1.750539,0.3532974,-0.02516805,1.486843,NA,NA,NotTracked,NotTracked,
0.925293,-0.355957,-0.05761719,-0.9741211,0.1796875,-0.04296875,0,-1,0,-2,-1,1,2,-2,6,-11,-1,-1,1,0,0,1,-0.6875,-0.6875,-0.6875,9.3125,9.3125,9.3125,2.259665,3.119562,8.851807,7.354677,7.196287,8.551035,-0.1022572,-0.4986796,1.642929,0.2603083,0.2623289,1.566846,0.1248221,0.337459,1.735218,-0.1509625,-0.4991274,1.649435,0.2414828,0.2329062,1.53229,0.1089854,-0.1197532,1.736416,0.09561615,-0.428763,1.717245,-0.05147748,0.07007736,1.747866,0.01095385,-0.4179345,1.689326,-0.1236767,-0.1810674,1.75048,0.3530458,-0.02715679,1.487586,NA,NA,NotTracked,Closed,
0.9316406,-0.3632813,-0.06201172,-1.035645,0.215332,-0.01855469,-1,-1,-2,-3,0,1,-3,-1,1,25,1,-5,-2,-5,-2,0,-0.75,-0.75,-0.75,2.8125,2.8125,2.8125,2.269749,3.122267,8.83952,6.952134,7.137109,8.135622,-0.100932,-0.4982008,1.642147,0.2281692,0.307888,1.59695,0.1248132,0.337476,1.735252,-0.1480603,-0.4933527,1.643419,0.171336,0.2705595,1.650829,0.1090012,-0.1198259,1.736442,0.09575766,-0.4287824,1.717284,-0.05075296,0.07033197,1.747816,0.01114579,-0.417999,1.689502,-0.1236549,-0.1810944,1.750446,0.3527835,-0.02837126,1.487995,NA,NA,NotTracked,Closed,
0.9301758,-0.3637695,-0.05712891,-0.9814453,0.1816406,0.09570313,-1,-1,-2,-1,-1,-1,-1,-2,5,2,-2,-3,1,-3,-12,-1,0.0625,0.0625,0.0625,4.375,4.375,4.375,2.275997,3.12383,8.832816,6.656265,7.052119,7.826672,-0.09981921,-0.4990709,1.640147,0.2622711,0.269885,1.535493,0.1247593,0.3377432,1.735583,-0.1463757,-0.4999113,1.637029,0.2354027,0.2514956,1.575,0.1090234,-0.11991,1.736472,0.09597673,-0.4287855,1.717306,-0.05027588,0.07067627,1.747883,0.0113973,-0.418007,1.689639,-0.1235637,-0.1812752,1.750303,0.3519426,-0.01266234,1.481434,NA,NA,NotTracked,Closed,
0.9238281,-0.347168,-0.06933594,-0.9575195,0.3012695,0.1425781,-2,-1,-2,-1,-2,-1,-1,-2,-8,-14,-1,9,7,2,-1,-5,0,0,0,13.875,13.875,13.875,2.289616,3.125555,8.818686,6.444076,6.950052,7.588142,-0.09804586,-0.499325,1.639827,0.2771131,0.2547467,1.487963,0.1244013,0.3381357,1.736547,-0.1461647,-0.4983815,1.642172,0.2454162,0.2449594,1.501634,0.1091454,-0.1202545,1.7367,0.09660487,-0.4289583,1.71761,-0.04962793,0.07099303,1.748115,0.01226622,-0.4184327,1.690387,-0.1234376,-0.1819019,1.750379,0.3507389,-0.02627379,1.486391,NA,NA,NotTracked,Closed,
0.9296875,-0.3579102,-0.06347656,-0.925293,0.2749023,0.2836914,0,-3,-1,-1,2,-1,-1,0,-1,-2,6,3,5,4,5,0,-1.0625,-1.0625,-1.0625,7.8125,7.8125,7.8125,2.293123,3.125103,8.813313,6.293018,6.84193,7.418709,-0.09722371,-0.4993543,1.639071,0.2746243,0.2676892,1.472273,0.1243074,0.338197,1.73673,-0.1458198,-0.4988368,1.642426,0.2380068,0.2897869,1.551818,0.1092014,-0.1203782,1.736778,0.09680373,-0.4290212,1.717709,-0.04937363,0.07122184,1.748223,0.012465,-0.4185391,1.690535,-0.1232611,-0.1821238,1.750221,0.3502751,-0.02914352,1.487574,NA,NA,NotTracked,Closed,
0.9331055,-0.3603516,-0.06591797,-0.8344727,0.3657227,0.4462891,-1,0,-2,-1,-2,-1,-1,0,3,6,4,16,7,4,-1,0,-0.625,-0.625,-0.625,6.8125,6.8125,6.8125,2.293602,3.12418,8.812131,6.194547,6.734148,7.300215,-0.09700657,-0.4988312,1.639282,0.2842091,0.2527955,1.445917,0.1242648,0.3381948,1.73693,-0.1448787,-0.4980428,1.643987,0.2666574,0.2159769,1.476636,0.1099174,-0.1198389,1.737763,0.09691067,-0.4290992,1.717767,-0.04957443,0.07129141,1.748608,0.01261211,-0.4186609,1.690637,-0.1230278,-0.1825636,1.750137,0.3495322,-0.0297523,1.487573,NA,NA,NotTracked,Closed,
0.9345703,-0.3588867,-0.06298828,-0.7758789,0.3427734,0.4829102,0,-2,-1,0,-1,-2,-2,-2,-15,-30,-7,-12,-8,-7,-3,-7,-0.75,-0.75,-0.75,5.375,5.375,5.375,2.289745,3.119873,8.813845,6.121813,6.639438,7.208341,-0.09666348,-0.49908,1.638859,0.2892957,0.249022,1.42591,0.124123,0.3382015,1.737087,-0.1437876,-0.5058317,1.64292,0.25487,0.2390532,1.402067,0.1099188,-0.1200339,1.737751,0.09708992,-0.4291314,1.717809,-0.04971003,0.07128737,1.74865,0.01294822,-0.418824,1.69088,-0.1229001,-0.184045,1.749835,0.3463754,-0.005959011,1.477234,NA,NA,NotTracked,Closed,
0.9321289,-0.3686523,-0.06445313,-0.7021484,0.3969727,0.578125,-2,-1,-2,-2,-2,1,1,0,-6,-5,-5,13,5,-2,-6,-5,1.75,1.75,1.75,6.375,6.375,6.375,2.285987,3.11693,8.81877,6.080216,6.557993,7.154438,-0.0968694,-0.4996819,1.640597,0.2938927,0.2481967,1.410741,0.1241419,0.3380866,1.737322,-0.1462048,-0.497125,1.645151,0.2453119,0.298711,1.4405,0.10983,-0.1202755,1.737805,0.09714153,-0.4292217,1.717921,-0.05031467,0.07107446,1.749109,0.01306904,-0.4190567,1.691234,-0.1226869,-0.1851636,1.74991,0.3572526,-0.07044908,1.492176,NA,NA,NotTracked,Closed,
0.925293,-0.3671875,-0.05859375,-0.71875,0.3896484,0.6103516,0,-2,-1,-1,-2,-1,-1,-3,3,10,-2,-10,-8,1,-4,-1,2.9375,2.9375,2.9375,0.3125,0.3125,0.3125,2.283888,3.115339,8.822549,6.053672,6.501633,7.122868,-0.09697349,-0.5002608,1.642298,0.2987102,0.2434745,1.386565,0.1241484,0.3379061,1.738019,-0.1443381,-0.5000015,1.64406,0.2586104,0.2687598,1.404846,0.1101014,-0.1200938,1.738624,0.09710335,-0.4294297,1.71816,-0.05115032,0.07057228,1.749545,0.01307478,-0.4196919,1.692161,-0.1220484,-0.186635,1.750246,0.3571736,-0.07035825,1.491852,NA,NA,NotTracked,Closed,
0.9262695,-0.3686523,-0.05273438,-0.7348633,0.3857422,0.6108398,-2,-2,-2,-1,-1,-2,1,0,-9,-4,-6,-9,-6,-5,-3,-6,4.625,4.625,4.625,2,2,2,2.27737,3.110676,8.836533,6.04268,6.482838,7.109583,-0.09713044,-0.5002655,1.643846,0.3004726,0.2414624,1.379854,0.1241172,0.338021,1.738061,-0.146339,-0.4997249,1.6556,0.2572732,0.2754235,1.412678,0.1104286,-0.1197711,1.739291,0.09710843,-0.4295937,1.718351,-0.05135229,0.07049824,1.749672,0.01309866,-0.4198512,1.692377,-0.121848,-0.187128,1.750465,0.3572367,-0.07023878,1.491229,NA,NA,NotTracked,Closed,
0.9379883,-0.3740234,-0.05175781,-0.7866211,0.3999023,0.5732422,1,-2,-1,-2,0,-1,0,0,-2,-2,-3,-6,-5,1,2,-1,5.125,5.125,5.125,-7.1875,-7.1875,-7.1875,2.275604,3.108925,8.844857,6.02569,6.455776,7.094492,-0.09644831,-0.4997296,1.644701,0.3014878,0.2398237,1.376108,0.1240685,0.3379921,1.738072,-0.1452754,-0.4952069,1.652875,0.2656054,0.2550884,1.405538,0.1104736,-0.1195981,1.739663,0.09704185,-0.4297509,1.718521,-0.05153374,0.07040622,1.749786,0.01305592,-0.4200313,1.69263,-0.1216711,-0.1874487,1.75073,0.3572879,-0.07039195,1.490992,NA,NA,NotTracked,Closed,
0.9433594,-0.3769531,-0.05615234,-0.8354492,0.3735352,0.5292969,-2,-1,-1,0,-1,0,0,-2,-4,-16,-8,-10,-2,-4,-4,-3,5.25,5.25,5.25,-6.375,-6.375,-6.375,2.277098,3.108647,8.846339,6.017969,6.455008,7.09655,-0.0961711,-0.5003725,1.646154,0.3010466,0.2390901,1.375237,0.1241084,0.3379723,1.738146,-0.1441813,-0.4950291,1.652591,0.2651638,0.2559704,1.403667,0.110296,-0.1198812,1.739571,0.09702302,-0.4297942,1.71864,-0.05161163,0.07033635,1.749942,0.0130642,-0.4201057,1.692892,-0.1216159,-0.1875994,1.751162,0.357176,-0.0706112,1.490457,NA,NA,NotTracked,Closed,
0.9277344,-0.3881836,-0.03222656,-0.8369141,0.3847656,0.5048828,-2,-1,-1,-2,0,0,-1,0,-2,0,1,7,-2,0,-1,0,-5.6875,-5.6875,-5.6875,-1.75,-1.75,-1.75,2.296783,3.109844,8.82081,6.018274,6.459763,7.101537,-0.09525504,-0.4995309,1.645085,0.300304,0.2372519,1.374852,0.1241642,0.337864,1.738018,-0.1446805,-0.4964414,1.650017,0.2681633,0.2448865,1.403125,0.1104037,-0.1197791,1.739656,0.09701929,-0.4300115,1.718601,-0.05164811,0.07024421,1.749962,0.01303634,-0.4203261,1.692894,-0.1214225,-0.1879596,1.751607,0.3571711,-0.07080703,1.489674,NA,NA,NotTracked,Closed,
0.8999023,-0.4150391,0.002441406,-0.8461914,0.3842773,0.4838867,-1,-2,0,0,-2,0,0,0,1,-5,-2,1,-7,1,-2,-4,-1.25,-1.25,-1.25,-5.125,-5.125,-5.125,2.325532,3.115346,8.787882,6.022384,6.465112,7.113121,-0.0942451,-0.4943252,1.647192,0.2975844,0.2368293,1.375811,0.1242444,0.3378634,1.737906,-0.1427776,-0.4778114,1.664882,0.2699425,0.2376001,1.4325,0.1110009,-0.1193971,1.740002,0.09705883,-0.4300602,1.718627,-0.05161392,0.07016511,1.750064,0.01312572,-0.4204208,1.693082,-0.1211641,-0.1879886,1.752974,0.3563757,-0.07103799,1.488058,NA,NA,NotTracked,Closed,
0.8930664,-0.4155273,-0.002929688,-0.8305664,0.3828125,0.4755859,-2,-3,-2,-1,0,-1,0,0,-12,-8,-3,-5,0,1,1,-1,-0.0625,-0.0625,-0.0625,-0.1875,-0.1875,-0.1875,2.338518,3.118828,8.774674,6.02652,6.470345,7.119733,-0.09352674,-0.4933577,1.645777,0.297076,0.2372985,1.376599,0.1244767,0.3378152,1.737839,-0.1423653,-0.4860459,1.657905,0.2579442,0.2541908,1.383842,0.1113308,-0.1192473,1.740226,0.09733307,-0.4301684,1.718816,-0.05155231,0.07012384,1.750185,0.01361625,-0.4206611,1.693666,-0.1208196,-0.1882059,1.753609,0.3563628,-0.07115401,1.487908,NA,NA,NotTracked,Closed,
0.8852539,-0.4067383,-0.01660156,-0.8286133,0.3837891,0.4838867,-3,-1,-1,-1,-2,-2,-1,-1,-7,-15,-5,-5,1,0,0,-2,2.5625,2.5625,2.5625,-1.5,-1.5,-1.5,2.363148,3.128006,8.752386,6.029886,6.472708,7.124243,-0.09321752,-0.4936521,1.645237,0.2969368,0.2367667,1.377152,0.1245805,0.3377469,1.737765,-0.1413381,-0.4739255,1.669,0.262001,0.2504255,1.397602,0.1117528,-0.1190842,1.740365,0.09748561,-0.4301482,1.718847,-0.051524,0.07004484,1.7503,0.0138315,-0.4206839,1.693775,-0.1207643,-0.1882966,1.753883,0.3563258,-0.07142731,1.487681,NA,NA,NotTracked,Closed,
0.9116211,-0.390625,-0.02441406,-0.8413086,0.3876953,0.4707031,-2,-1,-3,-2,0,-1,-1,0,-4,-1,-2,3,2,1,0,-1,1.8125,1.8125,1.8125,-2.5,-2.5,-2.5,2.368169,3.130221,8.749861,6.031418,6.473372,7.127039,-0.09117468,-0.4964652,1.643225,0.2965174,0.2371822,1.378073,0.1246499,0.3377876,1.737678,-0.1396675,-0.4826104,1.657581,0.2591945,0.2621845,1.4344,0.1123531,-0.1190374,1.740503,0.0976035,-0.4302121,1.718869,-0.05141497,0.0700075,1.750416,0.01397151,-0.4207886,1.693854,-0.1205654,-0.1884103,1.754163,0.3556205,-0.07155957,1.486597,NA,NA,NotTracked,Closed,
0.925293,-0.3823242,-0.02685547,-0.8217773,0.3911133,0.4833984,1,-2,-1,-2,-3,-1,-2,-3,-12,-19,-6,0,-1,-3,-1,-3,0.9375,0.9375,0.9375,2.5,2.5,2.5,2.368728,3.130336,8.749568,6.03527,6.471045,7.129454,-0.09102283,-0.4968204,1.640644,0.2965547,0.2363598,1.37682,0.1249205,0.3376783,1.737543,-0.1367879,-0.4971678,1.644361,0.2618516,0.2470572,1.408273,0.1126594,-0.1190068,1.7405,0.0977557,-0.4302792,1.718746,-0.05134884,0.06993716,1.750415,0.01412285,-0.4208679,1.693759,-0.1205628,-0.1884136,1.754164,0.3554061,-0.07170951,1.486172,NA,NA,NotTracked,Closed,
0.9296875,-0.3647461,-0.05273438,-0.8125,0.3691406,0.4956055,0,-3,0,0,-1,0,-2,0,-2,7,-1,-6,-5,-3,-3,-3,-6.4375,-6.4375,-6.4375,3,3,3,2.366054,3.127859,8.744184,6.037588,6.469675,7.129909,-0.08791421,-0.4952913,1.638219,0.2984688,0.2359949,1.375301,0.1253737,0.3380135,1.737119,-0.1328185,-0.4962868,1.644539,0.2596721,0.2503141,1.3902,0.1125708,-0.1194435,1.739823,0.09808602,-0.4302295,1.718516,-0.05113593,0.06989439,1.75033,0.01440191,-0.4207905,1.693613,-0.1197206,-0.1887812,1.753456,0.3557644,-0.07177424,1.485359,NA,NA,NotTracked,Closed,
0.9306641,-0.3681641,-0.05322266,-0.7998047,0.3969727,0.4897461,-1,-1,-1,-2,-2,0,-3,-1,3,-12,-1,17,4,0,1,1,-11.25,-11.25,-11.25,0.625,0.625,0.625,2.361649,3.125236,8.735666,6.040424,6.468798,7.130433,-0.0870283,-0.4951098,1.63686,0.2989307,0.2359694,1.375984,0.1256576,0.3380746,1.736896,-0.1341417,-0.4899165,1.648338,0.2602792,0.2515868,1.400486,0.1127444,-0.1193102,1.73978,0.09824144,-0.4302704,1.718368,-0.05077175,0.06991236,1.75006,0.01451465,-0.4208356,1.693494,-0.1190724,-0.1883138,1.752889,0.3559656,-0.07185549,1.485226,NA,NA,NotTracked,Closed,
0.9331055,-0.3745117,-0.05664063,-0.7700195,0.3789063,0.4858398,1,-2,-2,-1,-1,0,-2,0,0,-1,-1,5,2,0,2,-1,-10,-10,-10,8.0625,8.0625,8.0625,2.360277,3.12474,8.730703,6.043853,6.468442,7.125015,-0.08667101,-0.4953111,1.636999,0.2999671,0.2363728,1.375879,0.1258158,0.3381464,1.73673,-0.1348919,-0.476227,1.655928,0.2627617,0.2538421,1.403985,0.1128833,-0.1191796,1.73973,0.0983396,-0.4303023,1.718221,-0.0507074,0.06983116,1.749977,0.01458029,-0.4208521,1.693414,-0.1186547,-0.1882743,1.752641,0.3562641,-0.07204541,1.485243,NA,NA,NotTracked,Closed,
0.925293,-0.3774414,-0.05517578,-0.7416992,0.3833008,0.4736328,1,0,-1,-1,0,-2,-1,0,4,-1,-1,2,-2,-1,-1,1,-4.25,-4.25,-4.25,13.75,13.75,13.75,2.361868,3.12464,8.721657,6.050007,6.466699,7.114733,-0.08566377,-0.4941247,1.635559,0.3016952,0.2362437,1.375443,0.126006,0.3382253,1.736568,-0.1316864,-0.4889399,1.647426,0.2619344,0.2561093,1.39369,0.1131217,-0.1189914,1.739692,0.0986057,-0.4303377,1.718083,-0.05068544,0.06978976,1.749917,0.01485078,-0.4208821,1.693232,-0.1182251,-0.1884489,1.75215,0.356901,-0.07253984,1.484993,NA,NA,NotTracked,Closed,
0.9155273,-0.362793,-0.05761719,-0.6948242,0.3808594,0.4731445,-1,-2,0,-2,-1,-2,0,-1,-3,-2,0,-1,2,-2,-8,0,0.3125,0.3125,0.3125,14.8125,14.8125,14.8125,2.362195,3.124244,8.719847,6.054738,6.464416,7.11005,-0.08489414,-0.4955698,1.634401,0.3015152,0.2352519,1.377917,0.1261298,0.3382181,1.736511,-0.1126123,-0.5125704,1.60296,0.2665012,0.249343,1.4275,0.1133927,-0.1189369,1.739536,0.09877028,-0.430571,1.717725,-0.05058847,0.06972685,1.749767,0.01497294,-0.4210847,1.692911,-0.1178547,-0.1884453,1.751764,0.3576117,-0.07303366,1.484757,NA,NA,NotTracked,Closed,
0.9174805,-0.3535156,-0.05859375,-0.640625,0.3598633,0.4248047,-1,0,0,0,1,0,0,-2,0,-8,-1,-2,1,3,27,1,-1.8125,-1.8125,-1.8125,36.6875,36.6875,36.6875,2.358825,3.123151,8.722128,6.097178,6.453143,7.103652,-0.08437279,-0.4972991,1.632716,0.300392,0.2335067,1.37957,0.1265341,0.3382242,1.73602,-0.130111,-0.4990174,1.643384,0.2449752,0.2705306,1.415667,0.1140675,-0.1188249,1.739199,0.0994141,-0.4309406,1.717241,-0.04999187,0.06951491,1.749138,0.01562912,-0.4215025,1.692297,-0.1165404,-0.1890641,1.750355,0.3616492,-0.07434682,1.485614,NA,NA,NotTracked,Unknown,
0.9238281,-0.3598633,-0.04296875,-0.5322266,0.3110352,0.4355469,-1,0,-2,-3,-3,-1,-2,-2,-2,-13,-6,-5,-8,-5,-3,2,-1.1875,-1.1875,-1.1875,67.8125,67.8125,67.8125,2.34758,3.11931,8.730023,6.164614,6.426504,7.10643,-0.08441256,-0.498166,1.634276,0.3002808,0.2265142,1.380498,0.1266886,0.3382548,1.735928,-0.1313537,-0.516278,1.6471,0.2452169,0.2434356,1.424333,0.1143897,-0.1188203,1.739031,0.09968653,-0.43114,1.716967,-0.04973885,0.06933425,1.748907,0.01587304,-0.4217072,1.691942,-0.1162872,-0.1890723,1.75011,0.3646284,-0.07598522,1.486024,NA,NA,NotTracked,Unknown,
0.9384766,-0.3540039,-0.03027344,-0.4780273,0.3769531,0.4345703,-2,0,-2,-1,-2,-2,-1,2,3,2,1,-5,7,-2,11,-2,0.4375,0.4375,0.4375,50.125,50.125,50.125,2.341228,3.11441,8.736665,6.240428,6.372303,7.129099,-0.08450252,-0.498202,1.633577,0.2986936,0.215622,1.379216,0.1269109,0.3383502,1.735566,-0.131192,-0.4996412,1.640909,0.2485148,0.239421,1.4132,0.1145215,-0.1187989,1.738848,0.09986844,-0.4311961,1.716783,-0.0494791,0.06933964,1.748606,0.016071,-0.4217565,1.69168,-0.1162236,-0.1890606,1.749834,0.37034,-0.0817799,1.488552,NA,NA,NotTracked,Closed,
0.9150391,-0.3583984,-0.03173828,-0.3520508,0.4189453,0.4482422,0,-1,-2,-1,-1,-1,0,-1,-2,0,-2,0,-4,-1,-9,-1,3.3125,3.3125,3.3125,60.8125,60.8125,60.8125,2.338678,3.109691,8.742569,6.322142,6.279093,7.156474,-0.08406616,-0.4979023,1.634089,0.2997364,0.1999253,1.377453,0.1270707,0.3385489,1.735248,-0.1304678,-0.4944222,1.6409,0.2495214,0.2265403,1.397167,0.1142583,-0.1193053,1.738195,0.1002493,-0.4311187,1.716613,-0.04934759,0.06906773,1.748034,0.01630125,-0.4216799,1.691486,-0.1160788,-0.1892433,1.749403,0.3638512,-0.06872312,1.508647,NA,NA,NotTracked,Closed,
0.9296875,-0.3515625,-0.01904297,-0.574707,0.409668,0.4975586,-1,-2,-1,0,-3,0,-4,-1,-1,0,-1,-3,7,2,-7,-1,4.375,4.375,4.375,39.1875,39.1875,39.1875,2.339662,3.103265,8.7472,6.3914,6.153783,7.183045,-0.08445989,-0.4980524,1.634699,0.3008066,0.1733147,1.37517,0.1272647,0.3387035,1.734567,-0.131196,-0.493632,1.644556,0.2506091,0.2047877,1.3862,0.113918,-0.1198294,1.737398,0.1003922,-0.4311064,1.716358,-0.04937501,0.06894594,1.747616,0.0165262,-0.4215584,1.691019,-0.1159819,-0.1889893,1.748865,0.3651314,-0.07157305,1.511664,NA,NA,NotTracked,Closed,
0.9584961,-0.3457031,-0.02978516,-0.4692383,0.4453125,0.4140625,-2,-1,-1,-2,-2,-2,-1,-3,0,-1,-2,-3,4,-4,-15,0,7.4375,7.4375,7.4375,12.9375,12.9375,12.9375,2.340492,3.09624,8.754253,6.439383,5.955933,7.231591,-0.0845842,-0.4980632,1.634771,0.2915671,0.1198542,1.362613,0.1272779,0.3392865,1.732515,-0.128189,-0.5182151,1.626875,0.2456408,0.1546166,1.375,0.1140166,-0.1191468,1.736519,0.1004088,-0.4310608,1.715867,-0.05023179,0.06859347,1.746459,0.01654728,-0.4213344,1.690224,-0.1156686,-0.1889724,1.748527,0.3724307,-0.114416,1.558699,NA,NA,NotTracked,Closed,
0.9331055,-0.3652344,-0.03027344,-0.4287109,0.5029297,0.4594727,-2,-2,-3,-2,-1,0,-1,0,-6,-5,1,-6,-17,-10,3,-2,9.0625,9.0625,9.0625,23.75,23.75,23.75,2.347444,3.089157,8.757633,6.4754,5.689413,7.267835,-0.08469117,-0.4994226,1.636398,0.2834162,0.07854092,1.35595,0.1274644,0.3393528,1.731554,-0.1302625,-0.5137628,1.637569,0.2367457,0.1145304,1.372667,0.1140886,-0.1193229,1.736062,0.1003782,-0.431814,1.715684,-0.05080805,0.06826409,1.746107,0.01657467,-0.4218411,1.690026,-0.1155576,-0.1893287,1.748337,0.3736574,-0.126605,1.572969,NA,NA,NotTracked,Closed,
0.9379883,-0.3491211,-0.03662109,-0.3061523,0.659668,0.4570313,-1,-3,-1,0,-1,-1,-3,-1,-1,2,9,2,1,-1,-2,-4,2.0625,2.0625,2.0625,24.6875,24.6875,24.6875,2.355328,3.081716,8.75441,6.515337,5.368196,7.298423,-0.08421677,-0.499563,1.638093,0.2833738,0.01819588,1.358733,0.1276533,0.3393209,1.730589,-0.13236,-0.500304,1.653733,0.235387,0.06510233,1.379,0.1141417,-0.1195188,1.735612,0.1006858,-0.4325155,1.715286,-0.05115989,0.06799317,1.745582,0.01694856,-0.4226718,1.68931,-0.1153364,-0.1900584,1.748223,0.4065205,-0.1954701,1.622055,NA,NA,NotTracked,Closed,
0.9296875,-0.3876953,-0.03808594,-0.1938477,0.862793,0.515625,-3,-1,0,-2,0,-1,0,0,-2,-6,-13,4,0,2,-7,-2,-1.625,-1.625,-1.625,56.875,56.875,56.875,2.355088,3.077904,8.752424,6.567479,5.004139,7.315948,-0.08342467,-0.499649,1.638149,0.2779675,-0.04371608,1.351669,0.1276932,0.3394578,1.729627,-0.1288055,-0.4932671,1.653318,0.2780966,-0.004201896,1.33275,0.1140671,-0.119153,1.734835,0.1006829,-0.4322017,1.714831,-0.05157806,0.06793819,1.745279,0.0170244,-0.4224727,1.688937,-0.1151216,-0.1904575,1.748049,0.3719548,-0.1463122,1.580621,NA,NA,NotTracked,Closed,
0.921875,-0.3920898,-0.04052734,0.09765625,0.859375,0.5585938,-1,-2,0,0,0,-1,-1,0,2,18,1,-3,3,0,-9,-2,10.5,10.5,10.5,25.25,25.25,25.25,2.362333,3.078605,8.753455,6.611293,4.615732,7.315073,-0.08375161,-0.4992895,1.638243,0.2789133,-0.1134365,1.354394,0.1276371,0.3395516,1.728793,-0.1322099,-0.5139927,1.663286,0.285578,-0.08594055,1.357,0.1141054,-0.1189507,1.734176,0.1008498,-0.4320286,1.71432,-0.05203219,0.06790101,1.745003,0.0172803,-0.4221452,1.688169,-0.1147208,-0.1909146,1.748087,0.4061729,-0.1211157,1.626831,NA,NA,NotTracked,Unknown,
0.9248047,-0.3574219,-0.046875,0.7539063,0.7421875,0.6137695,-1,-1,-1,1,-1,-1,0,0,0,-10,-20,-9,-15,-5,0,-2,6.4375,6.4375,6.4375,75.5625,75.5625,75.5625,2.366571,3.079156,8.759016,6.686276,4.256179,7.283992,-0.08440816,-0.4995277,1.637655,0.2777756,-0.2472464,1.372326,0.1271061,0.3394871,1.727007,-0.1319078,-0.496619,1.654787,0.24436,-0.2166661,1.353,0.1143828,-0.1187037,1.733062,0.101434,-0.4318823,1.713544,-0.0531215,0.0674426,1.744343,0.01810097,-0.4219786,1.686709,-0.114135,-0.191619,1.748056,0.4239481,-0.1429276,1.647307,NA,NA,NotTracked,Unknown,
0.9291992,-0.3745117,-0.03808594,0.6826172,1.178711,0.472168,-2,-2,-1,-2,-1,0,0,-3,-3,-1,1,-10,-2,-2,-5,-1,-3.8125,-3.8125,-3.8125,67,67,67,2.359878,3.080169,8.763992,6.792624,3.974113,7.230742,-0.08433434,-0.5001334,1.63783,0.284771,-0.312642,1.400775,0.1270028,0.3396617,1.726672,-0.1320771,-0.4904205,1.661154,0.2696213,-0.2865537,1.374667,0.1145301,-0.1186197,1.732819,0.1017104,-0.431866,1.713452,-0.0534111,0.06728844,1.743976,0.0184663,-0.4219359,1.686454,-0.1140235,-0.1916144,1.747971,0.4200565,-0.1472973,1.653038,NA,NA,NotTracked,Unknown,
0.9365234,-0.3632813,-0.02832031,0.9916992,0.8774414,0.3349609,-2,-1,-2,-1,-3,0,-1,-1,0,-9,-16,-11,-4,-2,1,3,-3.875,-3.875,-3.875,5.5625,5.5625,5.5625,2.349855,3.081195,8.769512,6.851444,3.707573,7.174776,-0.08436002,-0.4996513,1.636906,0.2895705,-0.3650755,1.434304,0.1269575,0.3397105,1.726483,-0.131472,-0.5062465,1.646937,0.2727978,-0.3484789,1.401762,0.1147228,-0.1184441,1.732356,0.1019156,-0.4317886,1.713177,-0.0537339,0.06723222,1.743658,0.01880204,-0.4217729,1.685923,-0.1137676,-0.1918011,1.747846,0.367029,-0.1658234,1.676423,NA,NA,NotTracked,Unknown,
0.9306641,-0.3510742,-0.03710938,0.9169922,0.8413086,0.375,-2,0,-1,0,0,-1,0,-3,-1,4,3,-2,-7,-4,-4,-3,-2.25,-2.25,-2.25,20.0625,20.0625,20.0625,2.341422,3.081252,8.776246,6.889773,3.594055,7.137946,-0.08476935,-0.4996554,1.636532,0.2975942,-0.4045462,1.468969,0.1271244,0.3399236,1.726129,-0.1340417,-0.4716056,1.665,0.3138399,-0.4088994,1.421968,0.1149821,-0.1183286,1.731771,0.102107,-0.431747,1.712774,-0.05384466,0.06731044,1.743314,0.01902273,-0.4215874,1.685185,-0.1137773,-0.1915248,1.747651,0.3663573,-0.1678576,1.676826,NA,NA,NotTracked,Unknown,
0.9379883,-0.34375,-0.03173828,0.996582,0.7636719,0.222168,0,0,-1,-2,-2,-2,-1,-1,1,3,6,-1,-4,3,4,0,-3.5,-3.5,-3.5,-44.625,-44.625,-44.625,2.330936,3.080616,8.783401,6.980539,3.314933,7.004416,-0.08450638,-0.50081,1.635391,0.3044661,-0.4370929,1.498635,0.1272993,0.3399995,1.725706,-0.1312438,-0.5014635,1.641088,0.3194891,-0.440131,1.456127,0.1154067,-0.1182932,1.731161,0.1028021,-0.4317904,1.712117,-0.0539908,0.06726286,1.74286,0.01971238,-0.4215336,1.684362,-0.1137201,-0.1914656,1.747535,0.3642505,-0.1761476,1.678677,NA,NA,NotTracked,Unknown,
0.9331055,-0.3291016,-0.03710938,1.044922,0.4594727,0.1694336,0,-1,-1,-1,-1,-2,-2,0,-1,0,-1,-4,-3,-2,-1,0,-3,-3,-3,-24.125,-24.125,-24.125,2.321769,3.079594,8.789454,7.045232,3.162051,6.886753,-0.0854443,-0.5017859,1.635065,0.3140914,-0.4796559,1.548191,0.1281248,0.3397585,1.724666,-0.1355887,-0.5046785,1.653214,0.3208904,-0.4896134,1.502874,0.1162359,-0.1184762,1.730158,0.1049523,-0.4320899,1.711053,-0.05402406,0.06734176,1.74194,0.02208252,-0.4218407,1.68275,-0.1135497,-0.1919095,1.74659,0.3603361,-0.1868018,1.683282,NA,NA,NotTracked,Unknown,
0.9223633,-0.3500977,-0.02636719,1.010742,0.5444336,0.1201172,-1,-2,-1,-2,-1,-1,1,-1,-2,-1,-1,-3,-2,-1,-3,-1,-2.8125,-2.8125,-2.8125,39.5625,39.5625,39.5625,2.316764,3.079216,8.791725,7.169383,3.069046,6.785846,-0.08559082,-0.5020847,1.634242,0.3139541,-0.4912623,1.572595,0.1284495,0.3395621,1.724257,-0.1350372,-0.4920418,1.653984,0.3311979,-0.5092022,1.526328,0.1168464,-0.118615,1.729737,0.1058943,-0.4324067,1.710733,-0.05401385,0.06734703,1.741395,0.02310124,-0.4222226,1.68224,-0.1137108,-0.1921967,1.74601,0.3573454,-0.1916897,1.685663,NA,NA,NotTracked,Unknown,
0.9355469,-0.3383789,-0.03222656,1.016602,0.5742188,0.0625,-1,0,-2,0,-3,-1,-1,0,-1,-2,0,-1,0,0,-1,2,-5.4375,-5.4375,-5.4375,1.625,1.625,1.625,2.312088,3.076587,8.791596,7.274119,3.026465,6.693978,-0.08605256,-0.4996077,1.635193,0.3120571,-0.4999766,1.592205,0.1288587,0.3393314,1.723943,-0.1341212,-0.4936723,1.652347,0.3508437,-0.5160466,1.563889,0.1173449,-0.1187304,1.729464,0.1066888,-0.4326606,1.710479,-0.05402275,0.06733213,1.741245,0.02389837,-0.4224831,1.681986,-0.1136996,-0.1921694,1.745957,0.3548513,-0.1968697,1.688257,NA,NA,NotTracked,NotTracked,
0.9472656,-0.3447266,-0.03466797,0.9692383,0.394043,0.05908203,-1,-2,-3,0,-1,-2,0,0,-1,-1,-1,0,-1,-3,-3,-1,-5.75,-5.75,-5.75,-28.8125,-28.8125,-28.8125,2.305577,3.072894,8.791752,7.276906,3.002101,6.66118,-0.08555208,-0.5001289,1.636246,0.3110642,-0.502952,1.603962,0.1292761,0.3392359,1.723616,-0.1340685,-0.4917266,1.651303,0.3583689,-0.5084758,1.591941,0.1179954,-0.1187824,1.729236,0.1076671,-0.432786,1.710337,-0.05395857,0.06748524,1.740956,0.02495765,-0.4226124,1.681693,-0.1135188,-0.1924019,1.745499,0.3539355,-0.1988666,1.690088,NA,NA,NotTracked,NotTracked,
