ALX,ALY,ALZ,ARX,ARY,ARZ,EMG0L,EMG1L,EMG2L,EMG3L,EMG4L,EMG5L,EMG6L,EMG7L,EMG0R,EMG1R,EMG2R,EMG3R,EMG4R,EMG5R,EMG6R,EMG7R,GLX,GLY,GLZ,GRX,GRY,GRZ,ORL,OPL,OYL,ORR,OPR,OYR,LHNX,LHNY,LHNZ,RHNX,RHNY,RHNZ,HX,HY,HZ,LTX,LTY,LTZ,RTX,RTY,RTZ,SpineMidX,SpineMidY,SpineMidZ,SpineBaseX,SpineBaseY,SpineBaseZ,ShoulderLeftX,ShoulderLeftY,ShoulderLeftZ,ShoulderRightX,ShoulderRightY,ShoulderRightZ,ElbowLeftX,ElbowLeftY,ElbowLeftZ,ElbowRightX,ElbowRightY,ElbowRightZ,Myo_Pose_left,Myo_Pose_Right,Kinect_pose_left,Kinect_pose_right
0.9389648,-0.3261719,-0.04248047,0.9223633,0.2973633,0.1010742,-1,-2,-1,-3,-1,1,-1,-1,-3,-1,-2,-1,-1,-1,-1,-2,0.9375,0.9375,0.9375,-2.1875,-2.1875,-2.1875,2.288171,3.039507,8.519064,6.957251,3.04308,6.635068,-0.07658747,-0.5038683,1.656835,0.3114085,-0.4903916,1.635476,0.1404243,0.3378947,1.746967,-0.1040077,-0.5126677,1.624705,0.3447106,-0.5082638,1.626039,0.12754,-0.1183533,1.75254,0.1189416,-0.4313289,1.734102,-0.0457238,0.0673447,1.758963,0.03503571,-0.4217833,1.70438,-0.1045823,-0.1951045,1.762353,0.3520832,-0.1991389,1.738253,NA,NA,NotTracked,NotTracked,
0.9394531,-0.3310547,-0.05175781,0.9248047,0.3022461,0.1088867,-1,-1,-1,1,-2,0,1,-2,0,2,0,-3,-1,-2,-1,-1,0.25,0.25,0.25,-1,-1,-1,2.288171,3.039507,8.519064,6.956751,3.043713,6.635181,-0.07642323,-0.5029447,1.657282,0.311517,-0.4901684,1.635536,0.1404135,0.337878,1.746998,-0.1236433,-0.4937121,1.668903,0.3447691,-0.5088397,1.626119,0.1274966,-0.1183673,1.752574,0.1189407,-0.4313462,1.734107,-0.04572888,0.06734627,1.758965,0.0350358,-0.4217995,1.704391,-0.1045686,-0.1950831,1.76237,0.3519345,-0.1991348,1.738355,NA,NA,NotTracked,NotTracked,
0.9399414,-0.3359375,-0.04052734,0.9223633,0.3110352,0.1040039,-2,-1,-3,-1,-1,1,-2,-1,0,-1,-3,-1,-1,-1,-1,-1,0.3125,0.3125,0.3125,-1.875,-1.875,-1.875,2.287365,3.03956,8.51986,6.955815,3.044857,6.634026,-0.07642866,-0.5056039,1.656764,0.3113862,-0.4908185,1.635823,0.1404132,0.3378737,1.746999,-0.1238983,-0.501377,1.668534,0.3443936,-0.5026778,1.624067,0.1274644,-0.1183553,1.752579,0.1188633,-0.4313233,1.734095,-0.0457425,0.06742644,1.759017,0.0349453,-0.4217623,1.70435,-0.1046245,-0.1953294,1.762277,0.3519019,-0.1992801,1.738336,NA,NA,NotTracked,NotTracked,
0.9360352,-0.3305664,-0.05029297,0.925293,0.2993164,0.109375,0,1,1,-2,-1,-2,-1,0,-2,-1,-2,-1,0,1,1,-2,1.1875,1.1875,1.1875,-2.375,-2.375,-2.375,2.290186,3.040399,8.518106,6.954355,3.045057,6.634329,-0.07627396,-0.5055085,1.656042,0.311476,-0.4910203,1.635361,0.1404067,0.3379589,1.74715,-0.1244259,-0.4919013,1.672996,0.3462435,-0.5320901,1.6192,0.1274614,-0.11836,1.752579,0.1188734,-0.4313336,1.734079,-0.0457501,0.06740329,1.759049,0.03495816,-0.4217775,1.70433,-0.1046267,-0.1953209,1.762248,0.3519251,-0.1992655,1.738352,NA,NA,NotTracked,NotTracked,
0.9370117,-0.3349609,-0.05322266,0.9223633,0.3081055,0.1113281,-1,-2,-2,-1,-2,0,-2,-2,0,0,-3,0,-1,0,1,1,0.875,0.875,0.875,-0.5625,-0.5625,-0.5625,2.289376,3.040032,8.518802,6.953712,3.045268,6.633843,-0.0767395,-0.5059621,1.656644,0.3116342,-0.4902909,1.635785,0.1403712,0.3380644,1.747295,-0.1256887,-0.4935732,1.677514,0.3514294,-0.5134832,1.632,0.1273911,-0.1183823,1.752618,0.1188555,-0.4313423,1.734085,-0.04573561,0.06741601,1.759052,0.03494633,-0.421782,1.704333,-0.1046185,-0.1954405,1.762288,0.3519235,-0.1992748,1.738363,NA,NA,NotTracked,NotTracked,
0.9350586,-0.3271484,-0.04638672,0.9238281,0.309082,0.1079102,-1,-1,-2,-1,1,-2,-2,-1,0,-2,0,-2,-2,0,-4,-2,1.4375,1.4375,1.4375,-1,-1,-1,2.294347,3.041154,8.516165,6.953712,3.045268,6.633843,-0.07699938,-0.5040486,1.65694,0.3116946,-0.4909765,1.636103,0.1403252,0.3380525,1.747388,-0.1249191,-0.4987451,1.669767,0.3457245,-0.5101929,1.627069,0.1274159,-0.1183621,1.752607,0.1188454,-0.4313577,1.73404,-0.0457546,0.06741084,1.759085,0.03493962,-0.4217899,1.704303,-0.1046608,-0.1953013,1.762243,0.3518984,-0.1993715,1.738441,NA,NA,NotTracked,NotTracked,
0.9350586,-0.3271484,-0.04638672,0.9350586,0.3134766,0.1054688,-2,-1,-1,0,-2,1,-2,0,2,-2,-3,-1,-1,1,5,1,1.4375,1.4375,1.4375,0.3125,0.3125,0.3125,2.294347,3.041154,8.516165,6.954512,3.046414,6.632748,-0.07641414,-0.5043581,1.657406,0.3116278,-0.4905013,1.636238,0.140308,0.338109,1.747496,-0.1246544,-0.5046911,1.668589,0.3462276,-0.5053394,1.628039,0.1274062,-0.1183528,1.752648,0.1188229,-0.4313595,1.734045,-0.04584108,0.06736551,1.759288,0.03491665,-0.4217908,1.704306,-0.1046213,-0.1953696,1.762329,0.3518958,-0.1994051,1.738495,NA,NA,NotTracked,NotTracked,
0.9365234,-0.3422852,-0.04736328,0.9560547,0.3925781,0.06494141,-3,-1,-2,-2,0,0,-3,-1,-2,1,1,0,0,0,0,1,1.75,1.75,1.75,-16.875,-16.875,-16.875,2.295484,3.041713,8.515867,6.947462,3.055037,6.631717,-0.0769814,-0.5042869,1.657752,0.3113483,-0.4910553,1.635453,0.1402474,0.3380751,1.747641,-0.1248285,-0.4977478,1.670272,0.3482466,-0.523564,1.619,0.1273942,-0.1183531,1.752666,0.1187745,-0.4313845,1.734022,-0.04587284,0.06728745,1.75938,0.0348773,-0.4218076,1.704298,-0.10462,-0.1954421,1.762357,0.3518636,-0.1993624,1.738553,NA,NA,NotTracked,NotTracked,
0.9428711,-0.3422852,-0.04980469,0.9912109,0.3925781,0.0703125,-2,-2,-1,0,-3,-2,0,-3,-2,-3,-8,-13,-3,-3,1,-2,2.3125,2.3125,2.3125,-37.75,-37.75,-37.75,2.298523,3.043721,8.515936,6.926843,3.066168,6.631966,-0.07665689,-0.5035579,1.656964,0.3115778,-0.4907976,1.634504,0.1401431,0.3381143,1.747835,-0.1232141,-0.517812,1.663727,0.3506047,-0.5072637,1.63325,0.1274057,-0.1183523,1.752664,0.1187421,-0.431409,1.733948,-0.04595376,0.06719772,1.759559,0.03483463,-0.4218291,1.704215,-0.1046026,-0.1954967,1.762428,0.3518625,-0.1993719,1.738593,NA,NA,NotTracked,NotTracked,
0.9467773,-0.3408203,-0.05419922,1.056152,0.4194336,0.1577148,-1,0,-1,0,0,-1,-2,-1,5,-1,11,3,-2,-2,-3,-2,5.0625,5.0625,5.0625,-30.75,-30.75,-30.75,2.303436,3.045655,8.515649,6.846174,3.112026,6.674919,-0.0768633,-0.5038666,1.656919,0.3113303,-0.4901078,1.633258,0.1399238,0.3381404,1.748231,-0.1247559,-0.5035168,1.667463,0.346518,-0.5132171,1.625736,0.1274002,-0.1183566,1.752688,0.1187196,-0.4314277,1.733944,-0.04599161,0.06715117,1.759701,0.03481141,-0.4218382,1.704219,-0.1045871,-0.1955175,1.762443,0.3518863,-0.1994274,1.738715,NA,NA,NotTracked,NotTracked,
0.9384766,-0.3393555,-0.05029297,1.04834,0.5795898,0.2636719,-2,-1,0,-1,-2,0,-2,0,-3,-2,8,-1,-4,-3,-2,-1,5.125,5.125,5.125,-21.25,-21.25,-21.25,2.306432,3.046312,8.51545,6.745425,3.207324,6.757271,-0.07645939,-0.5036318,1.657983,0.3094465,-0.4831201,1.618714,0.1395457,0.3381394,1.749281,-0.1238334,-0.5063086,1.668442,0.344593,-0.5209582,1.602,0.1272353,-0.1183452,1.752742,0.1185165,-0.4314537,1.733855,-0.04618903,0.06700907,1.760085,0.03458343,-0.4218132,1.704091,-0.1046626,-0.1955703,1.762924,0.3524592,-0.1991628,1.740484,NA,NA,NotTracked,NotTracked,
0.9345703,-0.3364258,-0.05761719,1.033203,0.6591797,0.3579102,0,-1,-2,-2,-2,-1,-1,0,-4,-3,-33,-13,-4,-3,-6,-1,-1.4375,-1.4375,-1.4375,-35.1875,-35.1875,-35.1875,2.303038,3.043729,8.520298,6.645794,3.353199,6.831128,-0.07675751,-0.5034072,1.657652,0.2940499,-0.4784293,1.607078,0.1394126,0.3382008,1.749469,-0.1253523,-0.4846506,1.677238,0.3238828,-0.4924843,1.563151,0.1268037,-0.1183527,1.752737,0.1182492,-0.4314041,1.73368,-0.04633616,0.06689665,1.760315,0.03427272,-0.4217591,1.703906,-0.1046311,-0.1955941,1.763018,0.3534136,-0.1981389,1.742889,NA,NA,NotTracked,NotTracked,
0.9316406,-0.3491211,-0.04492188,1.001953,0.6552734,0.5,-1,-1,-1,-1,-3,-1,-2,-1,-8,-9,12,6,17,-1,-2,-5,-3,-3,-3,-42.9375,-42.9375,-42.9375,2.297732,3.042661,8.522887,6.546388,3.538797,6.896442,-0.0772776,-0.5036762,1.658476,0.2916994,-0.4607283,1.585562,0.1393757,0.3381728,1.749506,-0.1286204,-0.4796178,1.68925,0.3220652,-0.4785607,1.549,0.126693,-0.1183276,1.752758,0.117824,-0.4314514,1.733583,-0.04641723,0.06686307,1.760487,0.03377141,-0.4217074,1.703745,-0.1046817,-0.1956822,1.763065,0.3550901,-0.1958912,1.745981,NA,NA,NotTracked,NotTracked,
0.9326172,-0.347168,-0.046875,0.840332,0.8071289,0.5825195,-1,-2,-3,-2,1,-2,-1,0,-3,6,-1,1,-5,1,1,-1,-4.5625,-4.5625,-4.5625,-34.4375,-34.4375,-34.4375,2.293486,3.041587,8.524606,6.477474,3.768813,6.940009,-0.0768168,-0.5039861,1.659255,0.285745,-0.4334912,1.561999,0.1393048,0.338203,1.7497,-0.1244323,-0.5034941,1.670263,0.3048571,-0.4278145,1.510454,0.1262888,-0.11832,1.752907,0.1165192,-0.4313527,1.733669,-0.04645194,0.06681488,1.760556,0.0324035,-0.4214128,1.703619,-0.1046876,-0.1956887,1.763141,0.3579073,-0.1914484,1.749768,NA,NA,NotTracked,NotTracked,
0.9379883,-0.3496094,-0.04296875,0.6245117,0.7817383,0.6577148,-1,-3,-1,0,-2,-1,-2,-1,0,0,9,3,2,1,1,0,-7.375,-7.375,-7.375,-74.9375,-74.9375,-74.9375,2.2843,3.039178,8.526506,6.389862,4.031797,6.964054,-0.0776451,-0.5044237,1.658999,0.2799701,-0.3936241,1.532624,0.1392894,0.3381998,1.749707,-0.1256619,-0.493947,1.675992,0.2959222,-0.3871583,1.482214,0.1256113,-0.1183783,1.752971,0.1146086,-0.4313063,1.733584,-0.04646569,0.0667956,1.76057,0.03050155,-0.4210908,1.703415,-0.1047019,-0.1954639,1.763201,0.3600186,-0.1855619,1.752245,NA,NA,NotTracked,Closed,
0.9335938,-0.3579102,-0.03515625,0.3984375,0.6738281,0.6850586,-1,1,-2,-1,-1,-1,-1,-1,-1,0,-14,0,6,-1,-6,2,-7.5,-7.5,-7.5,-63.0625,-63.0625,-63.0625,2.27603,3.03957,8.521695,6.300006,4.314589,6.980774,-0.0788193,-0.5038061,1.659488,0.2636543,-0.2977647,1.478774,0.1392598,0.3381521,1.749771,-0.1271431,-0.4857332,1.679647,0.3120303,-0.2782907,1.491214,0.1251764,-0.1183451,1.753326,0.1132983,-0.431224,1.734288,-0.04649593,0.0667671,1.760673,0.02951697,-0.420873,1.703827,-0.1048215,-0.1955097,1.76331,0.3618115,-0.1703872,1.754418,NA,NA,NotTracked,Unknown,
0.9335938,-0.3574219,-0.03320313,0.25,0.7226563,0.7109375,-1,0,-1,-1,0,-2,-2,-3,-5,-8,-3,-1,1,2,0,-1,-6.5,-6.5,-6.5,-16.5625,-16.5625,-16.5625,2.277125,3.04091,8.516907,6.26827,4.611449,6.993156,-0.07902598,-0.501242,1.659354,0.2643378,-0.2422617,1.451894,0.1392421,0.3380432,1.749835,-0.1262433,-0.5012043,1.674309,0.2889116,-0.244582,1.421814,0.1248949,-0.1183096,1.75336,0.1128968,-0.431107,1.734163,-0.04649302,0.06677137,1.760678,0.02913017,-0.4207675,1.703685,-0.1050889,-0.1955809,1.763291,0.3642118,-0.157849,1.75054,NA,NA,NotTracked,Unknown,
0.934082,-0.3374023,-0.04882813,0.1049805,0.7973633,0.7363281,-1,-2,-2,-2,-1,-1,-1,0,-2,-5,-1,12,1,-1,1,0,-5.5625,-5.5625,-5.5625,-8.8125,-8.8125,-8.8125,2.281683,3.046746,8.502585,6.255293,4.924581,7.002821,-0.07783118,-0.5064906,1.658307,0.2561061,-0.188735,1.430282,0.1392553,0.3380458,1.749867,-0.1268748,-0.4953288,1.676966,0.307274,-0.2149782,1.4744,0.12491,-0.1182031,1.753668,0.1129509,-0.4309698,1.734337,-0.0465021,0.06679962,1.760727,0.02912255,-0.4207042,1.703773,-0.1052562,-0.195604,1.763334,0.4206097,-0.157782,1.718837,NA,NA,NotTracked,Closed,
0.9443359,-0.3432617,-0.03857422,-0.0703125,0.7329102,0.699707,1,-2,0,-2,-2,-1,-1,-2,3,8,-1,-7,0,0,1,0,-5.6875,-5.6875,-5.6875,2.5,2.5,2.5,2.288276,3.051515,8.488704,6.253129,5.240808,7.020479,-0.07863627,-0.5063087,1.656601,0.2582159,-0.1327635,1.425891,0.1392603,0.3379852,1.749913,-0.1261819,-0.5044618,1.671625,0.2816648,-0.1359293,1.394421,0.1245456,-0.1183018,1.753862,0.1127318,-0.4310323,1.734314,-0.04648632,0.06677388,1.760712,0.02889551,-0.4207094,1.703835,-0.1053172,-0.1956168,1.76322,0.433273,-0.1804419,1.672814,NA,NA,NotTracked,Closed,
0.9458008,-0.3466797,-0.04394531,-0.1967773,0.75,0.7177734,-1,-1,-2,-1,-1,0,-1,-2,-2,-2,4,11,2,0,1,1,-4.4375,-4.4375,-4.4375,18.75,18.75,18.75,2.29246,3.054636,8.481668,6.28182,5.554101,7.049181,-0.07718252,-0.5060249,1.654946,0.260494,-0.07375663,1.424755,0.139251,0.3379437,1.750055,-0.1248101,-0.4967044,1.667251,0.2812479,-0.07751802,1.394882,0.1243029,-0.1182941,1.75408,0.1125268,-0.4309325,1.734403,-0.04649416,0.06677508,1.760718,0.02868692,-0.4205896,1.703988,-0.1059888,-0.1946796,1.762895,0.3768761,-0.1661296,1.645094,NA,NA,NotTracked,Closed,
0.9458008,-0.3466797,-0.04394531,-0.3442383,0.6196289,0.6474609,-1,-1,-3,-1,-2,0,-2,-1,22,4,0,1,-2,-4,1,5,-4.4375,-4.4375,-4.4375,24.5625,24.5625,24.5625,2.29246,3.054636,8.481668,6.324045,5.857055,7.089079,-0.07744379,-0.5058026,1.652414,0.2695567,0.03449089,1.442792,0.1393643,0.3379652,1.750562,-0.1269313,-0.4994016,1.674306,0.2887957,0.04199274,1.406068,0.123672,-0.1186384,1.754821,0.1117501,-0.4314132,1.734589,-0.0464779,0.06678199,1.760734,0.02792566,-0.4212671,1.704281,-0.1064376,-0.1942703,1.762685,0.3757727,-0.1547865,1.639869,NA,NA,NotTracked,Closed,
0.9306641,-0.3242188,-0.05859375,-0.5219727,0.5083008,0.5625,-1,0,-2,-1,-2,-2,0,-1,-2,-8,-4,-7,-1,1,0,-5,3.3125,3.3125,3.3125,47.8125,47.8125,47.8125,2.309398,3.070045,8.4619,6.455452,6.280817,7.196744,-0.07726589,-0.5052506,1.65241,0.2770048,0.07900884,1.458413,0.1392201,0.337844,1.751069,-0.1291385,-0.5073493,1.675314,0.2952136,0.130386,1.462,0.1233426,-0.1189631,1.755016,0.1111561,-0.4320615,1.734383,-0.04657581,0.06679416,1.761118,0.02715785,-0.4219898,1.704121,-0.1067849,-0.1936214,1.762613,0.3757522,-0.1424911,1.63225,NA,NA,NotTracked,Closed,
0.9223633,-0.3212891,-0.05517578,-0.5722656,0.4750977,0.4614258,-1,-1,0,1,0,-2,-1,1,84,14,-6,-5,-2,-3,1,6,6.25,6.25,6.25,37.625,37.625,37.625,2.31201,3.075718,8.465004,6.512273,6.41451,7.245546,-0.07729929,-0.5042475,1.649818,0.2832343,0.1139739,1.47763,0.139094,0.3378867,1.751395,-0.1229594,-0.5133403,1.653222,0.3128287,0.1699604,1.500333,0.1225861,-0.1189056,1.754768,0.1107,-0.4316607,1.734238,-0.04661188,0.06686658,1.761307,0.02665331,-0.4216657,1.704141,-0.1068734,-0.1929953,1.762554,0.3747672,-0.1372098,1.632322,NA,NA,NotTracked,Closed,
0.9272461,-0.3144531,-0.05371094,-0.6025391,0.3544922,0.4189453,0,3,2,-2,-3,-3,-7,-7,-91,-19,2,-7,-5,-10,0,-19,6.875,6.875,6.875,26.3125,26.3125,26.3125,2.309803,3.077835,8.475492,6.660892,6.656228,7.391234,-0.07783044,-0.5053081,1.650365,0.2833131,0.1518351,1.498852,0.1386673,0.338285,1.75215,-0.1261168,-0.5069368,1.665486,0.2250227,0.185273,1.560286,0.122571,-0.1182867,1.755112,0.1102792,-0.431006,1.734324,-0.04638415,0.06695083,1.7618,0.02589181,-0.4209739,1.704439,-0.1067478,-0.1912113,1.762836,0.3763679,-0.1290465,1.625319,NA,NA,NotTracked,Closed,
0.9433594,-0.3291016,-0.04394531,-0.5644531,0.3427734,0.4023438,-1,-3,-2,-1,0,-1,-3,-1,-27,-4,-9,-13,-18,-7,5,5,9.25,9.25,9.25,6.375,6.375,6.375,2.304156,3.076123,8.491442,6.883155,6.86746,7.622974,-0.07846639,-0.5014248,1.651373,0.2825707,0.1825694,1.519946,0.1384639,0.3383928,1.752372,-0.1286584,-0.484852,1.678933,0.2524541,0.1571051,1.5495,0.1228863,-0.1172319,1.75559,0.1100123,-0.4299458,1.734437,-0.04574126,0.0671173,1.7622,0.02545218,-0.42002,1.704662,-0.1069307,-0.1903476,1.762867,0.3834652,-0.0902654,1.572714,NA,NA,NotTracked,Closed,
0.9423828,-0.3076172,-0.05224609,-0.9619141,0.05273438,0.3012695,-2,0,-1,-1,1,1,3,1,-55,12,6,12,-6,4,-7,1,9.0625,9.0625,9.0625,5.8125,5.8125,5.8125,2.298548,3.069524,8.508424,7.251904,7.042413,8.006075,-0.07980163,-0.5023858,1.653402,0.2742618,0.239156,1.571846,0.1381052,0.3383156,1.752769,-0.1279262,-0.4970078,1.669664,0.2183631,0.2487187,1.576857,0.122094,-0.117155,1.755141,0.1089914,-0.4288395,1.733925,-0.04115244,0.06839534,1.758653,0.02378266,-0.4184684,1.704012,-0.1067375,-0.1896804,1.762812,0.3828294,-0.06099663,1.544512,NA,NA,NotTracked,Unknown,
0.9311523,-0.3325195,-0.04492188,-0.4697266,0.1479492,0.2871094,-2,-7,0,-1,-1,0,-8,-1,-6,15,4,4,2,-5,6,-3,5.3125,5.3125,5.3125,16.625,16.625,16.625,2.29117,3.061712,8.522811,7.775381,7.150261,8.53016,-0.07938406,-0.5022337,1.653871,0.2746877,0.2462472,1.590526,0.1380017,0.3382381,1.752706,-0.1279955,-0.4939767,1.672968,0.225473,0.2554195,1.585871,0.1219043,-0.1171407,1.754934,0.1088289,-0.4286932,1.733811,-0.03988361,0.06849477,1.759225,0.02369239,-0.4183559,1.704004,-0.1067821,-0.1894473,1.762829,0.3827105,-0.05904021,1.542389,NA,NA,NotTracked,Unknown,
0.9404297,-0.3330078,-0.04394531,-0.6875,0.1870117,0.09619141,-1,0,-1,0,0,-2,-6,-3,-2,-30,0,-6,1,1,3,-1,5.875,5.875,5.875,14.5,14.5,14.5,2.289049,3.057635,8.528593,8.125035,7.176644,8.879738,-0.08115558,-0.4997034,1.655634,0.2751949,0.2516719,1.608616,0.1379646,0.3381892,1.752602,-0.1279325,-0.4972472,1.672203,0.2795997,0.1887454,1.6256,0.1217132,-0.1171473,1.754696,0.1087053,-0.4285166,1.733665,-0.03880706,0.06858007,1.759662,0.02363146,-0.4182363,1.704075,-0.1068738,-0.1889187,1.763065,0.3820997,-0.05325823,1.537607,NA,NA,NotTracked,Open,
0.9335938,-0.3530273,-0.05224609,-0.8886719,0.09179688,-0.1699219,-1,-3,-2,-2,-1,-3,-2,-2,-25,0,-1,-1,-3,4,-1,-5,8.375,8.375,8.375,5.8125,5.8125,5.8125,2.281933,3.045343,8.550501,8.928836,7.169002,9.694985,-0.08132945,-0.5000167,1.658334,0.2711546,0.2587789,1.623828,0.1379153,0.3381568,1.752507,-0.1317546,-0.4853715,1.684059,0.2704525,0.2061823,1.630187,0.1214616,-0.1171623,1.754468,0.1085176,-0.4283504,1.733487,-0.03834353,0.06864568,1.760035,0.02353721,-0.418117,1.704095,-0.1069198,-0.1887607,1.763566,0.3824627,-0.04416209,1.531717,NA,NA,NotTracked,Open,
0.9257813,-0.3710938,-0.04980469,-0.9223633,0.09130859,-0.2329102,-3,-1,0,-2,-1,-1,-1,-3,33,5,2,0,3,-7,-5,-3,4.9375,4.9375,4.9375,14.5625,14.5625,14.5625,2.27591,3.038572,8.56365,9.160685,7.148154,9.917034,-0.08266503,-0.4988533,1.66166,0.2673969,0.2644441,1.636128,0.1380139,0.3380005,1.752234,-0.1292953,-0.4904138,1.677998,0.2760033,0.1981772,1.632616,0.1212492,-0.1170136,1.754108,0.1081001,-0.4280763,1.733198,-0.03803816,0.06864361,1.760208,0.02311295,-0.417868,1.704174,-0.1067456,-0.1883062,1.764262,0.3818733,-0.03962716,1.528512,NA,NA,NotTracked,NotTracked,
0.9267578,-0.3779297,-0.05615234,-0.9277344,0.1245117,-0.2280273,-3,3,2,-1,-2,-3,1,-6,19,5,3,3,0,-1,-4,0,-0.3125,-0.3125,-0.3125,-6.125,-6.125,-6.125,2.267258,3.034857,8.573483,9.187807,7.132039,9.942462,-0.08280014,-0.4977358,1.664354,0.2563013,0.278172,1.649637,0.138198,0.3377093,1.751615,-0.129238,-0.4882763,1.681172,0.1943733,0.1760128,1.545,0.1209177,-0.1168662,1.753606,0.1076844,-0.4276208,1.732725,-0.03766637,0.06852943,1.760295,0.02274501,-0.4175937,1.704235,-0.1066035,-0.1883722,1.765141,0.3813353,-0.02434276,1.519737,NA,NA,NotTracked,NotTracked,
0.9291992,-0.3803711,-0.04492188,-0.9399414,0.1474609,-0.1591797,0,-1,0,-1,0,0,2,2,3,-5,-2,-4,-2,-3,-5,-4,-0.9375,-0.9375,-0.9375,8.5625,8.5625,8.5625,2.26295,3.033893,8.57723,9.161386,7.138011,9.910032,-0.08365691,-0.4991292,1.665243,0.2496346,0.2882579,1.66249,0.1382207,0.3376967,1.751371,-0.1298743,-0.4945529,1.683493,0.1964511,0.2574931,1.696897,0.1207914,-0.1167449,1.753366,0.1075099,-0.4273966,1.732491,-0.03732452,0.06841074,1.760285,0.02251182,-0.4173838,1.70419,-0.106522,-0.1881831,1.766064,0.3818526,0.007567868,1.507185,NA,NA,NotTracked,NotTracked,
0.9370117,-0.3837891,-0.04248047,-0.9458008,0.128418,-0.1694336,-1,-2,-1,-1,-1,-2,-2,1,-17,-13,-3,0,-3,-1,-1,-1,-0.875,-0.875,-0.875,2.5,2.5,2.5,2.261425,3.035211,8.578502,9.149612,7.145359,9.89339,-0.08453444,-0.4990096,1.665227,0.2742534,0.2608488,1.638018,0.1381352,0.3375527,1.750904,-0.1297744,-0.5030989,1.679,0.296173,0.1989147,1.700333,0.1207342,-0.1167329,1.753318,0.1075482,-0.4272809,1.732505,-0.03728805,0.06839407,1.760311,0.0225302,-0.4172648,1.704282,-0.1065938,-0.1883027,1.766384,0.3798138,-0.0142382,1.514117,NA,NA,NotTracked,NotTracked,
0.9375,-0.3666992,-0.04248047,-0.9814453,0.1098633,-0.1767578,-4,-3,0,-1,-2,-2,-9,-5,-5,-7,-3,-6,-5,-2,0,-3,-0.0625,-0.0625,-0.0625,2.0625,2.0625,2.0625,2.264228,3.039554,8.575237,9.135428,7.154777,9.877022,-0.08513764,-0.4992235,1.66572,0.2164844,0.3077115,1.667834,0.1380041,0.3374933,1.750661,-0.1296543,-0.5004999,1.67723,0.1974517,0.2656136,1.700351,0.1207337,-0.1167278,1.753312,0.1076025,-0.4271811,1.732567,-0.0372111,0.06832546,1.760305,0.0225865,-0.4171829,1.704553,-0.1067803,-0.1882603,1.766823,0.3807718,0.0003404473,1.508878,NA,NA,NotTracked,NotTracked,
0.9365234,-0.3618164,-0.04492188,-0.9882813,0.1113281,-0.1479492,-2,-3,0,0,-1,-1,-2,-3,5,-2,-1,0,-1,-1,0,-1,0,0,0,4.9375,4.9375,4.9375,2.271104,3.047119,8.568685,9.122355,7.165921,9.85939,-0.08465679,-0.5016074,1.6616,0.2163358,0.3078321,1.666281,0.1376018,0.3373059,1.750037,-0.1315379,-0.4885827,1.684716,0.1588654,0.2467241,1.654976,0.1204502,-0.1166631,1.752946,0.1074579,-0.4268393,1.732176,-0.03714191,0.06828122,1.760235,0.02250172,-0.4170005,1.704497,-0.1068788,-0.1881226,1.767066,0.3810348,0.004142601,1.507528,NA,NA,NotTracked,NotTracked,
0.9316406,-0.3535156,-0.04541016,-0.9897461,0.1235352,-0.1762695,-3,0,-3,-2,-2,0,-3,-1,-4,3,-2,-5,-1,-1,1,1,-2.0625,-2.0625,-2.0625,-5.6875,-5.6875,-5.6875,2.275805,3.05382,8.561913,9.091957,7.177164,9.830333,-0.08506847,-0.5014983,1.661362,0.2161889,0.3075039,1.665733,0.137295,0.3373145,1.749838,-0.1327819,-0.4824872,1.688115,0.1847909,0.2532223,1.689722,0.1203182,-0.1165246,1.75271,0.1072731,-0.4266447,1.731987,-0.0371393,0.06828,1.760234,0.02231659,-0.4168378,1.704425,-0.106997,-0.1880157,1.767117,0.3810505,0.004946992,1.507229,NA,NA,NotTracked,NotTracked,
0.9306641,-0.3515625,-0.05175781,-0.9926758,0.1186523,-0.2001953,1,1,-1,0,-2,-2,1,2,-13,-22,-3,1,-2,0,0,-7,0.6875,0.6875,0.6875,-11.5625,-11.5625,-11.5625,2.283882,3.061997,8.553148,9.066742,7.182369,9.810922,-0.0849088,-0.5015891,1.657885,0.2110378,0.3155178,1.66525,0.1371707,0.3372484,1.749704,-0.130778,-0.4935992,1.671706,0.2040384,0.2775747,1.705537,0.1201798,-0.1164014,1.752465,0.1071774,-0.4261339,1.731545,-0.03713374,0.06828772,1.760211,0.02218889,-0.4164931,1.704187,-0.1072473,-0.1880533,1.766955,0.3808314,0.006583138,1.506462,NA,NA,NotTracked,NotTracked,
0.9345703,-0.3535156,-0.046875,-1.001953,0.09814453,-0.1660156,-1,0,0,-2,0,1,8,1,12,-5,-2,-3,0,-2,1,3,1,1,1,5.125,5.125,5.125,2.29153,3.069883,8.545691,8.946657,7.202005,9.691697,-0.08501721,-0.501336,1.656648,0.2115607,0.3135131,1.661933,0.1369452,0.3372727,1.74946,-0.1314432,-0.4893119,1.679543,0.151028,0.2553445,1.642694,0.1204082,-0.1161157,1.752469,0.1069342,-0.4260077,1.731278,-0.03716572,0.06829582,1.760181,0.02182596,-0.4163083,1.703996,-0.1075363,-0.1876467,1.766507,0.380415,0.008323629,1.505605,NA,NA,NotTracked,NotTracked,
0.9335938,-0.3266602,-0.04785156,-1.003906,0.1254883,-0.190918,1,-1,-1,-1,-1,-2,0,0,18,6,4,0,-2,1,-2,0,-0.6875,-0.6875,-0.6875,4.3125,4.3125,4.3125,2.299838,3.07635,8.536812,8.88048,7.207361,9.621654,-0.08366752,-0.5023085,1.653398,0.21292,0.314432,1.658449,0.136639,0.3372394,1.749162,-0.1311903,-0.4950456,1.665269,0.162445,0.2484848,1.657537,0.120373,-0.1161274,1.75241,0.1069548,-0.4259829,1.731279,-0.03717535,0.06832013,1.760154,0.02183491,-0.4163052,1.704013,-0.107909,-0.1871667,1.765941,0.3801537,0.009661264,1.505049,NA,NA,NotTracked,NotTracked,
0.9331055,-0.3198242,-0.05908203,-1.00293,0.1220703,-0.1108398,-1,0,-4,-3,-1,-1,6,3,-10,19,2,0,0,2,-3,-5,-1.375,-1.375,-1.375,1.75,1.75,1.75,2.304714,3.079257,8.529454,8.577848,7.229206,9.30979,-0.08392645,-0.5027407,1.651146,0.2134428,0.3222392,1.656781,0.1361768,0.3372298,1.749036,-0.1317415,-0.4901386,1.669089,0.2057619,0.2790782,1.707982,0.1200628,-0.1161865,1.751952,0.1068611,-0.4259474,1.730835,-0.03716053,0.06840593,1.760031,0.02176707,-0.4162629,1.703822,-0.1082308,-0.1870816,1.764957,0.3795286,0.01191421,1.504106,NA,NA,NotTracked,NotTracked,
0.9360352,-0.3261719,-0.05371094,-1.01416,0.1196289,-0.1645508,1,-2,-2,-1,-3,0,-2,-2,2,-14,-4,-3,-3,-4,-22,-1,-1.0625,-1.0625,-1.0625,-0.5625,-0.5625,-0.5625,2.308367,3.080434,8.523959,8.295783,7.233619,9.021988,-0.08390019,-0.5028207,1.650741,0.2159806,0.3217191,1.653837,0.1359972,0.3372169,1.748951,-0.1319403,-0.4959724,1.66662,0.162548,0.261694,1.654439,0.1199922,-0.1162085,1.751841,0.1068523,-0.4259522,1.730734,-0.03719569,0.06847336,1.759944,0.0217843,-0.4162673,1.703762,-0.1085778,-0.1869453,1.764557,0.3794193,0.01213272,1.503992,NA,NA,NotTracked,NotTracked,
0.9282227,-0.3422852,-0.05615234,-1.006836,0.1582031,-0.1118164,-2,0,-1,-1,-2,0,-2,-3,1,-1,-3,-3,-1,-3,-6,-1,-1.6875,-1.6875,-1.6875,1.4375,1.4375,1.4375,2.31004,3.08116,8.520059,8.114046,7.233308,8.836459,-0.08381791,-0.5019903,1.650222,0.2153168,0.3272577,1.649261,0.1359111,0.3372461,1.74898,-0.1328397,-0.5000836,1.663381,0.2081225,0.2870678,1.713841,0.1199233,-0.1161899,1.751704,0.106886,-0.4258886,1.730593,-0.03720912,0.06867465,1.759827,0.0218693,-0.4162498,1.703659,-0.108847,-0.1866278,1.764053,0.3790928,0.01225992,1.503826,NA,NA,NotTracked,NotTracked,
0.9306641,-0.3378906,-0.05126953,-1.037109,0.137207,-0.078125,0,-2,0,-1,-1,0,-1,-1,-1,-10,-4,1,0,0,8,0,-0.6875,-0.6875,-0.6875,2.8125,2.8125,2.8125,2.310254,3.079672,8.518643,7.517735,7.210292,8.225163,-0.08383733,-0.50137,1.649428,0.2200839,0.3295107,1.642265,0.1356756,0.3372921,1.749095,-0.1318313,-0.4969864,1.664459,0.1974318,0.2883195,1.694688,0.1198499,-0.116224,1.751545,0.1068895,-0.4259043,1.730345,-0.03728529,0.06880581,1.759732,0.02191541,-0.4163091,1.703463,-0.1091029,-0.1867116,1.763519,0.3784367,0.01197602,1.503554,NA,NA,NotTracked,NotTracked,
0.9345703,-0.3413086,-0.05273438,-0.9619141,0.1972656,0.01757813,-1,-2,-2,-2,1,0,0,-3,4,19,2,-1,-3,-2,-1,-1,-0.5,-0.5,-0.5,5.25,5.25,5.25,2.308827,3.078059,8.519753,7.15449,7.162961,7.846279,-0.08496032,-0.4999174,1.65108,0.2786211,0.2981666,1.566606,0.1345791,0.3374519,1.74958,-0.1335414,-0.4917979,1.6795,0.2549709,0.2810614,1.615706,0.1196432,-0.1164443,1.751255,0.1068974,-0.4261114,1.730063,-0.03765447,0.06919185,1.759586,0.02192072,-0.4164445,1.703361,-0.1095404,-0.1867005,1.762847,0.377067,0.01005102,1.503819,NA,NA,NotTracked,Closed,
0.9365234,-0.3574219,-0.05664063,-1.000488,0.2416992,0.04150391,-2,-2,-1,-1,-2,-1,-4,-2,-2,9,1,7,-2,2,5,0,-0.125,-0.125,-0.125,8.8125,8.8125,8.8125,2.30463,3.07495,8.52327,6.878587,7.098104,7.551864,-0.08463644,-0.4994201,1.651653,0.2887477,0.2812508,1.542346,0.134045,0.3374974,1.749846,-0.1323968,-0.4948182,1.668439,0.2587044,0.2829567,1.599455,0.1195075,-0.1165327,1.751143,0.1068581,-0.4262377,1.72993,-0.03799227,0.06960065,1.759545,0.02192117,-0.416549,1.703309,-0.1098956,-0.1866075,1.762693,0.373862,-0.02082398,1.51475,NA,NA,NotTracked,Closed,
0.9389648,-0.3515625,-0.05566406,-0.9326172,0.2329102,0.1557617,-1,-1,-1,1,-2,2,0,-2,2,-4,-4,-8,-17,-5,2,2,-0.375,-0.375,-0.375,4.3125,4.3125,4.3125,2.300691,3.072259,8.526916,6.677486,7.019196,7.337621,-0.08512417,-0.4991819,1.651653,0.2955661,0.2713979,1.521471,0.1332509,0.3375115,1.750342,-0.1322573,-0.5002344,1.662039,0.2597811,0.2886084,1.571889,0.1195315,-0.116515,1.751159,0.1067335,-0.4263085,1.729716,-0.03864289,0.07001965,1.759743,0.0218028,-0.4166185,1.70316,-0.1099882,-0.1867976,1.7625,0.373499,-0.007145995,1.508508,NA,NA,NotTracked,Closed,
0.9331055,-0.3579102,-0.04882813,-0.9301758,0.2817383,0.2583008,0,-2,0,-2,-2,-2,-2,-1,-23,-8,-5,-10,1,-4,10,-5,-0.5,-0.5,-0.5,10.1875,10.1875,10.1875,2.296662,3.070731,8.53041,6.464741,6.893341,7.101173,-0.08570629,-0.5012142,1.65304,0.3041798,0.2688102,1.487431,0.1325651,0.3374404,1.75076,-0.1363927,-0.4956622,1.673943,0.2696394,0.2680008,1.506212,0.1195329,-0.1165206,1.751353,0.1064602,-0.4265338,1.729595,-0.04045571,0.07013372,1.759735,0.02166429,-0.4168428,1.703131,-0.1103699,-0.1874049,1.762263,0.3727037,-0.00370214,1.506772,NA,NA,NotTracked,Closed,
0.9311523,-0.3618164,-0.04931641,-0.9736328,0.3369141,0.2446289,-2,-3,-2,-3,-2,-2,0,-1,-3,1,0,3,-2,-2,-16,-3,0.125,0.125,0.125,5.4375,5.4375,5.4375,2.295294,3.070232,8.531971,6.368379,6.807717,6.988628,-0.08603193,-0.4999086,1.653576,0.3074337,0.269151,1.46948,0.1319523,0.3377102,1.750852,-0.1325432,-0.5005922,1.6582,0.2657138,0.2740942,1.471933,0.1193254,-0.1165494,1.751593,0.1060415,-0.4268996,1.729555,-0.04179342,0.0698229,1.759965,0.02136309,-0.4172541,1.703223,-0.1109212,-0.1884829,1.762082,0.3718814,-0.01575931,1.508133,NA,NA,NotTracked,Closed,
0.9301758,-0.3540039,-0.04833984,-0.8696289,0.3706055,0.3632813,0,-1,-3,-2,-4,0,0,-3,-2,24,0,-6,1,-2,-6,-2,-0.4375,-0.4375,-0.4375,-0.1875,-0.1875,-0.1875,2.294693,3.070415,8.532537,6.283289,6.715163,6.890103,-0.08644845,-0.4993436,1.652501,0.3119307,0.2664362,1.450169,0.1316826,0.3376948,1.750906,-0.1348319,-0.4836096,1.669636,0.2866677,0.2534492,1.478071,0.1190946,-0.1165464,1.751658,0.1056777,-0.4270941,1.729456,-0.04264544,0.06971644,1.759864,0.02110415,-0.4174567,1.703226,-0.1112897,-0.1887424,1.761889,0.3710124,-0.01184141,1.506014,NA,NA,NotTracked,Unknown,
0.9316406,-0.3652344,-0.04199219,-0.7963867,0.3779297,0.4399414,-1,-1,0,1,1,0,-2,-2,-13,-3,0,0,11,5,-2,-8,-0.4375,-0.4375,-0.4375,0.5625,0.5625,0.5625,2.294857,3.070544,8.532349,6.216807,6.631063,6.81575,-0.0873173,-0.4998612,1.653795,0.3169464,0.2647052,1.434729,0.1313924,0.3376519,1.751183,-0.143065,-0.5278889,1.67175,0.2664535,0.2989897,1.448308,0.1187686,-0.116601,1.751804,0.1050225,-0.4273872,1.729311,-0.04391327,0.06942049,1.760068,0.02054398,-0.4177248,1.703158,-0.1114672,-0.1891174,1.761817,0.3828681,-0.05547552,1.500546,NA,NA,NotTracked,Unknown,
0.9233398,-0.3579102,-0.05175781,-0.7211914,0.4501953,0.5332031,-2,-1,-2,-1,-2,0,0,1,5,1,2,2,3,2,1,-2,2.0625,2.0625,2.0625,-1.9375,-1.9375,-1.9375,2.294468,3.07195,8.53386,6.174112,6.553442,6.765841,-0.08749679,-0.4992136,1.653526,0.3209659,0.2634842,1.417456,0.131158,0.337604,1.751281,-0.1389683,-0.4853442,1.682143,0.2786806,0.2704069,1.41805,0.1185206,-0.116645,1.751926,0.1048047,-0.4276079,1.729234,-0.04467342,0.069203,1.760201,0.02027019,-0.4179646,1.703156,-0.1117345,-0.1892852,1.761837,0.3671345,-0.005319372,1.501421,NA,NA,NotTracked,Closed,
0.9311523,-0.3579102,-0.04394531,-0.7304688,0.3754883,0.5532227,0,-2,-1,-1,0,-2,-1,-1,-3,-8,-6,-17,-11,-1,-9,-7,3.9375,3.9375,3.9375,-2.4375,-2.4375,-2.4375,2.295447,3.073839,8.537111,6.139785,6.497992,6.732933,-0.08827434,-0.4989161,1.654289,0.3266928,0.2621329,1.392844,0.1304381,0.3375971,1.751883,-0.1383684,-0.4876805,1.674143,0.2895741,0.2854347,1.417308,0.1174696,-0.1168165,1.752459,0.1033473,-0.4285957,1.729406,-0.0454341,0.06905708,1.75948,0.01892048,-0.4188597,1.703588,-0.1121292,-0.1893776,1.761866,0.3806393,-0.05409274,1.499167,NA,NA,NotTracked,Closed,
0.934082,-0.3510742,-0.04638672,-0.7412109,0.4458008,0.5644531,0,-2,-1,-2,0,-1,-1,0,-3,-9,-2,2,-3,-5,-9,-2,5.375,5.375,5.375,5.625,5.625,5.625,2.297906,3.075356,8.540451,6.126536,6.459636,6.713511,-0.08858789,-0.4996119,1.654922,0.328586,0.2584977,1.385035,0.1301015,0.3376728,1.75198,-0.1376589,-0.4887122,1.670355,0.2887968,0.2891077,1.405167,0.1169596,-0.1169642,1.752644,0.1025208,-0.429229,1.729328,-0.04659999,0.06866755,1.760069,0.01825007,-0.4193677,1.70364,-0.1128594,-0.1900829,1.761755,0.3807804,-0.05401,1.498977,NA,NA,NotTracked,Closed,
0.9335938,-0.3447266,-0.04248047,-0.7758789,0.4428711,0.5405273,-2,-2,0,-1,-1,0,2,-1,2,-12,-4,-1,-1,-1,0,1,5.875,5.875,5.875,-7.125,-7.125,-7.125,2.300836,3.075253,8.544487,6.117792,6.43473,6.709048,-0.08917175,-0.4988548,1.655017,0.3296912,0.2559537,1.377984,0.1298119,0.3378843,1.752069,-0.1388545,-0.4816294,1.67506,0.2925954,0.2788107,1.395308,0.1166553,-0.1170168,1.752747,0.1020929,-0.4294856,1.72932,-0.04750589,0.06839181,1.760499,0.01788418,-0.4196096,1.703715,-0.1130964,-0.1902345,1.761779,0.3806725,-0.0540074,1.498801,NA,NA,NotTracked,Closed,
0.9355469,-0.3466797,-0.04101563,-0.7998047,0.4086914,0.527832,0,-3,1,0,-2,-3,-2,-2,-1,2,0,-3,0,-1,2,5,5.125,5.125,5.125,-5.375,-5.375,-5.375,2.302374,3.073505,8.549017,6.110947,6.423533,6.710663,-0.08921978,-0.499541,1.655922,0.3298116,0.256117,1.375524,0.1293699,0.3381932,1.752391,-0.1382371,-0.4895467,1.67179,0.2928177,0.2712076,1.386111,0.1160635,-0.1173066,1.75254,0.1016366,-0.4297172,1.729418,-0.04833329,0.06830181,1.760989,0.01748067,-0.4198143,1.703885,-0.1132849,-0.1903664,1.761947,0.3803785,-0.0539423,1.49852,NA,NA,NotTracked,Closed,
0.9233398,-0.3447266,-0.04589844,-0.8173828,0.4487305,0.4970703,-2,-1,-1,0,-1,-2,-2,0,-2,10,2,9,2,1,-4,-1,4.6875,4.6875,4.6875,-1.1875,-1.1875,-1.1875,2.304027,3.070561,8.553097,6.115476,6.421343,6.717097,-0.08959797,-0.4993608,1.654441,0.3290862,0.2541753,1.372975,0.128971,0.3382137,1.752231,-0.1388295,-0.4919137,1.673047,0.2976087,0.2589757,1.4028,0.1155588,-0.1176449,1.752142,0.1012349,-0.4299566,1.729259,-0.04891776,0.0681579,1.761112,0.01710709,-0.4200637,1.703798,-0.1133866,-0.1905085,1.761896,0.3802327,-0.05393755,1.498349,NA,NA,NotTracked,Closed,
0.9228516,-0.3457031,-0.04199219,-0.8310547,0.434082,0.487793,-1,-1,0,0,-2,1,0,-1,0,-13,-9,-16,-8,-4,-5,-3,2.8125,2.8125,2.8125,-0.25,-0.25,-0.25,2.30537,3.067107,8.555898,6.120113,6.424769,6.724011,-0.0897483,-0.4992105,1.657068,0.3263482,0.2543556,1.373309,0.1280623,0.338497,1.752204,-0.1384242,-0.4871076,1.672316,0.2911596,0.2760272,1.399661,0.1149086,-0.1176948,1.752304,0.1006514,-0.4302669,1.729174,-0.05009622,0.06802628,1.76175,0.01653965,-0.4203328,1.703771,-0.113659,-0.1907596,1.762281,0.3797365,-0.05401887,1.497964,NA,NA,NotTracked,Closed,
0.9301758,-0.3579102,-0.04638672,-0.8408203,0.4326172,0.4829102,0,-1,-2,-1,-2,-1,-2,-1,1,-7,-4,-9,2,-2,1,3,2.0625,2.0625,2.0625,-0.4375,-0.4375,-0.4375,2.307023,3.063068,8.556817,6.125622,6.431239,6.729673,-0.09045041,-0.5006215,1.658216,0.3257095,0.2530349,1.373569,0.1278445,0.3384916,1.752133,-0.1392508,-0.4984123,1.673512,0.2912,0.2626533,1.387714,0.1148495,-0.1176969,1.75235,0.1006748,-0.4303018,1.729212,-0.05043219,0.06788769,1.761865,0.01653819,-0.4203895,1.703819,-0.1138064,-0.1907327,1.762469,0.3791793,-0.05418751,1.497586,NA,NA,NotTracked,Closed,
0.9301758,-0.3574219,-0.04248047,-0.8300781,0.425293,0.4707031,-3,-1,-1,0,2,-2,-3,-1,3,2,-3,-4,0,-4,-6,2,0,0,0,-0.6875,-0.6875,-0.6875,2.309215,3.058825,8.555274,6.128328,6.437168,6.733012,-0.09035586,-0.4997641,1.658099,0.3248275,0.252808,1.374372,0.1276034,0.3385024,1.752197,-0.1384373,-0.4878126,1.674991,0.2907185,0.2702638,1.393982,0.1143681,-0.1180107,1.752023,0.1002796,-0.4304826,1.729175,-0.05076577,0.06787465,1.762056,0.01617761,-0.4205334,1.703874,-0.1138945,-0.1909669,1.762782,0.378992,-0.05430593,1.497333,NA,NA,NotTracked,Closed,
0.9272461,-0.3676758,-0.03564453,-0.8208008,0.4174805,0.4614258,-2,-1,-1,-1,0,-1,0,-2,-3,-1,-5,-8,5,0,-7,-5,0.0625,0.0625,0.0625,1.1875,1.1875,1.1875,2.314499,3.056214,8.549571,6.130598,6.443271,6.733993,-0.09083904,-0.4989469,1.65985,0.3253313,0.2533462,1.37486,0.1274773,0.3384285,1.752218,-0.1381734,-0.5097657,1.671177,0.2896177,0.2642173,1.385733,0.1143262,-0.1179709,1.75205,0.1002678,-0.4304974,1.729169,-0.05106261,0.06790449,1.762219,0.01613854,-0.4205692,1.70388,-0.1139613,-0.1911813,1.762946,0.3789854,-0.05435476,1.497226,NA,NA,NotTracked,Closed,
0.9321289,-0.371582,-0.04248047,-0.8149414,0.4106445,0.465332,-3,-3,-1,-3,-1,-1,-1,-2,3,1,4,17,6,1,1,3,1.0625,1.0625,1.0625,0.9375,0.9375,0.9375,2.320426,3.054986,8.544532,6.131408,6.44781,6.732872,-0.09043858,-0.4988999,1.659871,0.3244906,0.2535734,1.375678,0.1272998,0.3383647,1.752182,-0.1381692,-0.4856781,1.680222,0.2905444,0.2738943,1.397673,0.1138713,-0.1181578,1.751749,0.09994105,-0.4306141,1.729096,-0.05158913,0.06782079,1.762413,0.01584772,-0.4206615,1.70381,-0.1140816,-0.1914373,1.763502,0.3785383,-0.05409617,1.496562,NA,NA,NotTracked,Closed,
0.9331055,-0.3754883,-0.05175781,-0.8007813,0.3974609,0.4580078,0,0,-1,0,-2,0,0,-2,8,14,6,-5,5,-1,1,2,0.375,0.375,0.375,1.3125,1.3125,1.3125,2.323552,3.056078,8.541751,6.131356,6.450428,6.73148,-0.09011326,-0.5036443,1.659153,0.3249823,0.2550671,1.377671,0.1265665,0.3383225,1.751851,-0.138893,-0.4749702,1.688727,0.2912538,0.2667046,1.395392,0.1133855,-0.1183634,1.751369,0.09960149,-0.430743,1.728979,-0.05205239,0.06774892,1.762434,0.0155254,-0.4207938,1.703829,-0.114457,-0.1919734,1.764024,0.3784277,-0.05413451,1.496384,NA,NA,NotTracked,Closed,
0.934082,-0.3613281,-0.05859375,-0.7885742,0.4052734,0.4731445,-1,0,0,-1,0,0,-1,-1,-13,-12,-7,-16,-6,-4,-3,-5,0.1875,0.1875,0.1875,-0.375,-0.375,-0.375,2.325126,3.058267,8.539935,6.130977,6.450414,6.72931,-0.09037034,-0.5012987,1.658647,0.3247894,0.2552147,1.37684,0.1262032,0.3384648,1.751787,-0.1384978,-0.4842084,1.682433,0.287816,0.2758183,1.404111,0.1131625,-0.1183734,1.751345,0.09926982,-0.4308832,1.728831,-0.05228074,0.06762268,1.762411,0.0152305,-0.4209226,1.703758,-0.1144923,-0.1919854,1.764054,0.3782598,-0.05410534,1.496306,NA,NA,NotTracked,Closed,
0.9448242,-0.3642578,-0.04785156,-0.796875,0.4106445,0.4604492,-3,-1,0,-1,-1,2,-1,-1,-2,-3,2,11,-2,1,4,-1,0.5,0.5,0.5,-1.75,-1.75,-1.75,2.325573,3.063338,8.539236,6.130992,6.447998,6.729792,-0.09018537,-0.5008919,1.656602,0.3242827,0.2545788,1.376358,0.1258406,0.338345,1.751424,-0.1349738,-0.4895065,1.669042,0.2871636,0.2728323,1.395263,0.1128072,-0.1183415,1.751259,0.09894261,-0.4310224,1.728553,-0.05265446,0.06756135,1.762299,0.01493593,-0.4210185,1.703517,-0.1145322,-0.1920469,1.764053,0.3778721,-0.05400154,1.495733,NA,NA,NotTracked,Closed,
0.9389648,-0.3544922,-0.04345703,-0.8115234,0.4033203,0.480957,0,0,-2,-3,-2,-1,-10,-4,-9,-12,-4,1,-4,-2,-2,-1,2.1875,2.1875,2.1875,-2,-2,-2,2.326588,3.065543,8.539458,6.128923,6.444749,6.730615,-0.09088011,-0.5017059,1.657453,0.3246398,0.2549858,1.37684,0.1253701,0.3384494,1.751139,-0.1385524,-0.4980942,1.673111,0.2858593,0.2748501,1.388357,0.1124774,-0.1183609,1.751209,0.09866635,-0.4311674,1.728382,-0.05293943,0.06746211,1.762207,0.01470108,-0.421134,1.703371,-0.1145978,-0.192107,1.764051,0.3778516,-0.05402961,1.495689,NA,NA,NotTracked,Closed,
0.9291992,-0.3432617,-0.046875,-0.8237305,0.4057617,0.4750977,-1,-2,-1,-1,-1,-1,-3,-2,-11,-3,-4,-10,-4,-2,-4,-6,3.1875,3.1875,3.1875,1.25,1.25,1.25,2.329555,3.069389,8.539724,6.129159,6.441914,6.730291,-0.09170242,-0.500425,1.655112,0.3242134,0.2536961,1.375398,0.124861,0.3381341,1.750921,-0.1384246,-0.496092,1.665556,0.287762,0.2709581,1.394607,0.1123019,-0.1184778,1.750854,0.09849583,-0.4312244,1.728159,-0.05360398,0.06742117,1.762192,0.01450424,-0.4211925,1.703272,-0.1148097,-0.1923328,1.764158,0.3777646,-0.05404957,1.495606,NA,NA,NotTracked,Closed,
0.9301758,-0.3432617,-0.05175781,-0.7973633,0.4370117,0.4731445,-2,-1,-2,-1,-1,-1,-1,0,4,-1,4,25,5,1,0,-1,0.125,2.125,2.125,3,3,3,2.330354,3.072254,8.541698,6.132792,6.438586,6.730879,-0.09171159,-0.5012969,1.654893,0.3239394,0.2526708,1.376669,0.1242737,0.3382816,1.750729,-0.1366025,-0.5189448,1.657769,0.288523,0.2694943,1.399673,0.1122982,-0.1184721,1.750849,0.09844401,-0.4312204,1.728077,-0.0539907,0.06737777,1.762185,0.01438388,-0.4211957,1.703171,-0.1149334,-0.1922173,1.764208,0.3776125,-0.05413797,1.495448,NA,NA,NotTracked,Closed,
0.9311523,-0.3398438,-0.04785156,-0.7768555,0.4204102,0.4658203,-2,0,-1,-2,-2,-2,-2,0,2,-1,-1,4,-1,5,31,9,-0.9375,-0.9375,-0.9375,3,3,3,2.330312,3.072293,8.541639,6.135801,6.43539,6.7304,-0.09206964,-0.4994397,1.653514,0.3235545,0.2529083,1.374534,0.1240816,0.3381384,1.750422,-0.1392023,-0.4736839,1.674055,0.2852944,0.2763507,1.394603,0.11209,-0.1184546,1.750712,0.09828351,-0.4312948,1.727836,-0.05417196,0.06732584,1.762047,0.01425614,-0.4212736,1.702993,-0.1151407,-0.1924472,1.764114,0.3775186,-0.05434704,1.495125,NA,NA,NotTracked,Closed,
0.9345703,-0.3481445,-0.04980469,-0.7358398,0.4208984,0.4667969,-1,-1,-1,-1,-2,-2,-2,-1,1,2,0,-6,-4,-2,6,-1,-0.5625,-0.5625,-0.5625,10.9375,10.9375,10.9375,2.327351,3.072559,8.543897,6.138369,6.430583,6.719955,-0.09251394,-0.5002666,1.651712,0.3230952,0.2507352,1.375099,0.123709,0.3379337,1.750099,-0.1380274,-0.4960206,1.662833,0.2846149,0.2707404,1.421,0.111925,-0.1184724,1.750479,0.09806746,-0.4313508,1.727396,-0.05448151,0.06729793,1.761891,0.01392246,-0.4213496,1.702523,-0.1154113,-0.192687,1.763695,0.3775286,-0.05469434,1.494962,NA,NA,NotTracked,Closed,
0.9272461,-0.331543,-0.03857422,-0.6577148,0.3793945,0.4404297,-2,-2,-1,-1,-1,-1,1,1,-2,-3,-3,-4,-2,0,-2,-4,1.4375,1.4375,1.4375,30.625,30.625,30.625,2.327101,3.071494,8.545938,6.146825,6.423876,6.695149,-0.09304442,-0.4999676,1.653259,0.323543,0.2510681,1.376871,0.1233517,0.338124,1.749818,-0.1435505,-0.4826253,1.6898,0.2855638,0.2647116,1.420167,0.1117731,-0.1185458,1.750129,0.09790593,-0.4313097,1.727109,-0.05468506,0.06737728,1.76177,0.01367963,-0.4213096,1.702275,-0.1155794,-0.1928027,1.7635,0.3774855,-0.05499624,1.494909,NA,NA,NotTracked,Closed,
0.9189453,-0.3349609,-0.04150391,-0.559082,0.4277344,0.4204102,-1,-2,0,-1,-2,-1,-1,-1,0,-1,1,4,-2,-2,1,-3,0.0625,0.0625,0.0625,38.75,38.75,38.75,2.325742,3.070989,8.547491,6.183924,6.402941,6.686788,-0.09333496,-0.5007163,1.652731,0.3214244,0.2447569,1.37636,0.1232065,0.3379685,1.749668,-0.1412064,-0.4966995,1.6715,0.2858485,0.255628,1.4161,0.1115646,-0.1184211,1.749846,0.09769873,-0.4312972,1.726608,-0.05511156,0.06715843,1.761384,0.01346407,-0.4213407,1.701847,-0.116093,-0.1927754,1.763115,0.3682373,-0.0401243,1.504091,NA,NA,NotTracked,Closed,
0.9223633,-0.3408203,-0.03808594,-0.6274414,0.4116211,0.4155273,-1,-2,-1,0,-2,0,-2,-1,0,0,0,-3,-2,0,5,0,1.4375,1.4375,1.4375,24.25,24.25,24.25,2.325248,3.068926,8.54895,6.223704,6.371548,6.69606,-0.09409571,-0.5006084,1.651458,0.3183294,0.2398713,1.374101,0.1228647,0.3379824,1.749198,-0.1408073,-0.4817584,1.674556,0.2801458,0.2498827,1.4101,0.1112716,-0.1183034,1.749382,0.09731798,-0.4312644,1.725898,-0.05539717,0.06707507,1.761097,0.01313469,-0.4213167,1.701152,-0.1163633,-0.1927297,1.762855,0.3674255,-0.03938156,1.50544,NA,NA,NotTracked,Closed,
0.9326172,-0.3393555,-0.03662109,-0.4853516,0.3852539,0.3686523,-1,-2,0,-2,0,-2,-2,-1,-2,-1,-2,-2,0,-1,-6,-4,2.0625,2.0625,2.0625,38.25,38.25,38.25,2.328008,3.0627,8.551589,6.271406,6.318273,6.714771,-0.09445191,-0.5014886,1.652186,0.3156686,0.2309531,1.372415,0.1225652,0.3382476,1.748964,-0.1425666,-0.5018669,1.666538,0.2735305,0.2449788,1.406429,0.11108,-0.1181994,1.749186,0.09731571,-0.4312501,1.725692,-0.05576129,0.06684397,1.760804,0.01317651,-0.4213325,1.700941,-0.1165588,-0.1929125,1.762719,0.3672675,-0.0399825,1.507104,NA,NA,NotTracked,Closed,
0.9365234,-0.3496094,-0.02636719,-0.5761719,0.4545898,0.4086914,1,-1,-1,-2,-1,-2,-2,-1,-1,5,0,0,0,2,-3,2,1.625,1.625,1.625,52.1875,52.1875,52.1875,2.329601,3.059966,8.550804,6.346939,6.23604,6.736854,-0.09446482,-0.5010166,1.651148,0.312572,0.2172706,1.368356,0.1221379,0.338357,1.748567,-0.1389824,-0.5041906,1.655,0.2594123,0.2481126,1.37025,0.1106323,-0.1186354,1.748283,0.09676996,-0.4316372,1.724844,-0.05299846,0.06740487,1.758036,0.01271682,-0.4216213,1.700135,-0.1169444,-0.1929222,1.762203,0.3688467,-0.04584701,1.509944,NA,NA,NotTracked,Closed,
