ALX,ALY,ALZ,ARX,ARY,ARZ,EMG0L,EMG1L,EMG2L,EMG3L,EMG4L,EMG5L,EMG6L,EMG7L,EMG0R,EMG1R,EMG2R,EMG3R,EMG4R,EMG5R,EMG6R,EMG7R,GLX,GLY,GLZ,GRX,GRY,GRZ,ORL,OPL,OYL,ORR,OPR,OYR,LHNX,LHNY,LHNZ,RHNX,RHNY,RHNZ,HX,HY,HZ,LTX,LTY,LTZ,RTX,RTY,RTZ,SpineMidX,SpineMidY,SpineMidZ,SpineBaseX,SpineBaseY,SpineBaseZ,ShoulderLeftX,ShoulderLeftY,ShoulderLeftZ,ShoulderRightX,ShoulderRightY,ShoulderRightZ,ElbowLeftX,ElbowLeftY,ElbowLeftZ,ElbowRightX,ElbowRightY,ElbowRightZ,Myo_Pose_left,Myo_Pose_Right,Kinect_pose_left,Kinect_pose_right
0.9326172,-0.3461914,-0.02880859,0.9213867,0.324707,0.01074219,-1,0,-2,-2,-3,-4,-2,-3,0,-3,-1,-1,0,-1,-1,0,0.9375,0.9375,0.9375,0.3125,0.3125,0.3125,2.367915,3.058754,9.218245,7.478738,3.045647,4.373772,-0.08282829,-0.5046592,1.642182,0.3773166,-0.5104961,1.605062,0.1458445,0.3357178,1.704877,-0.03217232,-0.4814321,1.615136,0.4150716,-0.5220892,1.5823,0.1319744,-0.115301,1.720898,0.1270332,-0.4237053,1.711053,-0.04092855,0.06894317,1.723728,0.04578019,-0.4137453,1.681405,-0.09733463,-0.1764224,1.733021,0.3612205,-0.1798982,1.698142,NA,NA,NotTracked,NotTracked,
0.9306641,-0.3447266,-0.02587891,0.9086914,0.3198242,-0.001953125,-1,0,0,-1,-1,-1,-2,0,0,-5,-5,-2,-1,0,0,-3,0.4375,0.4375,0.4375,-0.625,-0.625,-0.625,2.367915,3.058754,9.218245,7.478738,3.045647,4.373772,-0.08321769,-0.5047584,1.642383,0.3764493,-0.5118498,1.605938,0.1457783,0.3357604,1.705036,-0.03236908,-0.4822547,1.616214,0.4141673,-0.5051678,1.600131,0.1318835,-0.1151617,1.721098,0.1269998,-0.4236518,1.711322,-0.04097994,0.06900843,1.723802,0.04575032,-0.4137015,1.681682,-0.09729747,-0.1763726,1.733142,0.3612145,-0.1798521,1.698361,NA,NA,NotTracked,NotTracked,
0.9375,-0.3413086,-0.02636719,0.9238281,0.3154297,-0.00390625,-1,0,-2,-1,-1,-1,-1,-3,-1,0,-1,0,-1,1,-1,1,0.6875,0.6875,0.6875,-0.9375,-0.9375,-0.9375,2.367915,3.058754,9.218245,7.47876,3.045453,4.373631,-0.08302949,-0.503948,1.642286,0.3758426,-0.5110444,1.604253,0.1457553,0.335751,1.705065,-0.03210347,-0.4826458,1.615491,0.4126941,-0.5121879,1.591815,0.1318431,-0.1151557,1.721195,0.126977,-0.4236265,1.711442,-0.04102242,0.06909922,1.723877,0.04573151,-0.4136875,1.681765,-0.09728652,-0.176303,1.733146,0.3612262,-0.1798178,1.698464,NA,NA,NotTracked,NotTracked,
0.9414063,-0.3393555,-0.02539063,0.9150391,0.3183594,0.0004882813,-1,-1,-2,-2,-2,-2,-4,0,0,-2,-1,-1,-1,0,-1,-2,1.5,1.5,1.5,-0.4375,-0.4375,-0.4375,2.368974,3.058741,9.218032,7.47876,3.045453,4.373631,-0.08350314,-0.5045418,1.642191,0.376538,-0.5106519,1.604749,0.145693,0.3357713,1.705314,-0.03232186,-0.4823641,1.615714,0.4157364,-0.5205127,1.5865,0.1318397,-0.1151145,1.72124,0.126921,-0.4236198,1.711523,-0.04108743,0.06914642,1.723942,0.04568785,-0.4136812,1.68182,-0.09731324,-0.1762672,1.73319,0.3612153,-0.1797947,1.69855,NA,NA,NotTracked,NotTracked,
0.9379883,-0.3408203,-0.02294922,0.9165039,0.3183594,-0.0004882813,-2,0,-1,1,0,0,-1,-1,-1,0,-2,0,-1,-1,-1,0,1.4375,1.4375,1.4375,0.9375,0.9375,0.9375,2.372398,3.059511,9.216458,7.47935,3.045375,4.372993,-0.08273734,-0.5047052,1.642373,0.3759809,-0.5114217,1.60544,0.1455749,0.3358679,1.705668,-0.03098392,-0.4880863,1.615207,0.4151382,-0.5242808,1.591286,0.1318334,-0.1151381,1.721429,0.1269171,-0.4235965,1.711609,-0.04115337,0.06918292,1.724038,0.04567857,-0.4136683,1.681873,-0.09735959,-0.1762324,1.733311,0.3611369,-0.1796766,1.698711,NA,NA,NotTracked,NotTracked,
0.9355469,-0.3393555,-0.02636719,0.9189453,0.3198242,-0.005371094,0,-1,-1,-1,-2,0,0,-2,0,-4,-1,-1,-1,0,0,0,0.875,0.875,0.875,0.25,0.25,0.25,2.372398,3.059511,9.216458,7.481639,3.044649,4.371527,-0.08301082,-0.5041662,1.642786,0.3756891,-0.5116471,1.606022,0.1455491,0.3359337,1.705903,-0.03219071,-0.4799412,1.616448,0.4180865,-0.5260677,1.591333,0.1318782,-0.115095,1.721591,0.1269245,-0.4235703,1.711801,-0.0411549,0.06929691,1.724269,0.04568066,-0.4136273,1.682219,-0.0973667,-0.1761229,1.733495,0.3611518,-0.1797332,1.698793,NA,NA,NotTracked,NotTracked,
0.9326172,-0.3452148,-0.02685547,0.9213867,0.3286133,-0.008300781,0,1,-2,-1,-1,-2,1,0,-1,-1,0,-1,-4,-5,9,-1,1.3125,1.3125,1.3125,0.875,0.875,0.875,2.373954,3.059809,9.21629,7.481492,3.044991,4.373025,-0.08316544,-0.5041336,1.641822,0.3753835,-0.5111902,1.604336,0.1455046,0.3359845,1.70601,-0.0322322,-0.480378,1.615612,0.4145673,-0.5178502,1.590963,0.1318773,-0.1151022,1.721616,0.1269199,-0.4235671,1.711818,-0.04113635,0.06929615,1.724296,0.04567677,-0.4136229,1.682224,-0.09732772,-0.1761221,1.733576,0.3611512,-0.1797325,1.698846,NA,NA,NotTracked,NotTracked,
0.9360352,-0.340332,-0.02539063,0.9238281,0.3339844,-0.004882813,-2,-2,0,-1,0,0,-2,-1,1,-2,0,0,-1,1,-3,1,1.75,1.75,1.75,-1.3125,-1.3125,-1.3125,2.377584,3.060141,9.216605,7.476718,3.047069,4.378016,-0.08263093,-0.5047564,1.64292,0.3750947,-0.5119122,1.605541,0.1453483,0.3360533,1.706555,-0.03244505,-0.4662116,1.617441,0.4137024,-0.5202157,1.580083,0.1319525,-0.1150996,1.721867,0.1269473,-0.4235229,1.712013,-0.041235,0.06932894,1.724655,0.0456847,-0.4136305,1.68247,-0.09725543,-0.176136,1.733864,0.3611944,-0.1796699,1.699071,NA,NA,NotTracked,NotTracked,
0.934082,-0.3466797,-0.02539063,0.9829102,0.3491211,-0.03125,-1,-2,-1,0,-1,-3,-2,-3,-7,-4,-4,-3,1,4,-1,-2,1.625,1.625,1.625,2.0625,2.0625,2.0625,2.379651,3.060232,9.21623,7.456001,3.057133,4.403958,-0.08235976,-0.5044529,1.642215,0.3744715,-0.5114318,1.605293,0.1453234,0.3360689,1.706638,-0.03232359,-0.4775495,1.616215,0.4126911,-0.5128739,1.601105,0.131988,-0.1150775,1.721894,0.1269463,-0.4235273,1.712024,-0.04123183,0.0693123,1.724792,0.04568174,-0.4136297,1.68248,-0.09724676,-0.1761541,1.733994,0.3612385,-0.1796358,1.699131,NA,NA,NotTracked,NotTracked,
0.9350586,-0.34375,-0.03027344,1.083008,0.3383789,0.002441406,-2,-1,0,1,-2,-1,-2,1,-1,4,1,0,10,10,7,0,2.4375,2.4375,2.4375,10.3125,10.3125,10.3125,2.381536,3.060446,9.216522,7.36271,3.081144,4.510745,-0.08179713,-0.5045291,1.643197,0.3714312,-0.5098002,1.602305,0.1451896,0.3360496,1.707099,-0.02910118,-0.5053994,1.613565,0.4107175,-0.5053475,1.5985,0.1320758,-0.1151067,1.72208,0.1271352,-0.4235118,1.712147,-0.04114868,0.06933788,1.725151,0.0458526,-0.4136254,1.682595,-0.09708469,-0.1761447,1.734363,0.3613779,-0.1795292,1.699744,NA,NA,NotTracked,NotTracked,
0.9428711,-0.3505859,-0.02880859,1.087402,0.4594727,0.08691406,-2,-1,-1,-1,0,-1,-1,0,-6,-11,-30,2,-4,-4,-3,-6,3.9375,3.9375,3.9375,36.9375,36.9375,36.9375,2.385007,3.061952,9.21728,7.206044,3.136894,4.718091,-0.08118901,-0.5044842,1.642447,0.3653482,-0.5063785,1.59657,0.1451927,0.3360054,1.707404,-0.03324874,-0.4774488,1.61825,0.3956742,-0.5085043,1.562778,0.1321196,-0.115155,1.722228,0.127183,-0.4235202,1.71221,-0.04111454,0.06936097,1.725346,0.04587877,-0.4136367,1.682628,-0.09702068,-0.1761305,1.734539,0.3620938,-0.1792279,1.700951,NA,NA,NotTracked,NotTracked,
0.9311523,-0.3427734,-0.03613281,1.061035,0.5961914,0.2436523,0,-2,-1,-1,-1,-1,0,-1,1,0,4,2,-17,-2,-3,-2,4.8125,4.8125,4.8125,32,32,32,2.387432,3.062821,9.219724,7.014377,3.238762,4.972012,-0.08104675,-0.5058573,1.643584,0.3584486,-0.4963116,1.588449,0.1451364,0.3360488,1.708134,-0.03163614,-0.4715676,1.617125,0.3818928,-0.4948108,1.548582,0.1321455,-0.1151648,1.722406,0.1271884,-0.4235106,1.712261,-0.04108453,0.0693785,1.726026,0.04587931,-0.4136316,1.682638,-0.09686461,-0.1761634,1.735015,0.3641175,-0.1785557,1.704253,NA,NA,NotTracked,NotTracked,
0.9272461,-0.3369141,-0.03076172,0.9731445,0.6367188,0.3613281,-2,-1,0,-1,2,-2,-1,-1,-9,5,10,2,-5,-11,-24,-7,1.625,1.625,1.625,27.625,27.625,27.625,2.387288,3.062678,9.223104,6.842987,3.383545,5.202565,-0.08101922,-0.5054529,1.643623,0.3502523,-0.4787111,1.574893,0.1451632,0.3359997,1.708305,-0.03209466,-0.4802236,1.617642,0.3666524,-0.4763926,1.531057,0.1321506,-0.1151561,1.722466,0.1271942,-0.4235171,1.712265,-0.04100224,0.06925754,1.726264,0.04587758,-0.4136582,1.682594,-0.09675553,-0.1762549,1.735546,0.3663463,-0.177725,1.70766,NA,NA,NotTracked,NotTracked,
0.9277344,-0.3417969,-0.02636719,0.8930664,0.734375,0.4467773,-2,-3,-1,-3,-2,-1,-2,-2,2,-3,-29,-5,-2,-4,-2,1,-4.1875,-4.1875,-4.1875,35.9375,35.9375,35.9375,2.376122,3.059484,9.231273,6.725542,3.564185,5.389122,-0.08100741,-0.505715,1.645675,0.3240481,-0.4285391,1.545896,0.1450678,0.3360829,1.70872,-0.03179025,-0.4804921,1.617584,0.3410273,-0.4189137,1.500132,0.1321136,-0.1151163,1.722611,0.1269148,-0.4234126,1.712216,-0.04082057,0.06926481,1.72675,0.04548373,-0.4134885,1.682434,-0.09641017,-0.1762939,1.735948,0.3720777,-0.175876,1.716663,NA,NA,NotTracked,NotTracked,
0.9389648,-0.347168,-0.01757813,0.8168945,0.8364258,0.5014648,-1,-1,-2,-2,-4,0,-3,-2,2,3,10,0,-1,9,3,1,-8.8125,-8.8125,-8.8125,22.875,22.875,22.875,2.367091,3.055413,9.231781,6.631445,3.783499,5.555796,-0.08118155,-0.5060049,1.64544,0.3106876,-0.3894841,1.528637,0.1450674,0.3360855,1.708931,-0.03087288,-0.4846504,1.616266,0.3291171,-0.3781264,1.4894,0.1319128,-0.1150752,1.722658,0.1260279,-0.4231053,1.711929,-0.04062993,0.06920238,1.726849,0.04433781,-0.4130636,1.681942,-0.09627628,-0.1763228,1.73622,0.3784994,-0.1736561,1.720268,NA,NA,NotTracked,Unknown,
0.9399414,-0.3544922,-0.01464844,0.5097656,0.8237305,0.5356445,0,-3,0,0,-1,-3,-2,0,-1,0,6,-2,-5,-6,-7,0,-10.75,-10.75,-10.75,10.1875,10.1875,10.1875,2.364705,3.053735,9.228344,6.521889,4.167295,5.754479,-0.08058661,-0.5061227,1.645774,0.2726201,-0.3510452,1.546774,0.1451071,0.3360791,1.708966,-0.03168682,-0.4819432,1.617686,0.3156559,-0.3121793,1.501411,0.1316596,-0.1150136,1.722809,0.1252088,-0.4228546,1.711905,-0.04058058,0.06919579,1.72697,0.04337934,-0.4126445,1.681928,-0.09625492,-0.1763248,1.736322,0.3849293,-0.1711673,1.724724,NA,NA,NotTracked,Unknown,
0.9414063,-0.3608398,-0.01513672,0.440918,0.8144531,0.5541992,-2,-1,-2,0,-4,0,-1,-2,3,5,8,5,-1,-3,3,1,-11.1875,-11.1875,-11.1875,16.4375,16.4375,16.4375,2.362007,3.051082,9.211722,6.504461,4.304796,5.812777,-0.08035067,-0.5058221,1.647023,0.2609818,-0.305025,1.523421,0.1453297,0.3361056,1.709331,-0.03102939,-0.4735376,1.618456,0.2420009,-0.3755077,1.565889,0.1313206,-0.1149379,1.723023,0.1242085,-0.4225658,1.711909,-0.0404084,0.06920753,1.727048,0.04242299,-0.4122779,1.681952,-0.09620218,-0.1762919,1.736349,0.3873107,-0.1633516,1.725277,NA,NA,NotTracked,Closed,
0.9418945,-0.3671875,-0.02001953,0.2402344,0.8525391,0.5791016,-1,-1,-2,-1,-1,-1,-1,-2,4,4,4,0,0,-1,0,0,-8.0625,-8.0625,-8.0625,11.5,11.5,11.5,2.365091,3.053111,9.19797,6.475252,4.736773,5.977962,-0.07923629,-0.5053008,1.644144,0.2337991,-0.2146472,1.483626,0.1459302,0.3359267,1.709733,-0.03133902,-0.4787918,1.619228,0.1995467,-0.223814,1.557883,0.1313531,-0.1148304,1.723326,0.1240258,-0.4222948,1.711923,-0.03999006,0.06904528,1.727126,0.04234213,-0.4121022,1.681908,-0.09565561,-0.1765071,1.736214,0.3955982,-0.1427154,1.712409,NA,NA,NotTracked,Closed,
0.9477539,-0.3549805,-0.02587891,0.01904297,0.762207,0.5332031,-1,-1,-1,-1,0,-1,-1,0,2,9,-1,-7,-1,-2,-1,0,-4.5,-4.5,-4.5,6.4375,6.4375,6.4375,2.373903,3.057935,9.182759,6.475911,5.027119,6.078805,-0.07838038,-0.5062147,1.643899,0.2219154,-0.1630205,1.482157,0.1463909,0.3361036,1.710297,-0.0286045,-0.5041585,1.6185,0.1940101,-0.2110918,1.552364,0.1315009,-0.1146762,1.723714,0.1241538,-0.4220063,1.712144,-0.03973547,0.06899711,1.727208,0.04247224,-0.4118742,1.682083,-0.09548705,-0.1765405,1.736251,0.4480042,-0.1449861,1.688294,NA,NA,NotTracked,Closed,
0.9321289,-0.3530273,-0.02197266,-0.1552734,0.7041016,0.5136719,-1,-2,0,0,-1,0,-2,-1,7,9,-6,-1,0,-2,-3,1,-3.5625,-3.5625,-3.5625,15.125,15.125,15.125,2.384004,3.064977,9.16703,6.504669,5.306428,6.181416,-0.07763641,-0.5054413,1.641483,0.2167677,-0.1139684,1.481071,0.1466956,0.3361618,1.710578,-0.02939803,-0.4790049,1.618357,0.1556989,-0.1155272,1.539438,0.1315693,-0.1146244,1.72396,0.1241856,-0.4218235,1.712186,-0.03932988,0.06889508,1.727303,0.0425454,-0.41173,1.682133,-0.09543374,-0.17658,1.73618,0.4182915,-0.1312573,1.669865,NA,NA,NotTracked,Unknown,
0.9204102,-0.3344727,-0.02832031,-0.3432617,0.6552734,0.5283203,-1,-2,-2,-1,-1,-2,-1,-2,-4,7,8,2,1,1,0,0,-2.125,-2.125,-2.125,26.5,26.5,26.5,2.39538,3.072806,9.152711,6.584767,5.675634,6.347309,-0.07608507,-0.5047152,1.639978,0.2128973,-0.01961099,1.489929,0.1479257,0.3361157,1.711992,-0.0288101,-0.458101,1.62,0.1786918,-0.06017224,1.566429,0.1320083,-0.1144956,1.725059,0.1242185,-0.4217153,1.712421,-0.03836894,0.0687612,1.728007,0.04264083,-0.4116788,1.682415,-0.0951553,-0.1766271,1.736233,0.4070054,-0.1292272,1.632776,NA,NA,NotTracked,Unknown,
0.9277344,-0.3320313,-0.02001953,-0.3920898,0.6098633,0.4921875,-1,0,0,-1,0,-1,-2,-1,-4,-7,-3,-3,-3,-2,0,1,-3.6875,-3.6875,-3.6875,56.0625,56.0625,56.0625,2.405277,3.081184,9.136295,6.691266,5.892758,6.460964,-0.07530618,-0.5050681,1.638004,0.2087325,0.02163102,1.493405,0.148545,0.3362355,1.712825,-0.02668558,-0.4908111,1.615714,0.1916733,-0.02505235,1.5943,0.1320867,-0.1145898,1.725514,0.1241906,-0.4218189,1.712453,-0.03823963,0.06891045,1.728562,0.04252198,-0.4119485,1.68272,-0.09502102,-0.1765473,1.736167,0.4072292,-0.1271822,1.624949,NA,NA,NotTracked,Unknown,
0.9487305,-0.3349609,-0.02050781,-0.484375,0.5878906,0.3515625,-2,0,-1,-2,1,0,4,0,-7,1,-1,-2,-1,-2,-4,-2,-1.5,-1.5,-1.5,37.75,37.75,37.75,2.40767,3.084625,9.130877,6.869006,6.159252,6.630193,-0.07471012,-0.5044714,1.636682,0.2088652,0.05581537,1.501489,0.1486928,0.3362023,1.713343,-0.02686903,-0.4820288,1.616505,0.1996296,0.01049721,1.602357,0.1321385,-0.1150101,1.725888,0.1239091,-0.4228315,1.712631,-0.03832066,0.06886746,1.72969,0.04184183,-0.4134786,1.684063,-0.09501591,-0.1767183,1.736235,0.4070438,-0.1212464,1.611959,NA,NA,NotTracked,Unknown,
0.956543,-0.3251953,-0.0390625,-0.5332031,0.5195313,0.3017578,-1,0,-2,-1,-3,-1,1,-1,-1,17,2,-1,-1,-3,-3,4,3.375,3.375,3.375,36.125,36.125,36.125,2.41209,3.086445,9.128515,6.983651,6.289557,6.739608,-0.07222087,-0.5040903,1.636189,0.185376,0.1332983,1.520087,0.1487025,0.3365642,1.714429,-0.02579401,-0.4904537,1.615908,0.2077797,0.1626788,1.561222,0.1326648,-0.1157362,1.725838,0.1232319,-0.4253448,1.713193,-0.03778294,0.06862482,1.731216,0.04037563,-0.4163287,1.686982,-0.09446898,-0.1771124,1.736212,0.3970742,-0.089472,1.576068,NA,NA,NotTracked,Unknown,
0.9248047,-0.3359375,-0.03515625,-0.5913086,0.5102539,0.1884766,-2,-1,-1,-1,-2,-3,-3,0,-1,-1,1,1,0,1,0,-2,7.75,7.75,7.75,24.125,24.125,24.125,2.424149,3.088549,9.126205,7.08221,6.37859,6.832549,-0.0720065,-0.503721,1.636552,0.2087416,0.1401,1.525958,0.1485249,0.3372118,1.71508,-0.02449501,-0.4876614,1.614929,0.2519706,0.1755937,1.586333,0.1328833,-0.1159284,1.725799,0.1229652,-0.4264145,1.713449,-0.03690771,0.06838898,1.731775,0.03994623,-0.4171431,1.687672,-0.09415302,-0.1772559,1.736348,0.3956458,-0.08484304,1.571533,NA,NA,NotTracked,Unknown,
0.9233398,-0.3256836,-0.02587891,-0.6254883,0.484375,0.1855469,-1,0,-3,-2,-1,-1,-2,-1,-2,-10,-1,-2,-1,-1,-2,-6,9,9,9,18.1875,18.1875,18.1875,2.432779,3.087869,9.127012,7.149419,6.431891,6.89483,-0.07050999,-0.5043213,1.637251,0.2174885,0.1579142,1.534248,0.1483488,0.3378623,1.715398,-0.02229275,-0.5000682,1.613172,0.2263619,0.1812482,1.513158,0.133588,-0.1161647,1.725699,0.1225472,-0.4272884,1.71363,-0.03470407,0.06794517,1.733425,0.03940902,-0.4176074,1.688195,-0.09205531,-0.177719,1.737481,0.3887867,-0.06819046,1.559377,NA,NA,NotTracked,Unknown,
0.9282227,-0.3535156,-0.02392578,-0.5249023,0.5458984,0.2094727,-2,-1,-1,-2,1,-1,-3,1,-1,-9,-5,-2,-4,-1,1,1,7.875,7.875,7.875,1.3125,1.3125,1.3125,2.435568,3.085207,9.133477,7.188375,6.4576,6.936533,-0.0702111,-0.5048483,1.639166,0.2192691,0.1620581,1.536404,0.1483694,0.337925,1.715527,-0.0217839,-0.5029703,1.613382,0.238618,0.1826647,1.517077,0.1340832,-0.1162456,1.72575,0.122464,-0.4274864,1.713746,-0.03338612,0.06776223,1.734037,0.03926186,-0.4177084,1.688453,-0.09135503,-0.1777592,1.738048,0.3868297,-0.06356436,1.556522,NA,NA,NotTracked,Unknown,
0.9287109,-0.347168,-0.02929688,-0.2402344,0.6196289,0.07128906,-2,0,-1,1,-3,-2,-1,-1,0,-2,0,-1,-2,-1,0,0,5,5,5,-2.125,-2.125,-2.125,2.433177,3.076741,9.148451,7.186769,6.448183,6.942976,-0.06914455,-0.504681,1.642252,0.2238961,0.161836,1.536335,0.1482121,0.338426,1.715967,-0.02208101,-0.4927902,1.613177,0.2431214,0.1843933,1.51946,0.1344698,-0.1162857,1.725735,0.1219615,-0.4277594,1.713738,-0.03200155,0.06749207,1.734856,0.03860166,-0.4177147,1.688803,-0.09006666,-0.1779722,1.739424,0.3857385,-0.05907605,1.553064,NA,NA,NotTracked,Unknown,
0.9287109,-0.3725586,-0.01953125,-1.071777,0.5996094,0.1479492,-1,-2,0,-2,-3,0,0,0,0,-5,1,1,0,0,1,2,3.5625,3.5625,3.5625,0.25,0.25,0.25,2.42918,3.071836,9.156785,7.233,6.466362,6.976593,-0.06771197,-0.5079251,1.645159,0.1988359,0.1822987,1.546296,0.1480106,0.3389193,1.716559,-0.02065953,-0.4773633,1.615206,0.18983,0.2431622,1.6145,0.134612,-0.1163321,1.725832,0.1217612,-0.4278978,1.713845,-0.0316635,0.0673599,1.73591,0.03828929,-0.4177766,1.689145,-0.08907184,-0.1781989,1.74115,0.3856864,-0.05712333,1.550691,NA,NA,NotTracked,Unknown,
0.9365234,-0.3754883,-0.02197266,-0.8100586,0.6303711,0.1157227,-2,-1,0,-1,-3,-3,-3,-1,1,3,0,-2,-2,0,-2,-1,3.75,3.75,3.75,-0.9375,-0.9375,-0.9375,2.422071,3.065032,9.171913,7.226128,6.468944,6.970958,-0.06861856,-0.5089632,1.646655,0.198032,0.1826688,1.548016,0.1478821,0.3389513,1.716738,-0.02230412,-0.4875023,1.615443,0.190261,0.2437142,1.618165,0.1347335,-0.1163273,1.725861,0.1215713,-0.427957,1.713871,-0.03138298,0.06720152,1.736487,0.03796601,-0.4177228,1.68944,-0.08841821,-0.1784024,1.7422,0.385647,-0.05588594,1.549201,NA,NA,NotTracked,Unknown,
0.9350586,-0.3896484,-0.01611328,-0.8911133,0.6235352,0.1147461,-1,-2,-1,-3,-1,-1,-2,-1,-10,-16,-6,-2,-1,-1,-3,-3,3.125,3.125,3.125,-3.4375,-3.4375,-3.4375,2.419651,3.064392,9.176608,7.221421,6.48091,6.969762,-0.06891861,-0.5098597,1.648988,0.1978896,0.1836603,1.548939,0.1476537,0.3388806,1.717001,-0.02157389,-0.4850557,1.616141,0.1546643,0.1856572,1.599667,0.1350925,-0.1163801,1.725955,0.1214076,-0.4280611,1.713915,-0.03099645,0.06702511,1.73781,0.0377337,-0.4177139,1.68973,-0.0874733,-0.1786223,1.744441,0.3853363,-0.0552436,1.547719,NA,NA,NotTracked,Unknown,
0.9399414,-0.3798828,-0.01708984,-0.9179688,0.5908203,0.07177734,-2,0,1,-1,1,0,-3,-1,1,7,-1,-2,-1,0,-2,-1,0.625,0.625,0.625,4.5625,4.5625,4.5625,2.411699,3.063958,9.189013,7.230406,6.506484,6.978689,-0.06954537,-0.509427,1.650953,0.2000195,0.1850707,1.550537,0.1475551,0.3387739,1.717307,-0.02219673,-0.4878433,1.616137,0.1553954,0.2151077,1.624286,0.1352496,-0.1163522,1.726113,0.121301,-0.4280667,1.714043,-0.03086565,0.06688517,1.738358,0.03756802,-0.417626,1.690014,-0.08715092,-0.1787401,1.745639,0.3852637,-0.05501783,1.547285,NA,NA,NotTracked,Unknown,
0.9287109,-0.3857422,-0.009277344,-0.8139648,0.5463867,0.05371094,-1,-1,-3,-1,1,-1,1,0,2,0,-4,-3,-1,-3,-5,-4,-5.1875,-5.1875,-5.1875,6.1875,6.1875,6.1875,2.401692,3.066067,9.194332,7.253307,6.537451,6.994856,-0.06986665,-0.5105273,1.651361,0.2002338,0.189894,1.553684,0.1474822,0.3387187,1.717377,-0.02232058,-0.4867285,1.61733,0.148529,0.2106904,1.621586,0.1355044,-0.1163106,1.726287,0.1212334,-0.4280377,1.71412,-0.03065198,0.06702266,1.73901,0.03747462,-0.417533,1.690158,-0.08683632,-0.1786188,1.746404,0.385144,-0.05462563,1.546671,NA,NA,NotTracked,Unknown,
0.9204102,-0.3735352,-0.01074219,-0.6743164,0.4921875,0.1103516,-2,-1,-3,0,0,-2,1,0,-5,-2,-2,-1,-4,0,-9,-36,-7.1875,-7.1875,-7.1875,14.0625,14.0625,14.0625,2.393391,3.068096,9.195168,7.243827,6.534247,6.968829,-0.0703499,-0.5080879,1.652491,0.2022923,0.1974657,1.551467,0.1474919,0.3386162,1.717526,-0.01973811,-0.5010577,1.616633,0.1506835,0.2091569,1.625115,0.1362685,-0.1161574,1.726759,0.1213531,-0.427908,1.714322,-0.03006695,0.06709408,1.73949,0.03752298,-0.4173069,1.690467,-0.08657785,-0.1784723,1.746959,0.3844603,-0.05263351,1.543999,NA,NA,NotTracked,Unknown,
0.921875,-0.3691406,-0.006835938,-0.6469727,0.5561523,0.1469727,1,-1,-1,-1,-2,0,-2,-2,1,-4,-2,-3,-10,-5,-1,27,-6.5,-6.5,-6.5,3.0625,3.0625,3.0625,2.390511,3.070351,9.194697,7.209783,6.497298,6.916355,-0.07091723,-0.5079184,1.651778,0.1997281,0.200811,1.54721,0.1475064,0.3385921,1.717592,-0.0201971,-0.4986314,1.616933,0.1486798,0.2101995,1.619501,0.1366086,-0.1161766,1.726993,0.1214234,-0.4278882,1.714419,-0.02981478,0.06694479,1.739804,0.03756812,-0.4172712,1.690648,-0.08663734,-0.1785698,1.747088,0.3839887,-0.0510347,1.542243,NA,NA,NotTracked,Unknown,
0.9277344,-0.3671875,-0.004882813,-0.6694336,0.59375,0.121582,-1,-2,-2,-1,0,-2,1,0,-1,-4,-4,-3,-2,5,3,5,4.625,4.625,4.625,16.375,16.375,16.375,2.397857,3.083082,9.188056,7.182596,6.434618,6.869679,-0.07094554,-0.5079142,1.651183,0.1962478,0.1979098,1.539007,0.1474981,0.3390963,1.718148,-0.02122548,-0.4941152,1.617884,0.145417,0.2118571,1.622622,0.1369077,-0.1162491,1.727274,0.1215288,-0.4278877,1.714559,-0.02941987,0.06697585,1.740245,0.03761826,-0.4172602,1.690766,-0.08655129,-0.1784857,1.747375,0.3837958,-0.05050593,1.541725,NA,NA,NotTracked,Unknown,
0.9399414,-0.3510742,-0.006347656,-0.7617188,0.6054688,0.1425781,-1,0,-1,-1,-3,0,0,-2,0,12,2,-3,-1,-4,-4,-26,10,10,10,20.8125,20.8125,20.8125,2.415557,3.092157,9.180662,7.177027,6.407763,6.848213,-0.07125797,-0.5068148,1.648858,0.1899091,0.1896355,1.530253,0.1474541,0.3397243,1.718818,-0.02109221,-0.4915658,1.616488,0.1953372,0.2533951,1.624,0.1370425,-0.1162926,1.727367,0.1215822,-0.4279658,1.714648,-0.02924213,0.06692323,1.740551,0.0376256,-0.4172995,1.690833,-0.08658625,-0.1785137,1.747457,0.3837769,-0.05039133,1.541664,NA,NA,NotTracked,Unknown,
0.9379883,-0.3510742,-0.005859375,-0.8168945,0.6748047,0.3291016,-2,-3,-2,-1,1,-2,0,-2,-3,1,1,1,-1,0,0,2,10.0625,10.0625,10.0625,-14.5625,-14.5625,-14.5625,2.424963,3.096022,9.176609,7.14522,6.34561,6.82141,-0.07052629,-0.5064101,1.646529,0.2350852,0.1364595,1.514808,0.1468487,0.3398086,1.720585,-0.02133643,-0.4908193,1.617164,0.2686658,0.1544487,1.504467,0.1370696,-0.11646,1.727483,0.1216605,-0.4285844,1.715245,-0.0294078,0.06673603,1.741584,0.03779132,-0.4180494,1.692105,-0.08673979,-0.1787776,1.747776,0.3844999,-0.05055289,1.542342,NA,NA,NotTracked,Unknown,
0.940918,-0.3378906,-0.015625,-0.9580078,0.8032227,0.2089844,-1,-1,-2,-1,1,-1,-2,0,-12,-56,-14,-3,0,-1,2,0,-0.9375,-0.9375,-0.9375,-25.875,-25.875,-25.875,2.444515,3.100734,9.162396,7.144214,6.353245,6.863317,-0.06959508,-0.506555,1.645697,0.2358084,0.1322576,1.520418,0.1463174,0.3398312,1.722094,-0.02074404,-0.4807676,1.617667,0.2610741,0.1500258,1.500737,0.1370322,-0.1165637,1.727529,0.1216529,-0.4289032,1.715523,-0.02944309,0.06664166,1.741816,0.03782468,-0.4185477,1.692901,-0.08668886,-0.178909,1.747858,0.3850028,-0.05115309,1.543224,NA,NA,NotTracked,Closed,
0.9277344,-0.3530273,-0.02246094,-0.9555664,0.6762695,0.07373047,-2,0,-3,-1,-3,-2,0,-2,-4,-1,1,0,-2,-1,-3,0,-2.625,-2.625,-2.625,-6.5,-6.5,-6.5,2.446219,3.098808,9.155244,7.174222,6.42098,6.918597,-0.0695617,-0.5060146,1.644988,0.237956,0.1339556,1.527811,0.1461506,0.3395258,1.722986,-0.02101694,-0.4880455,1.616784,0.2632058,0.1495502,1.507596,0.1369953,-0.116595,1.727597,0.1216476,-0.4289656,1.715694,-0.02968702,0.0666645,1.74236,0.0378486,-0.4186138,1.693312,-0.08668008,-0.1789941,1.747929,0.3853731,-0.05115121,1.543487,NA,NA,NotTracked,Closed,
0.9282227,-0.3544922,-0.01757813,-0.8183594,0.5229492,-0.01855469,0,-1,-1,-2,-2,-2,-2,-1,-2,-8,-2,-1,1,1,1,2,-6.1875,-6.1875,-6.1875,9.9375,9.9375,9.9375,2.439436,3.095865,9.156719,7.260984,6.535724,6.994115,-0.06928816,-0.506383,1.645453,0.2428793,0.138894,1.534211,0.1460839,0.3392093,1.723485,-0.02086158,-0.491674,1.616765,0.272464,0.1523097,1.517131,0.1370374,-0.1166581,1.727724,0.1216773,-0.4290994,1.715928,-0.02971653,0.06665564,1.742604,0.03790197,-0.4186694,1.693514,-0.0866859,-0.1790335,1.747943,0.3855132,-0.05118169,1.54358,NA,NA,NotTracked,Closed,
0.9282227,-0.3544922,-0.01757813,-0.8183594,0.5229492,-0.01855469,1,-2,-1,-1,-5,0,-2,-2,-2,-8,-2,-1,1,1,1,2,-6.1875,-6.1875,-6.1875,9.9375,9.9375,9.9375,2.439436,3.095865,9.156719,7.260984,6.535724,6.994115,-0.06882985,-0.5064411,1.645014,0.1847287,0.200112,1.570748,0.1464823,0.3390771,1.723638,-0.02054866,-0.4878827,1.616674,0.2001469,0.1957439,1.520967,0.137119,-0.1166409,1.727797,0.1216442,-0.429091,1.71599,-0.02955739,0.06667846,1.742679,0.03787717,-0.4186386,1.693535,-0.08658151,-0.1790084,1.747945,0.3856105,-0.05094539,1.543387,NA,NA,NotTracked,Closed,
0.9296875,-0.3652344,-0.02441406,-0.7578125,0.4477539,0.002441406,-2,-2,-1,-1,-2,-2,-3,-1,-4,-13,-5,-1,-1,-1,4,21,-7.6875,-7.6875,-7.6875,25.0625,25.0625,25.0625,2.433752,3.094355,9.157931,7.296961,6.567605,7.006712,-0.06889314,-0.5064556,1.645466,0.1940608,0.2028306,1.564394,0.1469433,0.3388887,1.723689,-0.02076419,-0.4908375,1.616598,0.1526205,0.209471,1.6305,0.1373678,-0.1166474,1.727982,0.1216622,-0.4290327,1.716027,-0.02923057,0.06663109,1.742777,0.03788527,-0.4185579,1.693539,-0.08656362,-0.1789904,1.747998,0.3858228,-0.05006041,1.542865,NA,NA,NotTracked,Unknown,
0.9213867,-0.3696289,-0.02587891,-0.644043,0.5419922,0.1083984,0,-1,-1,-1,0,0,-2,0,-1,-6,-4,-4,-11,-8,-3,-3,-5.25,-5.25,-5.25,17.9375,17.9375,17.9375,2.423134,3.09362,9.158275,7.292606,6.555363,6.978209,-0.06873281,-0.506927,1.645328,0.1861954,0.2177014,1.56884,0.1472994,0.3388521,1.723647,-0.01900126,-0.5048282,1.616167,0.147642,0.2072772,1.639091,0.137689,-0.1165162,1.728173,0.1217654,-0.4288006,1.716057,-0.02890113,0.06672148,1.742958,0.03797981,-0.4182538,1.693461,-0.08651083,-0.1788414,1.748063,0.3834396,-0.03073412,1.529204,NA,NA,NotTracked,Unknown,
0.9204102,-0.378418,-0.01074219,-0.6860352,0.5849609,0.1088867,-3,-1,0,-2,-1,-1,-3,-2,0,2,-2,-3,4,4,5,3,0.6875,0.6875,0.6875,8,8,8,2.424398,3.097288,9.155423,7.26716,6.523633,6.931501,-0.06835368,-0.5056161,1.645109,0.1877273,0.2167944,1.559892,0.1477054,0.3390028,1.723602,-0.02020632,-0.4932997,1.616747,0.1466178,0.2092008,1.630542,0.1378561,-0.1164628,1.728376,0.1217617,-0.4287255,1.716078,-0.02855732,0.06668942,1.743122,0.03798365,-0.4181096,1.693419,-0.08643223,-0.1788165,1.748091,0.3828215,-0.02789732,1.527378,NA,NA,NotTracked,Unknown,
0.9199219,-0.3730469,-0.01660156,-0.7915039,0.5488281,0.1762695,-1,-1,0,0,-2,0,-2,-1,7,6,2,-1,-2,-3,-4,-5,4.75,4.75,4.75,1.125,1.125,1.125,2.427336,3.099892,9.155078,7.231631,6.498464,6.88756,-0.06792115,-0.5053738,1.644618,0.1911739,0.199238,1.540805,0.1482809,0.3392797,1.723918,-0.01971069,-0.4947617,1.617428,0.1957279,0.2583161,1.62725,0.13815,-0.1164017,1.728708,0.121799,-0.4285749,1.716159,-0.02764947,0.06675914,1.743756,0.03802363,-0.4178874,1.693388,-0.08614443,-0.1786003,1.748647,0.3861688,-0.03485792,1.533286,NA,NA,NotTracked,Unknown,
0.9370117,-0.3583984,-0.02148438,-0.9116211,0.621582,0.2836914,0,-1,-2,-1,2,0,-1,-1,-1,-11,-1,1,0,-1,0,1,11.0625,11.0625,11.0625,-9.8125,-9.8125,-9.8125,2.437562,3.107089,9.161599,7.212836,6.479255,6.880456,-0.06844079,-0.5061783,1.645561,0.1953363,0.1878573,1.537102,0.1485767,0.3398114,1.724918,-0.01964158,-0.4871858,1.618915,0.1870884,0.2474392,1.6252,0.1382062,-0.1163582,1.72883,0.1217818,-0.4284879,1.71626,-0.02767134,0.06694044,1.744493,0.03801864,-0.4177957,1.693451,-0.0860807,-0.1784991,1.748737,0.3872857,-0.03762864,1.535698,NA,NA,NotTracked,Unknown,
0.9399414,-0.355957,-0.015625,-0.9697266,0.6103516,0.09423828,-1,-3,-1,-1,-1,-2,1,-1,1,8,-1,-2,-2,1,2,9,2.9375,2.9375,2.9375,-30.9375,-30.9375,-30.9375,2.440289,3.106534,9.17187,7.216178,6.486986,6.924469,-0.06861952,-0.5058311,1.64516,0.2512113,0.1473352,1.525961,0.1486172,0.3400988,1.725404,-0.01938107,-0.4995301,1.617253,0.2861451,0.1579054,1.507171,0.1382186,-0.1163455,1.72886,0.1217674,-0.4284815,1.716276,-0.02755336,0.06705017,1.744748,0.03798542,-0.4177633,1.693515,-0.08593401,-0.1784068,1.748876,0.3877566,-0.03881655,1.536723,NA,NA,NotTracked,Closed,
0.9169922,-0.359375,-0.009277344,-0.8222656,0.5927734,0.04296875,-2,-1,0,0,1,-2,0,-2,2,-8,0,-2,-2,0,-2,-6,-8.25,-8.25,-8.25,6.9375,6.9375,6.9375,2.42687,3.099913,9.179729,7.271555,6.539285,7.001747,-0.06907804,-0.5063372,1.647651,0.1997732,0.1904219,1.555806,0.1488821,0.3398378,1.725527,-0.01981548,-0.471568,1.619483,0.2304364,0.2009993,1.524305,0.138326,-0.116308,1.728977,0.1217738,-0.4284412,1.716376,-0.02731366,0.0671768,1.745077,0.03801202,-0.417668,1.693691,-0.08584052,-0.178244,1.749218,0.3882226,-0.04003134,1.537697,NA,NA,NotTracked,Unknown,
0.918457,-0.3647461,-0.01757813,-0.7832031,0.5395508,0.005859375,0,-1,-2,-2,0,-2,2,1,0,-8,-8,-3,0,0,1,-1,-10.3125,-10.3125,-10.3125,-0.125,-0.125,-0.125,2.416388,3.096468,9.184735,7.291319,6.559236,7.023327,-0.06915321,-0.5065185,1.647956,0.1990611,0.1945739,1.558198,0.1489334,0.3397001,1.725417,-0.01998277,-0.482772,1.619309,0.1929032,0.2530882,1.622,0.1384467,-0.1162958,1.729043,0.1217944,-0.4284011,1.716418,-0.02716355,0.06716269,1.745065,0.03803872,-0.4176118,1.693727,-0.08579872,-0.1782234,1.7493,0.3882259,-0.04012047,1.537642,NA,NA,NotTracked,Unknown,
0.9199219,-0.3745117,-0.01611328,-0.7592773,0.5703125,0.07128906,-1,-2,-1,-2,-1,-3,-2,0,5,22,3,0,-2,-1,-2,-1,-0.875,-0.875,-0.875,0.6875,0.6875,0.6875,2.394701,3.091844,9.19841,7.286117,6.552424,7.012759,-0.06960174,-0.5071168,1.650896,0.1999416,0.1978407,1.558674,0.1491365,0.3395207,1.725325,-0.01930468,-0.4805861,1.619893,0.1465777,0.2113191,1.624286,0.1385909,-0.1162215,1.729183,0.1218394,-0.4282664,1.716547,-0.02698001,0.06719165,1.745179,0.03809126,-0.4174405,1.69385,-0.08577857,-0.1781329,1.749653,0.3882629,-0.03998314,1.537572,NA,NA,NotTracked,Unknown,
0.9277344,-0.3759766,-0.0234375,-0.7900391,0.5605469,0.1030273,0,-3,-1,-2,0,1,1,0,2,0,0,-2,-3,0,0,-2,5.6875,5.6875,5.6875,-0.5625,-0.5625,-0.5625,2.393568,3.093413,9.205105,7.268977,6.534247,6.99239,-0.06948873,-0.5064732,1.6508,0.1991198,0.1982062,1.557131,0.1493517,0.3393914,1.725312,-0.01990534,-0.4814743,1.620789,0.1461564,0.2071041,1.618837,0.1387678,-0.1162352,1.729335,0.121885,-0.4282264,1.716677,-0.0268504,0.06723546,1.745351,0.03813121,-0.4173862,1.693927,-0.08570784,-0.1780734,1.749842,0.3883142,-0.03992118,1.537438,NA,NA,NotTracked,Unknown,
0.9272461,-0.362793,-0.01464844,-0.862793,0.5498047,0.112793,0,-1,0,-2,-1,-4,-3,-2,2,-21,-5,0,0,0,0,3,2.125,2.125,2.125,-4.625,-4.625,-4.625,2.402871,3.097056,9.203815,7.241946,6.516244,6.971231,-0.0693915,-0.5061715,1.651799,0.1977016,0.1968787,1.554635,0.1495904,0.3392777,1.725419,-0.01952375,-0.4685967,1.6221,0.1436353,0.2108966,1.626273,0.1390883,-0.1161731,1.729567,0.122011,-0.4281145,1.716873,-0.02622773,0.06742918,1.745623,0.03827015,-0.4172345,1.694115,-0.0854728,-0.1777728,1.750283,0.3883678,-0.0399637,1.537468,NA,NA,NotTracked,Unknown,
0.921875,-0.3725586,-0.005859375,-0.8457031,0.5849609,0.1035156,-1,-2,-1,-2,0,0,-2,-3,-3,7,6,0,1,-1,0,-1,-0.4375,-0.4375,-0.4375,-3.1875,-3.1875,-3.1875,2.403575,3.09734,9.203366,7.229503,6.514394,6.962067,-0.06972895,-0.5065938,1.65188,0.1977835,0.1953446,1.553888,0.1496612,0.3392853,1.725528,-0.01985367,-0.4773028,1.62168,0.1470501,0.2117111,1.621579,0.1392007,-0.1161467,1.729677,0.1220799,-0.4280628,1.717047,-0.0260328,0.06752532,1.745879,0.03837443,-0.4171593,1.694336,-0.08539756,-0.1776482,1.750546,0.3886257,-0.04000164,1.537648,NA,NA,NotTracked,Unknown,
0.9306641,-0.3657227,-0.01416016,-0.8032227,0.574707,0.08642578,0,0,-3,0,-2,0,1,-1,-3,-5,-3,-2,-2,-1,-3,-8,-0.5,-0.5,-0.5,-2.5,-2.5,-2.5,2.401087,3.096539,9.205805,7.220165,6.51682,6.953662,-0.06954788,-0.5044922,1.652687,0.1986681,0.1940832,1.551787,0.1499158,0.3393743,1.725791,-0.01953815,-0.4839371,1.622329,0.149986,0.2151004,1.622617,0.1394784,-0.1160463,1.729904,0.1222315,-0.4279564,1.717338,-0.02555693,0.06769168,1.746441,0.03858495,-0.4169838,1.694758,-0.0853308,-0.1773933,1.751022,0.3891551,-0.04077264,1.538345,NA,NA,NotTracked,Unknown,
0.9306641,-0.3652344,-0.01416016,-0.7402344,0.5732422,0.1025391,0,-4,-1,-1,-2,-1,0,-1,-1,22,7,2,-1,0,1,2,-2.125,-2.125,-2.125,3.5,3.5,3.5,2.399127,3.094881,9.20603,7.205553,6.515774,6.933235,-0.06908503,-0.5048218,1.652821,0.1987859,0.1937465,1.553871,0.149999,0.3394204,1.725917,-0.01908935,-0.492229,1.62358,0.1477393,0.2126217,1.624684,0.1396808,-0.1159602,1.730013,0.1223685,-0.4278999,1.717525,-0.02520198,0.06768379,1.74665,0.03872841,-0.4169104,1.694969,-0.08500565,-0.1773909,1.751277,0.3892551,-0.04085085,1.538455,NA,NA,NotTracked,Unknown,
0.9296875,-0.3681641,-0.02294922,-0.6577148,0.565918,0.1083984,-3,-1,-1,-2,-1,0,-1,-1,-1,2,1,0,1,-3,-1,1,-2.125,-2.125,-2.125,3.4375,3.4375,3.4375,2.398797,3.094584,9.20534,7.176329,6.504143,6.892097,-0.06878312,-0.5046037,1.653144,0.1990895,0.1925736,1.550901,0.1504236,0.3395182,1.726369,-0.01938883,-0.4854535,1.622744,0.2002069,0.2534133,1.633667,0.1398745,-0.1159344,1.730169,0.1225603,-0.4278637,1.717765,-0.02481791,0.06781273,1.746752,0.0389277,-0.4168805,1.695228,-0.08479142,-0.177185,1.751779,0.3893933,-0.04175354,1.539105,NA,NA,NotTracked,Unknown,
0.9213867,-0.3691406,-0.02099609,-0.6254883,0.546875,0.1591797,-1,-1,-1,-1,0,-1,-1,-1,6,-2,-3,-2,-2,1,-2,0,2,2,2,8.125,8.125,8.125,2.403992,3.095159,9.200188,7.126018,6.474787,6.821429,-0.06882389,-0.504367,1.651744,0.1987905,0.1920744,1.548387,0.1505657,0.339758,1.726642,-0.01876599,-0.5081876,1.622556,0.1610357,0.2211208,1.625187,0.1400643,-0.1159071,1.730288,0.1227521,-0.4278104,1.717927,-0.02475314,0.06783625,1.74685,0.03911364,-0.4168282,1.695397,-0.08470923,-0.1771659,1.751898,0.3898681,-0.04257736,1.53989,NA,NA,NotTracked,Unknown,
0.9213867,-0.3691406,-0.02099609,-0.6245117,0.5454102,0.2177734,-1,-1,0,-1,-2,0,-1,-1,-4,0,-1,-2,-2,-1,-3,-1,2,2,2,12.0625,12.0625,12.0625,2.403992,3.095159,9.200188,7.05532,6.427581,6.7189,-0.0679117,-0.5036417,1.652103,0.2002823,0.1884466,1.544388,0.1506571,0.3397937,1.726827,-0.01912913,-0.496547,1.622558,0.1631487,0.220263,1.625546,0.1402929,-0.1159047,1.730379,0.1232034,-0.4278358,1.718112,-0.02453728,0.06790128,1.746914,0.03944125,-0.416866,1.695572,-0.08437366,-0.1771127,1.752172,0.3907283,-0.04499783,1.541951,NA,NA,NotTracked,Unknown,
0.9277344,-0.3510742,-0.02636719,-0.5654297,0.5141602,0.234375,-3,-1,0,0,-2,-1,-1,-1,-3,-11,-2,-2,0,-2,0,-1,8.0625,8.0625,8.0625,16.5,16.5,16.5,2.423005,3.097363,9.198321,6.971791,6.359207,6.59242,-0.0679995,-0.5044799,1.652778,0.2468828,0.1421403,1.518351,0.1508849,0.3402526,1.727582,-0.01881209,-0.4724628,1.624964,0.1895043,0.1325296,1.517542,0.1403699,-0.1158949,1.730464,0.1233401,-0.4279008,1.718389,-0.02430072,0.06805392,1.747409,0.03963954,-0.4169048,1.696088,-0.08393521,-0.1770256,1.752582,0.3950024,-0.0551458,1.552225,NA,NA,NotTracked,Unknown,
0.9213867,-0.3500977,-0.02929688,-0.6708984,0.5898438,0.2905273,0,-1,-2,-2,-2,-2,0,-1,-2,-10,-4,-1,-1,-3,-1,0,6.8125,6.8125,6.8125,5.5625,5.5625,5.5625,2.425977,3.096446,9.199098,6.880355,6.263635,6.451297,-0.06769244,-0.5031928,1.653001,0.2449497,0.1325542,1.511624,0.1508171,0.3403856,1.728661,-0.0190827,-0.4970298,1.624177,0.193428,0.1184032,1.511,0.1404128,-0.1158789,1.730519,0.1236783,-0.4279902,1.71867,-0.02437292,0.06800298,1.747785,0.04010897,-0.4170795,1.696595,-0.0837393,-0.1771504,1.752916,0.3974519,-0.06315959,1.561285,NA,NA,NotTracked,Unknown,
0.9433594,-0.3515625,-0.0078125,-0.6000977,0.4975586,0.3251953,-3,1,-3,-2,-2,-1,0,-2,-6,-9,-6,-3,-2,1,0,0,2.125,2.125,2.125,-6.8125,-6.8125,-6.8125,2.42797,3.093415,9.200391,6.772308,6.134743,6.303556,-0.06760633,-0.504325,1.653617,0.2458551,0.1168074,1.50317,0.1508184,0.3399429,1.729229,-0.01896076,-0.4873786,1.623815,0.198154,0.1125417,1.472068,0.1403978,-0.115915,1.730645,0.1240135,-0.4282691,1.719163,-0.02461287,0.06804752,1.74815,0.0405693,-0.4175125,1.697448,-0.08337398,-0.1772409,1.753492,0.4024211,-0.0775892,1.574162,NA,NA,NotTracked,Unknown,
0.9267578,-0.3520508,-0.03466797,-0.5068359,0.6240234,0.3706055,0,-1,-3,-1,-3,-2,1,0,0,0,-4,-1,-1,-3,0,0,5.6875,5.6875,5.6875,15,15,15,2.426555,3.089186,9.207779,6.651805,5.872173,6.08679,-0.06697634,-0.5042063,1.654235,0.2420742,0.100354,1.491275,0.1507482,0.3394044,1.730005,-0.01838025,-0.4920281,1.623846,0.2212152,0.0732594,1.548833,0.1403002,-0.1159892,1.730896,0.1242478,-0.4284774,1.71949,-0.02472958,0.06799313,1.748426,0.04088284,-0.4177797,1.697903,-0.0827426,-0.1774487,1.75401,0.4047228,-0.08584718,1.58222,NA,NA,NotTracked,Unknown,
0.9306641,-0.3662109,-0.001953125,-0.4125977,0.6777344,0.4301758,-1,0,0,-2,-3,-1,-1,-2,10,-4,-1,0,0,1,-1,-3,1.6875,1.6875,1.6875,-11.3125,-11.3125,-11.3125,2.4235,3.083816,9.213718,6.585752,5.646032,5.952556,-0.06654672,-0.5043277,1.655951,0.2421125,0.04857236,1.463981,0.1514522,0.3384651,1.730767,-0.01793473,-0.4956236,1.623136,0.1928641,0.07278143,1.54025,0.1396582,-0.11639,1.733588,0.1246529,-0.4282922,1.719803,-0.02521088,0.06777675,1.749212,0.04139762,-0.4177846,1.698128,-0.08216599,-0.1779054,1.754829,0.4144561,-0.1161243,1.612443,NA,NA,NotTracked,Closed,
0.9477539,-0.3696289,-0.03320313,-0.3623047,0.6376953,0.4609375,-1,-1,0,-2,-2,-1,-2,0,4,7,2,1,-1,1,0,0,-0.375,-0.375,-0.375,-1.875,-1.875,-1.875,2.412951,3.07488,9.226367,6.539814,5.381032,5.838271,-0.0664597,-0.5051973,1.656932,0.251591,0.009532557,1.447345,0.1522369,0.3378728,1.731005,-0.01885638,-0.5009198,1.624928,0.2018539,0.01778655,1.505333,0.1398575,-0.1159606,1.734503,0.1251346,-0.4271981,1.720142,-0.02520722,0.06774406,1.749265,0.04209869,-0.4169236,1.697988,-0.08159488,-0.1780408,1.755168,0.4157065,-0.1209387,1.619755,NA,NA,NotTracked,Closed,
0.9316406,-0.3769531,-0.02197266,-0.15625,0.7172852,0.4375,1,-2,-2,-1,-2,-1,3,0,-4,9,8,-1,-1,-1,-1,-3,2.8125,2.8125,2.8125,17.8125,17.8125,17.8125,2.410279,3.071871,9.231406,6.540396,5.08719,5.729007,-0.06601767,-0.5054231,1.658745,0.2670867,-0.03868992,1.434801,0.152557,0.3376411,1.731092,-0.01654267,-0.5075593,1.622625,0.2091294,-0.02313449,1.4565,0.1400944,-0.1154472,1.73513,0.1260083,-0.4253296,1.720672,-0.02518215,0.06769695,1.749392,0.04325059,-0.4154522,1.697983,-0.08137394,-0.1781163,1.755453,0.4173914,-0.1273488,1.62796,NA,NA,NotTracked,Closed,
0.9277344,-0.3637695,-0.02392578,0.03613281,0.855957,0.4956055,-1,-1,-2,0,-2,-1,0,0,2,-14,-35,2,1,-1,-3,-2,3.5625,3.5625,3.5625,27.5,27.5,27.5,2.409602,3.070067,9.234037,6.570704,4.767334,5.643536,-0.06636286,-0.5060636,1.660575,0.2868484,-0.1409976,1.414615,0.1532027,0.3373188,1.731116,-0.01650621,-0.516034,1.6228,0.246664,-0.1345097,1.438769,0.1400781,-0.114896,1.736095,0.1269181,-0.4235629,1.721424,-0.02522749,0.06771763,1.749474,0.04453279,-0.4136304,1.697726,-0.08120938,-0.1780971,1.75599,0.4425107,-0.1362182,1.634739,NA,NA,NotTracked,Closed,
0.9135742,-0.3793945,-0.01464844,0.2836914,0.8203125,0.5595703,-1,-1,-1,-2,0,-2,1,-1,2,15,-3,-8,-4,-2,2,0,-5.6875,-5.6875,-5.6875,53.1875,53.1875,53.1875,2.397488,3.06585,9.242158,6.646851,4.43862,5.559366,-0.06603554,-0.5066441,1.660972,0.3001362,-0.1968946,1.416116,0.1534899,0.3372093,1.731108,-0.0171876,-0.5048786,1.623252,0.2668797,-0.2098927,1.436,0.140231,-0.1147888,1.736314,0.1273554,-0.4231053,1.7216,-0.02522596,0.06771209,1.749477,0.04508225,-0.4131979,1.697483,-0.0809792,-0.1781469,1.75607,0.440332,-0.1430671,1.651956,NA,NA,NotTracked,Closed,
0.9399414,-0.3745117,-0.01123047,0.6855469,0.8100586,0.4736328,-2,-1,-2,2,1,0,0,-1,1,-2,-11,-3,-3,-1,-2,0,-8.25,-8.25,-8.25,35.25,35.25,35.25,2.380966,3.063059,9.245579,6.726231,4.148326,5.461837,-0.0661218,-0.507943,1.659466,0.3177035,-0.2544266,1.427962,0.1540417,0.336841,1.730988,-0.01940001,-0.4778834,1.62725,0.3033158,-0.299683,1.442556,0.1403122,-0.1147136,1.736407,0.1278266,-0.4227024,1.721651,-0.02524219,0.06770983,1.749462,0.04575452,-0.4127188,1.696975,-0.08090039,-0.1781624,1.756136,0.431107,-0.1505189,1.668527,NA,NA,NotTracked,Closed,
0.9467773,-0.3740234,-0.01171875,0.7265625,0.8701172,0.4208984,0,0,-2,-3,-2,-1,-2,-1,-5,-12,-21,-4,-2,-2,5,2,-1.75,-1.75,-1.75,5.3125,5.3125,5.3125,2.378874,3.06556,9.244062,6.85057,3.777583,5.313078,-0.06658131,-0.5085744,1.660491,0.3330892,-0.3055512,1.444827,0.1548703,0.3364244,1.730585,-0.01915436,-0.4816098,1.627443,0.3455172,-0.3566445,1.44075,0.1403579,-0.1146668,1.73645,0.1284705,-0.4223101,1.721689,-0.02522958,0.06767131,1.749396,0.04652819,-0.4123135,1.696449,-0.08076006,-0.1782176,1.756189,0.4244359,-0.1560479,1.676712,NA,NA,NotTracked,Closed,
