ALX,ALY,ALZ,ARX,ARY,ARZ,EMG0L,EMG1L,EMG2L,EMG3L,EMG4L,EMG5L,EMG6L,EMG7L,EMG0R,EMG1R,EMG2R,EMG3R,EMG4R,EMG5R,EMG6R,EMG7R,GLX,GLY,GLZ,GRX,GRY,GRZ,ORL,OPL,OYL,ORR,OPR,OYR,LHNX,LHNY,LHNZ,RHNX,RHNY,RHNZ,HX,HY,HZ,LTX,LTY,LTZ,RTX,RTY,RTZ,SpineMidX,SpineMidY,SpineMidZ,SpineBaseX,SpineBaseY,SpineBaseZ,ShoulderLeftX,ShoulderLeftY,ShoulderLeftZ,ShoulderRightX,ShoulderRightY,ShoulderRightZ,ElbowLeftX,ElbowLeftY,ElbowLeftZ,ElbowRightX,ElbowRightY,ElbowRightZ,Myo_Pose_left,Myo_Pose_Right,Kinect_pose_left,Kinect_pose_right
0.9326172,-0.340332,-0.0004882813,0.9345703,0.2797852,0.05615234,0,-1,-1,1,1,2,-1,-4,0,-2,-1,-1,-1,-1,1,-1,-1,-1,-1,-0.75,-0.75,-0.75,2.501184,3.053026,8.160663,7.20033,2.980267,2.662617,-0.0513223,-0.4999238,1.63006,0.3536127,-0.5061123,1.618253,0.1712091,0.3372469,1.713115,-0.09598041,-0.526556,1.640667,0.3954921,-0.5059522,1.6135,0.1583019,-0.1162168,1.718421,0.1550217,-0.4284536,1.700588,-0.01815948,0.06736832,1.717534,0.07237788,-0.4196172,1.670628,-0.078315,-0.1783508,1.729343,0.3806749,-0.1772108,1.703477,NA,NA,NotTracked,NotTracked,
0.9345703,-0.3417969,0.002441406,0.9365234,0.2841797,0.06396484,-2,-1,-2,-1,-3,-2,-2,1,0,-2,0,0,-1,-1,-1,0,-0.0625,-0.0625,-0.0625,0.25,0.25,0.25,2.497694,3.04957,8.163141,7.199262,2.980199,2.663547,-0.05102733,-0.4996692,1.629407,0.3539864,-0.5065343,1.616943,0.1711969,0.3372102,1.713095,-0.0969242,-0.5195851,1.644084,0.3962478,-0.4899104,1.617362,0.158269,-0.1162868,1.718469,0.1550433,-0.4284842,1.700613,-0.01819558,0.06726228,1.717428,0.07239079,-0.4196331,1.670628,-0.07825746,-0.1784804,1.729226,0.3807603,-0.1776358,1.703718,NA,NA,NotTracked,NotTracked,
0.940918,-0.3398438,0.001953125,0.9321289,0.284668,0.04980469,-2,-2,-2,-5,-1,-2,-1,-1,-3,-1,1,-5,-4,0,-5,-2,-0.125,-0.125,-0.125,0.375,0.375,0.375,2.497516,3.048317,8.163575,7.199198,2.980622,2.664024,-0.05047994,-0.4989443,1.629339,0.3536449,-0.5064874,1.617297,0.171162,0.3371642,1.713025,-0.09590367,-0.4977935,1.648107,0.3942058,-0.5080431,1.610059,0.1583156,-0.116316,1.718508,0.1551796,-0.4285162,1.700717,-0.01812569,0.06719937,1.717252,0.07252149,-0.4196726,1.67074,-0.07822207,-0.1785186,1.72918,0.3807561,-0.1777192,1.704137,NA,NA,NotTracked,NotTracked,
0.9360352,-0.3457031,0.005371094,0.9868164,0.3759766,0.05224609,0,0,-1,-2,-2,0,0,0,6,14,-3,-3,0,0,7,1,0.5,0.5,0.5,-21,-21,-21,2.499084,3.047957,8.162283,7.161277,3.000309,2.689839,-0.05073349,-0.4994559,1.631693,0.3536622,-0.5063976,1.618425,0.1711701,0.3371471,1.712997,-0.09596262,-0.5135213,1.641984,0.3960802,-0.5250158,1.603857,0.1583005,-0.1163313,1.718615,0.1552239,-0.428517,1.700759,-0.01815021,0.06718978,1.717292,0.0725537,-0.4196872,1.670786,-0.07813809,-0.1785616,1.729164,0.3809394,-0.1778645,1.704682,NA,NA,NotTracked,NotTracked,
0.9477539,-0.4194336,-0.02783203,1.075195,0.3154297,0.05175781,-1,1,0,0,-1,-1,-1,-2,-9,-2,-15,-15,-3,-2,-17,-10,0.5625,0.5625,0.5625,-58.3125,-58.3125,-58.3125,2.510335,3.055198,8.151149,7.064188,3.03783,2.734155,-0.05065813,-0.5004732,1.631154,0.3537462,-0.5059757,1.617449,0.1711701,0.3370353,1.71304,-0.09781357,-0.5274964,1.6541,0.3949851,-0.5114873,1.608083,0.1583142,-0.1163698,1.718669,0.1552491,-0.42854,1.700827,-0.01814948,0.06715579,1.717299,0.07257533,-0.419704,1.670829,-0.07814667,-0.1785934,1.729167,0.3810315,-0.178325,1.70516,NA,NA,NotTracked,NotTracked,
0.9643555,-0.4375,0.04931641,1.151367,0.3823242,0.2441406,-3,-3,-2,-7,-2,-3,0,-1,1,0,-20,0,-4,-5,-10,-3,-20.9375,-20.9375,-20.9375,-21.75,-21.75,-21.75,2.535523,3.071506,8.107175,6.903983,3.110648,2.86139,-0.05031212,-0.4990984,1.629445,0.3531031,-0.5043096,1.613506,0.1711041,0.3370337,1.713094,-0.097477,-0.5118265,1.653007,0.394164,-0.4962619,1.609105,0.1583139,-0.116391,1.718725,0.1552752,-0.4285334,1.700857,-0.01816756,0.06711371,1.717307,0.07259375,-0.4197123,1.670847,-0.07817433,-0.1786395,1.72912,0.3811759,-0.1784555,1.705659,NA,NA,NotTracked,NotTracked,
0.9643555,-0.4375,0.04931641,1.151367,0.3823242,0.2441406,-3,-3,-2,-7,-2,-3,0,-1,5,-6,3,-1,-1,1,-4,8,-20.9375,-20.9375,-20.9375,-21.75,-21.75,-21.75,2.535523,3.071506,8.107175,6.903983,3.110648,2.86139,-0.04952195,-0.4984777,1.627097,0.3503356,-0.5007328,1.606688,0.1710822,0.3370199,1.713114,-0.09653995,-0.5113598,1.651787,0.3915814,-0.4971539,1.599667,0.1582526,-0.1164126,1.718843,0.1552869,-0.4285141,1.700909,-0.01819128,0.06708299,1.717349,0.07259669,-0.4197012,1.670851,-0.07820771,-0.1786763,1.72909,0.3816638,-0.1783946,1.707011,NA,NA,NotTracked,NotTracked,
0.9399414,-0.515625,0.06201172,1.111816,0.6689453,0.3935547,0,1,7,37,7,2,-2,0,-1,-4,-12,-1,14,13,-20,-17,-23.875,-23.875,-23.875,28.5,28.5,28.5,2.554287,3.086937,8.073603,6.758505,3.245598,3.043073,-0.0469738,-0.4969373,1.620859,0.3460611,-0.486778,1.596389,0.1710489,0.3369535,1.713145,-0.09386767,-0.5365564,1.644167,0.386396,-0.4921681,1.585,0.1582223,-0.1164508,1.71891,0.1552396,-0.4285278,1.700923,-0.01815509,0.0670637,1.717389,0.07251692,-0.419714,1.670879,-0.07866624,-0.1785998,1.728919,0.3826876,-0.1783489,1.709379,NA,NA,NotTracked,NotTracked,
0.9638672,-0.5273438,0.05126953,0.9555664,0.7509766,0.5092773,0,1,4,22,5,0,-1,-1,-3,-5,-4,-3,6,3,-12,2,-17,-17,-17,39.5,39.5,39.5,2.665811,3.168999,7.923282,6.657085,3.43166,3.207429,-0.04219759,-0.4931807,1.610878,0.3359832,-0.4697076,1.579685,0.1709532,0.3368322,1.713287,-0.09097182,-0.5278455,1.641902,0.3756716,-0.4788314,1.564955,0.1581916,-0.1164637,1.718924,0.1551647,-0.4284956,1.700896,-0.01818106,0.0670677,1.717422,0.07238046,-0.4196644,1.670831,-0.07949484,-0.17849,1.728185,0.3842553,-0.1778338,1.711429,NA,NA,NotTracked,NotTracked,
0.9106445,-0.6152344,0.1679688,0.8208008,0.796875,0.6245117,-2,-2,-3,-24,-2,0,-2,1,0,-2,8,3,-6,-5,-6,-1,-59.75,-59.75,-59.75,29.375,29.375,29.375,2.745741,3.24965,7.779502,6.558405,3.663497,3.372159,-0.03498264,-0.4707821,1.602257,0.3234009,-0.4389432,1.565369,0.1709168,0.3367526,1.713395,-0.07706946,-0.5009218,1.621222,0.3598611,-0.4406765,1.5392,0.1581067,-0.1164797,1.718976,0.1549192,-0.4283669,1.700874,-0.01819777,0.06706952,1.717451,0.0720001,-0.4195186,1.670835,-0.08144303,-0.1781723,1.726719,0.3870433,-0.1767066,1.71452,NA,NA,NotTracked,NotTracked,
0.9086914,-0.628418,0.2294922,0.5761719,0.7456055,0.644043,-1,-1,-3,-6,-3,-3,-2,-2,0,2,2,6,1,-1,5,0,-84.375,-84.375,-84.375,36.625,36.625,36.625,2.784656,3.300009,7.684809,6.487811,3.931714,3.534461,-0.02364248,-0.4589553,1.586414,0.3066273,-0.4045056,1.543587,0.1709509,0.3366249,1.713598,-0.05897757,-0.4702553,1.581842,0.3268359,-0.4128541,1.490426,0.1580107,-0.1164772,1.719062,0.1547051,-0.4282316,1.7008,-0.01828014,0.0670589,1.717499,0.0715894,-0.4193121,1.670723,-0.08361769,-0.1779982,1.723374,0.3910443,-0.175327,1.717053,NA,NA,NotTracked,NotTracked,
0.8120117,-0.6767578,0.315918,0.3725586,0.7041016,0.7128906,-1,1,0,17,4,1,-2,-1,1,-8,-7,-1,18,6,4,-2,-163.3125,-163.3125,-163.3125,50.625,50.625,50.625,2.865312,3.467552,7.331054,6.445175,4.226922,3.697475,0.01506112,-0.4194266,1.558871,0.2466882,-0.3233292,1.532174,0.1711342,0.3365986,1.714278,-0.02065854,-0.3920941,1.542115,0.250549,-0.3050264,1.462943,0.1581524,-0.1163846,1.719229,0.1549864,-0.4276512,1.700676,-0.01815017,0.06723696,1.717492,0.07161439,-0.4188819,1.670598,-0.09387287,-0.1635762,1.707908,0.400343,-0.163134,1.715435,NA,NA,NotTracked,NotTracked,
0.765625,-0.7680664,0.3789063,0.1748047,0.7392578,0.7490234,-2,-1,-2,-9,-3,-1,0,0,0,1,-9,10,2,-1,7,2,-170.9375,-170.9375,-170.9375,63.4375,63.4375,63.4375,2.875838,3.603819,7.078148,6.444629,4.528829,3.871611,0.0441751,-0.4064096,1.542193,0.2218561,-0.2729401,1.512344,0.1712411,0.3365333,1.714489,0.01701533,-0.4471593,1.554,0.2236054,-0.2592026,1.441,0.1584733,-0.1162903,1.719693,0.1555429,-0.4273092,1.701037,-0.017856,0.06731274,1.717421,0.07220783,-0.418794,1.670875,-0.09558094,-0.1557926,1.698906,0.403149,-0.1531422,1.707824,NA,NA,NotTracked,NotTracked,
0.7739258,-0.7436523,0.3740234,0.0625,0.6767578,0.746582,-2,-1,-4,2,-4,-4,-2,-4,-1,-1,4,-8,8,1,-3,-2,-162.9375,-162.9375,-162.9375,62.4375,62.4375,62.4375,2.880679,3.676595,6.953354,6.470099,4.822895,4.063776,0.06297658,-0.3737786,1.566357,0.1891614,-0.2258131,1.491034,0.1715973,0.3363189,1.714966,0.001891486,-0.4378007,1.602741,0.1990223,-0.2146701,1.420425,0.1589808,-0.1162325,1.720699,0.156072,-0.4269438,1.701781,-0.01697592,0.06745934,1.716885,0.07292383,-0.4187675,1.671554,-0.0927613,-0.1495661,1.687542,0.4047553,-0.1429795,1.695251,NA,NA,NotTracked,NotTracked,
0.6279297,-0.7788086,0.3735352,-0.02929688,0.699707,0.7431641,1,1,4,15,1,1,3,3,-3,-4,-8,3,-2,6,0,-1,-178.9375,-178.9375,-178.9375,82.625,82.625,82.625,2.844274,3.891176,6.594367,6.549078,5.094729,4.268604,0.07552458,-0.3109746,1.5715,0.1601803,-0.1802266,1.482037,0.1719724,0.3360949,1.715833,0.01002254,-0.3649238,1.610338,0.1653825,-0.1606322,1.419091,0.1592101,-0.1158053,1.722397,0.1555266,-0.4261681,1.703708,-0.01608251,0.06801823,1.71623,0.07278593,-0.4181841,1.673226,-0.08959887,-0.1453682,1.677217,0.4044812,-0.1350874,1.675767,NA,NA,NotTracked,NotTracked,
0.6347656,-0.7509766,0.3720703,-0.1352539,0.684082,0.6635742,1,2,1,2,3,4,-3,-1,-10,7,2,-5,-1,-2,-4,0,-134.6875,-134.6875,-134.6875,62.0625,62.0625,62.0625,2.809062,4.024763,6.387703,6.649077,5.323566,4.482167,0.06580514,-0.3076584,1.573738,0.1354688,-0.1307149,1.485556,0.1726622,0.3362765,1.7172,0.008192411,-0.3718737,1.609151,0.1301173,-0.1089149,1.428729,0.1597271,-0.1150949,1.723925,0.155585,-0.4250395,1.705032,-0.01376767,0.06872667,1.714414,0.07331528,-0.4165617,1.67475,-0.08400087,-0.1388915,1.657955,0.4031491,-0.1577077,1.594725,NA,NA,NotTracked,NotTracked,
0.5917969,-0.6230469,0.3017578,-0.08984375,0.6064453,0.6616211,1,0,1,-53,3,-1,-1,2,6,12,-2,-1,-11,7,-4,7,-113.375,-113.375,-113.375,59.875,59.875,59.875,2.760114,4.184055,6.119849,6.763876,5.496442,4.697081,0.1207064,-0.3051003,1.566715,0.09688468,-0.05882345,1.517987,0.1739879,0.3363264,1.720049,0.06186119,-0.3616227,1.587947,0.07111015,-0.06872592,1.462934,0.1601601,-0.1141483,1.726385,0.1556121,-0.4226164,1.707358,-0.01209208,0.06931707,1.714277,0.0745148,-0.4128596,1.676801,-0.05278044,-0.1398606,1.608862,0.3821759,-0.1292835,1.588811,NA,NA,NotTracked,NotTracked,
0.6337891,-0.6289063,0.2856445,-0.1850586,0.6738281,0.4130859,-3,0,-7,6,-2,-2,-3,-4,-9,-4,-3,5,28,27,14,-7,-95.9375,-95.9375,-95.9375,43,43,43,2.745192,4.225435,6.043046,6.886088,5.616437,4.899545,0.1302508,-0.2890238,1.568551,0.06455253,-0.01035024,1.533168,0.1746466,0.3361773,1.721609,0.07316612,-0.3488301,1.587355,0.04612176,-0.0314362,1.47975,0.1604256,-0.1135352,1.727486,0.1556669,-0.4214447,1.708027,-0.0116624,0.0696364,1.713434,0.07483786,-0.4115882,1.677008,-0.05248091,-0.1387546,1.606565,0.3647864,-0.1203279,1.574043,NA,NA,NotTracked,NotTracked,
0.6108398,-0.6142578,0.2011719,-0.07519531,0.7421875,0.4365234,-2,0,-1,25,-2,9,-1,-3,0,-8,2,6,15,-17,-12,16,-45.8125,-45.8125,-45.8125,33.0625,33.0625,33.0625,2.734831,4.300825,5.842373,7.032133,5.693939,5.12644,0.1927968,-0.2881055,1.563337,0.06626916,-0.0006548102,1.549852,0.1755889,0.3361036,1.722936,0.1268928,-0.3384304,1.572616,0.02897397,-0.01258006,1.498609,0.1606138,-0.1130513,1.727948,0.1556243,-0.4205282,1.70827,-0.01014607,0.07026017,1.710645,0.07493309,-0.4104895,1.676788,-0.04616606,-0.1324584,1.594967,0.3449407,-0.1045293,1.558739,NA,NA,NotTracked,NotTracked,
0.6455078,-0.6113281,0.1333008,-0.06933594,0.8115234,0.3525391,-3,-2,-5,-10,-8,6,7,6,0,4,3,-1,83,4,-26,-38,-52.125,-52.125,-52.125,23.4375,23.4375,23.4375,2.73322,4.3028,5.73704,7.064432,5.699085,5.181633,0.150935,-0.2697994,1.570964,0.06940328,0.004068103,1.558093,0.1766985,0.3363057,1.72436,0.09300315,-0.3126103,1.582796,0.01010362,0.004417256,1.515731,0.160852,-0.1122262,1.728813,0.1555163,-0.419276,1.708726,-0.008612331,0.07081112,1.707999,0.07491066,-0.4091886,1.676876,-0.04130073,-0.1300096,1.590084,0.3329847,-0.09829524,1.548748,NA,NA,NotTracked,NotTracked,
0.7094727,-0.5883789,0.1289063,0.02587891,0.7548828,0.2724609,-2,0,4,41,9,2,1,0,1,-3,-4,4,1,2,-10,-1,-53.9375,-53.9375,-53.9375,-6.1875,-6.1875,-6.1875,2.723919,4.293165,5.692129,7.09338,5.694263,5.268956,0.1613115,-0.2738948,1.575303,0.1123799,-0.01069147,1.549739,0.1786551,0.3363875,1.725985,0.09783041,-0.31688,1.579897,0.1498275,-0.04525333,1.48725,0.1615844,-0.1113327,1.7295,0.1558221,-0.417337,1.70903,-0.006130148,0.07106584,1.703398,0.07525103,-0.4071555,1.676555,-0.03179573,-0.1306006,1.584091,0.3113789,-0.08482675,1.53571,NA,NA,NotTracked,NotTracked,
0.5981445,-0.8393555,0.04785156,0.02392578,0.8950195,0.171875,-1,-2,-1,17,-4,0,-2,2,-4,-3,11,-7,67,59,-3,-17,-18.0625,-18.0625,-18.0625,1.375,1.375,1.375,2.709362,4.278947,5.600631,7.1205,5.681221,5.331633,0.1622504,-0.275335,1.577102,0.1138353,-0.009727507,1.54964,0.1792054,0.3365578,1.726147,0.09738293,-0.3168339,1.579457,0.1728094,-0.01190869,1.483956,0.1618143,-0.1110931,1.729592,0.1559218,-0.4167493,1.709051,-0.004184513,0.07153329,1.695167,0.07532988,-0.4065393,1.676424,-0.02968255,-0.1301572,1.583257,0.3056816,-0.08040737,1.534593,NA,NA,NotTracked,NotTracked,
0.456543,-0.8945313,-0.046875,-0.1694336,0.8881836,0.0546875,0,-2,-3,26,1,-1,1,0,4,3,-5,-8,-29,-10,-3,-6,18.6875,18.6875,18.6875,-1.4375,-1.4375,-1.4375,2.713792,4.277445,5.592992,7.13615,5.686844,5.357029,0.1617846,-0.2772203,1.579088,0.1158594,-0.008656655,1.550614,0.1797134,0.3365835,1.726336,0.09704173,-0.3166541,1.579808,0.1621597,-0.003086113,1.489172,0.1620498,-0.1108645,1.729783,0.1560215,-0.4162688,1.709205,-0.003664622,0.07181901,1.692554,0.07541301,-0.4061302,1.676328,-0.02899409,-0.1298335,1.582993,0.3004046,-0.07570392,1.53355,NA,NA,NotTracked,NotTracked,
0.4125977,-0.9267578,0.01660156,-0.02929688,0.90625,0.1835938,-3,-3,-2,13,-3,-4,0,-1,1,0,-3,2,-51,-12,-1,2,22.75,22.75,22.75,6.5625,6.5625,6.5625,2.717265,4.282418,5.605776,7.142808,5.682842,5.34706,0.1621908,-0.2759401,1.577735,0.05164634,0.02870233,1.59278,0.1802537,0.3365666,1.72651,0.09709635,-0.3161236,1.579685,0.06618372,0.08443306,1.627071,0.1622666,-0.1107678,1.729787,0.1560879,-0.4159279,1.709073,-0.003382681,0.07185666,1.691184,0.07543216,-0.4057857,1.676151,-0.0287088,-0.1287568,1.582718,0.2982541,-0.07351048,1.532621,NA,NA,NotTracked,NotTracked,
0.4638672,-0.8461914,0.2138672,-0.2348633,0.8881836,0.2392578,-1,-2,-3,-3,-2,-4,-9,-9,-3,-1,-6,-10,2,-17,-7,8,26.625,26.625,26.625,-34.125,-34.125,-34.125,2.758526,4.280239,5.649759,7.092773,5.676936,5.29556,0.1628319,-0.2730049,1.575928,0.1149193,-0.00177682,1.548663,0.1805048,0.3366026,1.726511,0.0976816,-0.3164165,1.579057,0.1603708,0.028539,1.593611,0.1623167,-0.1106123,1.729586,0.1561851,-0.4156157,1.709004,-0.003012726,0.07184776,1.690315,0.07550354,-0.4055336,1.676129,-0.02861497,-0.1286014,1.582881,0.297969,-0.07268941,1.53264,NA,NA,NotTracked,NotTracked,
0.4638672,-0.8461914,0.2138672,-0.4882813,0.9003906,0.2817383,-1,-2,-3,-24,-10,-6,-8,-1,-10,-7,-10,-52,-83,-27,-7,-7,26.625,26.625,26.625,-25.125,-25.125,-25.125,2.758526,4.280239,5.649759,7.063053,5.685318,5.259783,0.1599479,-0.2730873,1.574475,0.1147502,0.003173305,1.555242,0.1808529,0.3365048,1.726568,0.09758984,-0.316779,1.578312,0.1489505,0.03687888,1.595667,0.1627762,-0.1102861,1.729639,0.1564875,-0.4150305,1.708846,-0.00266764,0.07188894,1.689653,0.07575785,-0.4049122,1.675835,-0.03035559,-0.1274939,1.583998,0.3036952,-0.0765137,1.53491,NA,NA,NotTracked,NotTracked,
0.3730469,-0.9438477,0.2070313,-0.5727539,0.8720703,0.3076172,1,-1,-4,-9,-5,0,-1,-1,0,8,8,16,70,6,3,-1,3.8125,3.8125,3.8125,-15.625,-15.625,-15.625,2.763325,4.292682,5.684575,7.007178,5.695015,5.166593,0.1593707,-0.272899,1.575425,0.1152378,0.004769258,1.560307,0.1809143,0.336559,1.726586,0.09790479,-0.3163303,1.578334,0.1240525,0.05412257,1.59175,0.162857,-0.1101902,1.729676,0.1564961,-0.4149714,1.708802,-0.002636601,0.07191946,1.689641,0.07575294,-0.4048321,1.675738,-0.03150969,-0.1271246,1.585564,0.312347,-0.08060044,1.537799,NA,NA,NotTracked,NotTracked,
0.371582,-0.9003906,0.1367188,-0.8520508,0.8457031,0.3984375,-1,-1,-4,-21,-5,-3,-4,3,-2,-4,12,7,7,7,-3,-22,7.25,7.25,7.25,8.875,8.875,8.875,2.757756,4.308325,5.718776,6.950709,5.723995,5.027349,0.1573873,-0.2696288,1.574232,0.09573455,0.0144375,1.570849,0.1809165,0.3366629,1.726584,0.09567139,-0.3152068,1.577752,0.09248725,0.07562696,1.599,0.1628993,-0.1101176,1.729659,0.1565253,-0.4148948,1.70874,-0.002612826,0.07193187,1.689632,0.07576774,-0.4047552,1.675664,-0.03253267,-0.1269417,1.586658,0.3187734,-0.08300946,1.539132,NA,NA,NotTracked,NotTracked,
0.3852539,-0.934082,0.152832,-0.9453125,0.8198242,0.4335938,-2,1,0,-7,7,3,3,1,-10,-27,-12,-3,-14,1,1,-1,10.4375,10.4375,10.4375,6.5625,6.5625,6.5625,2.765372,4.31068,5.727788,6.934871,5.737373,4.993079,0.1567594,-0.2701784,1.574178,0.1179565,0.005412043,1.563934,0.1808089,0.3366352,1.726584,0.09477685,-0.3144751,1.577984,0.1704223,0.04156066,1.604473,0.1629059,-0.1100878,1.729647,0.1565133,-0.4149148,1.708609,-0.002565798,0.07191025,1.689635,0.07571492,-0.4047702,1.675453,-0.0335957,-0.1265322,1.588278,0.3272926,-0.08539929,1.541313,NA,NA,NotTracked,NotTracked,
0.3725586,-0.9448242,0.184082,-0.8212891,0.7890625,0.4072266,0,1,1,-12,8,3,0,0,7,7,4,3,6,5,5,12,8.625,8.625,8.625,6.75,6.75,6.75,2.770825,4.31175,5.728036,6.912667,5.78036,4.946651,0.1555331,-0.2692763,1.57392,0.1233822,0.007407059,1.561165,0.180725,0.3366331,1.726542,0.09438166,-0.3155481,1.578139,0.1632765,0.04928229,1.602062,0.1629523,-0.1100675,1.729625,0.156557,-0.4148612,1.708443,-0.00244857,0.07193921,1.689753,0.07573681,-0.4047149,1.675223,-0.03416371,-0.1259546,1.588939,0.3319994,-0.08690019,1.541625,NA,NA,NotTracked,NotTracked,
0.3442383,-0.9526367,0.1831055,-0.824707,0.8549805,0.3701172,2,1,-4,-20,-12,-4,-1,-2,-10,3,-1,1,10,-7,-4,-4,0.6875,0.6875,0.6875,1,1,1,2.784953,4.315458,5.714149,6.92125,5.826314,4.962699,0.1532505,-0.2693598,1.573314,0.1230515,0.01521781,1.553456,0.1807056,0.3366461,1.726524,0.09155186,-0.3134236,1.577181,0.1409604,0.007654573,1.6088,0.162978,-0.1100572,1.729607,0.1565486,-0.4148515,1.70824,-0.002304457,0.07203909,1.689881,0.07566105,-0.404685,1.67456,-0.03483199,-0.1253468,1.589557,0.3393182,-0.08846182,1.540668,NA,NA,NotTracked,NotTracked,
0.3745117,-0.9331055,0.1914063,-0.8442383,0.8828125,0.4101563,0,-2,-3,-35,-6,-1,-1,0,4,17,4,-2,10,5,-6,-47,-13.6875,-13.6875,-13.6875,3.125,3.125,3.125,2.784491,4.315383,5.693015,6.926931,5.855496,4.975765,0.1724172,-0.2694955,1.575365,0.1557553,0.007186534,1.540437,0.1807003,0.3366919,1.72658,0.1164045,-0.3365894,1.569649,0.1380673,-0.01702862,1.604133,0.1630436,-0.1100394,1.729659,0.1565726,-0.4148543,1.708229,-0.002281334,0.07209006,1.689814,0.07571533,-0.4046654,1.674318,-0.03484266,-0.1253592,1.589564,0.3404436,-0.08733483,1.540438,NA,NA,NotTracked,NotTracked,
0.3955078,-0.9130859,0.1894531,-0.6928711,0.8569336,0.4169922,0,0,-2,17,2,1,3,-1,0,-3,-6,-7,-35,-6,2,16,-19.25,-19.25,-19.25,30.125,30.125,30.125,2.779328,4.314747,5.681976,7.009171,5.939018,5.059844,0.157766,-0.2576089,1.574003,0.1562536,0.01287137,1.536654,0.1807621,0.3366671,1.726617,0.1058648,-0.314279,1.573421,0.1223217,0.003488877,1.608273,0.1632228,-0.1100787,1.729685,0.1566735,-0.4149677,1.708166,-0.002297825,0.07216519,1.689769,0.07581913,-0.4048121,1.673993,-0.03477415,-0.1251321,1.589365,0.3386934,-0.08400614,1.536149,NA,NA,NotTracked,NotTracked,
0.4399414,-0.8969727,0.1728516,-0.5703125,0.7827148,0.3051758,-1,-2,-3,-17,-8,-2,-1,-2,-1,-4,-10,-11,12,13,14,10,-15.4375,-15.4375,-15.4375,10.4375,10.4375,10.4375,2.77057,4.309906,5.659342,7.074241,5.965663,5.161944,0.1571447,-0.258622,1.57383,0.06863281,0.06846114,1.557632,0.1810536,0.3366408,1.726574,0.1069417,-0.3160148,1.573219,0.0727702,0.02535013,1.607543,0.1638955,-0.1102657,1.729692,0.1569798,-0.4152933,1.707999,-0.002255904,0.07215709,1.689374,0.07609882,-0.4051819,1.673354,-0.03488829,-0.1249597,1.588953,0.3313322,-0.07820511,1.528128,NA,NA,NotTracked,NotTracked,
0.4282227,-0.8974609,0.1606445,-0.3466797,0.5888672,0.2075195,-2,-2,0,-9,0,1,-1,1,-12,-15,-3,-2,-8,-6,-7,-81,-5,-5,-5,23.5625,23.5625,23.5625,2.776222,4.295545,5.622131,7.148461,5.962831,5.269369,0.1575621,-0.2575072,1.573582,0.08563177,0.06584025,1.557518,0.1814494,0.3366467,1.726485,0.1056773,-0.3164257,1.573719,0.09127723,0.0121991,1.605327,0.1643903,-0.1104181,1.729665,0.1579064,-0.4159281,1.707807,-0.001908875,0.07209731,1.687748,0.07700261,-0.4060039,1.672125,-0.03430365,-0.1235342,1.587007,0.3209706,-0.07178224,1.521286,NA,NA,NotTracked,NotTracked,
0.4282227,-0.8974609,0.1606445,-0.3466797,0.5888672,0.2075195,-2,-2,0,-9,0,1,-1,1,-12,-15,-3,-2,-8,-6,-7,-81,-5,-5,-5,23.5625,23.5625,23.5625,2.776222,4.295545,5.622131,7.148461,5.962831,5.269369,0.1910719,-0.2537089,1.575667,0.08205498,0.07250927,1.561061,0.1822273,0.3368606,1.726608,0.127451,-0.3110912,1.570684,0.08853892,0.01723141,1.605519,0.1650413,-0.1105421,1.729656,0.158713,-0.4163771,1.707706,-0.0004449624,0.07226555,1.684725,0.07767522,-0.4065823,1.671043,-0.03456786,-0.1204625,1.586532,0.3106597,-0.05951189,1.514243,NA,NA,NotTracked,NotTracked,
0.4321289,-0.9052734,0.1743164,-0.1987305,0.6606445,0.2216797,1,-1,3,-17,-3,-1,0,0,-4,2,0,-2,-7,7,-1,28,-7.6875,-7.6875,-7.6875,28.5625,28.5625,28.5625,2.77766,4.290204,5.610319,7.228187,5.932759,5.356616,0.1548596,-0.2535591,1.573179,0.07034734,0.08257905,1.566069,0.1829962,0.3369375,1.726416,0.1018583,-0.3086937,1.57456,0.07276796,0.03472045,1.606681,0.1653733,-0.110713,1.729163,0.1594286,-0.4167572,1.707425,0.00117429,0.07252476,1.681689,0.0782437,-0.4071659,1.669741,-0.03431111,-0.1189804,1.585032,0.3049411,-0.05090549,1.51011,NA,NA,NotTracked,NotTracked,
0.453125,-0.8950195,0.171875,-0.1552734,0.6396484,0.15625,0,-3,1,6,-3,-1,-1,0,2,3,6,10,26,13,31,64,-13.5625,-13.5625,-13.5625,-6.375,-6.375,-6.375,2.774481,4.27992,5.589588,7.258191,5.870146,5.420977,0.1542127,-0.2566009,1.573313,0.03430307,0.08904712,1.588434,0.1842404,0.337058,1.726501,0.1025668,-0.312301,1.574611,-0.007677886,0.03016516,1.601561,0.1661682,-0.1106795,1.729089,0.1601854,-0.4169167,1.707249,0.002620028,0.07252732,1.678966,0.07886911,-0.4073994,1.668907,-0.0337796,-0.1170136,1.583771,0.2983668,-0.03986182,1.507748,NA,NA,NotTracked,NotTracked,
0.4838867,-0.8701172,0.1782227,-0.171875,0.6123047,0.1123047,0,0,-1,2,1,-1,0,-1,11,3,-3,-2,-15,-14,-26,17,-14.25,-14.25,-14.25,-7.25,-7.25,-7.25,2.766085,4.270761,5.574986,7.263469,5.838308,5.440501,0.1543861,-0.2558134,1.572739,0.03108737,0.08580829,1.590396,0.1859483,0.3370391,1.726409,0.1050029,-0.3115985,1.574054,-0.007617319,0.0272785,1.60057,0.166376,-0.1106854,1.728838,0.1608757,-0.4170278,1.70717,0.006971971,0.07339565,1.66813,0.07933168,-0.4075171,1.668544,-0.03345951,-0.1162784,1.583122,0.2975128,-0.03685645,1.508143,NA,NA,NotTracked,NotTracked,
0.5048828,-0.8598633,0.1625977,-0.1699219,0.8847656,0.08007813,2,-1,0,-1,-3,-1,-1,-2,-6,1,3,-3,-24,9,-4,14,-2.4375,-2.4375,-2.4375,-21.375,-21.375,-21.375,2.760505,4.25691,5.56945,7.260018,5.711998,5.448058,0.1549562,-0.2595752,1.572551,0.02976126,0.07978332,1.59054,0.1872328,0.3368228,1.72619,0.1273135,-0.3435383,1.566235,0.0002987028,0.0197251,1.60137,0.1671149,-0.1106315,1.72884,0.1611456,-0.4170908,1.707128,0.007661865,0.07340673,1.665574,0.07946506,-0.4075422,1.66849,-0.03257547,-0.1160572,1.581949,0.2946475,-0.03014337,1.508605,NA,NA,NotTracked,NotTracked,
0.4887695,-0.8720703,0.1674805,-0.4130859,0.7822266,-0.04492188,-3,0,-5,-15,-4,-2,-2,-5,-8,0,0,7,13,97,51,-19,4.5,4.5,4.5,-6.75,-6.75,-6.75,2.761385,4.251319,5.57858,7.240157,5.637919,5.409445,0.1877524,-0.256695,1.574953,0.0253265,0.07229742,1.591115,0.187862,0.3368073,1.726276,0.1244996,-0.3156355,1.573952,0.03759038,0.01805539,1.618255,0.1671551,-0.1105943,1.728693,0.1613518,-0.4170144,1.707127,0.007898137,0.0734069,1.664904,0.0796022,-0.4074455,1.668548,-0.03212759,-0.1157653,1.581517,0.2928243,-0.02813305,1.509479,NA,NA,NotTracked,NotTracked,
0.4482422,-0.8710938,0.1738281,-0.4355469,0.9077148,-0.01269531,-1,0,-1,20,3,-3,0,0,3,4,3,4,0,-25,-13,-25,8.375,8.375,8.375,-3.3125,-3.3125,-3.3125,2.764803,4.248124,5.593315,7.23573,5.592652,5.387132,0.1580413,-0.2647533,1.573435,0.02983548,0.04251896,1.576407,0.1893787,0.3365231,1.726683,0.1053181,-0.3202952,1.573605,0.04049902,0.08865237,1.551364,0.1674498,-0.110458,1.728742,0.1615201,-0.4167587,1.70711,0.007976801,0.07342502,1.665027,0.07976843,-0.4070929,1.668756,-0.02727858,-0.1202312,1.579758,0.2922344,-0.03048442,1.510687,NA,NA,NotTracked,NotTracked,
0.4106445,-0.8964844,0.1625977,-0.4731445,1.120605,0.1850586,-1,-2,0,10,0,-1,-4,-2,-2,-2,-2,3,-10,13,-8,-7,13.0625,13.0625,13.0625,7.8125,7.8125,7.8125,2.77062,4.249036,5.610303,7.2015,5.452275,5.317398,0.1605691,-0.2664022,1.574363,0.02756201,0.03084608,1.567785,0.1898065,0.3364754,1.726848,0.1112895,-0.3241539,1.573114,0.05334616,0.08241288,1.6125,0.1677199,-0.1102997,1.729046,0.1615304,-0.4165293,1.707176,0.007904705,0.07351343,1.665394,0.07981452,-0.4067138,1.669132,-0.0256815,-0.1222166,1.578721,0.2925248,-0.03097991,1.510859,NA,NA,NotTracked,NotTracked,
0.4150391,-0.9057617,0.1679688,-0.2636719,1.200195,0.3066406,-2,-2,-2,-12,-3,0,3,-2,0,-6,-2,-11,2,3,0,2,16.8125,16.8125,16.8125,6.125,6.125,6.125,2.782588,4.251677,5.624854,7.204859,5.400093,5.282975,0.1611463,-0.2682253,1.573654,0.04409953,0.01916339,1.551407,0.1901313,0.3362727,1.726861,0.1123957,-0.3245725,1.572031,0.08389413,0.05973943,1.595762,0.1679097,-0.1101661,1.729171,0.1614625,-0.4163103,1.70714,0.007767872,0.07351092,1.665873,0.07975455,-0.406448,1.669237,-0.02483525,-0.1230736,1.578169,0.2960861,-0.03659118,1.511001,NA,NA,NotTracked,NotTracked,
0.4296875,-0.9213867,0.1459961,-0.2817383,1.226563,0.3242188,-3,-1,-5,-2,6,-4,-4,0,0,-1,1,3,14,-14,-4,32,9.5,9.5,9.5,-7.9375,-7.9375,-7.9375,2.790234,4.250413,5.633414,7.195392,5.380698,5.275126,0.161001,-0.2725118,1.574666,0.04749807,0.01207962,1.546588,0.190556,0.3361633,1.72701,0.1283946,-0.3547069,1.563897,0.08486316,0.05187995,1.597926,0.1681602,-0.1099897,1.729457,0.1614088,-0.4160349,1.707185,0.007839753,0.07365259,1.666675,0.07974216,-0.4060323,1.669518,-0.02452721,-0.1234147,1.577982,0.2985893,-0.03876472,1.511311,NA,NA,NotTracked,NotTracked,
0.4321289,-0.9072266,0.1713867,-0.3032227,0.9833984,0.2495117,-1,-2,-5,-1,-5,-5,-7,-4,3,2,1,3,-6,5,22,23,-1.6875,-1.6875,-1.6875,-2.25,-2.25,-2.25,2.790951,4.250371,5.636742,7.173019,5.389524,5.272089,0.1611174,-0.2732684,1.573655,0.04849979,0.007901751,1.543217,0.1907764,0.336146,1.727039,0.1233787,-0.3495956,1.565602,0.08480307,0.04869234,1.598667,0.1683156,-0.1098282,1.729534,0.1612675,-0.4156712,1.70719,0.007782376,0.0737381,1.667181,0.07964012,-0.4056337,1.669665,-0.02377491,-0.1238018,1.577113,0.2985145,-0.03932441,1.511519,NA,NA,NotTracked,NotTracked,
0.4624023,-0.9106445,0.1625977,-0.2895508,0.9428711,0.2211914,-1,-3,-7,-12,-6,-2,-5,-4,-7,-1,0,-1,-6,-11,-19,-36,-5.375,-5.375,-5.375,-2.375,-2.375,-2.375,2.785064,4.250695,5.636466,7.171109,5.400996,5.273322,0.1614863,-0.2760161,1.57523,0.04250019,0.005051137,1.543988,0.1913373,0.3360658,1.727343,0.1274721,-0.3586459,1.563558,0.08375394,0.04676745,1.592958,0.1685528,-0.109624,1.729954,0.1610692,-0.4151502,1.707409,0.007812859,0.07380304,1.667918,0.07948435,-0.4049376,1.670315,-0.02342493,-0.1248382,1.576928,0.3002814,-0.04087359,1.511401,NA,NA,NotTracked,NotTracked,
0.4379883,-0.8823242,0.1708984,-0.2348633,0.878418,0.1757813,0,-1,-3,9,-2,-2,4,1,2,-2,-3,-4,-9,-4,3,15,-4.0625,-4.0625,-4.0625,-2.5,-2.5,-2.5,2.781014,4.250433,5.635468,7.17061,5.41306,5.278302,0.162172,-0.2761689,1.575432,0.04353002,0.006415521,1.543225,0.1915151,0.3359309,1.727494,0.1279735,-0.3579375,1.564038,0.09017064,0.04588531,1.589666,0.1686623,-0.109589,1.73004,0.161012,-0.4149872,1.707456,0.007817586,0.07380705,1.66813,0.07944013,-0.4047509,1.670433,-0.02269127,-0.1251262,1.576444,0.3004943,-0.04096433,1.511458,NA,NA,NotTracked,NotTracked,
0.449707,-0.878418,0.1777344,-0.2050781,0.9008789,0.1782227,-1,-1,1,4,3,2,0,-2,3,3,0,1,-2,5,-4,-7,-0.6875,-0.6875,-0.6875,-2.4375,-2.4375,-2.4375,2.778385,4.250808,5.639267,7.169288,5.412153,5.280044,0.1621233,-0.2768368,1.576331,0.04126316,0.004844624,1.545165,0.1918703,0.3358423,1.727894,0.1289562,-0.3614414,1.563651,0.08524025,0.04861789,1.592764,0.1687957,-0.1095269,1.730286,0.1609666,-0.4147935,1.707611,0.007841098,0.07379994,1.668381,0.07942441,-0.4045298,1.670687,-0.02256899,-0.1252337,1.576435,0.3001365,-0.0413445,1.511888,NA,NA,NotTracked,NotTracked,
0.4482422,-0.8808594,0.1645508,-0.1611328,0.9038086,0.2016602,1,-1,-1,-5,-1,-1,-1,1,-5,-7,-2,-2,-1,4,-4,-8,10.8125,10.8125,10.8125,-9.9375,-9.9375,-9.9375,2.782563,4.251821,5.651028,7.158993,5.408247,5.273573,0.1619287,-0.2769236,1.576726,0.04173969,0.004700892,1.544334,0.1920666,0.3357826,1.728128,0.1261292,-0.3557897,1.565621,0.08063565,0.04795677,1.590872,0.1688968,-0.1094796,1.730515,0.1609583,-0.4146993,1.707754,0.007880051,0.07381683,1.668599,0.07943613,-0.4044107,1.670923,-0.02248022,-0.1253036,1.576427,0.3005208,-0.04161355,1.51276,NA,NA,NotTracked,NotTracked,
0.4746094,-0.8676758,0.1552734,-0.07666016,0.8457031,0.2226563,1,-3,-1,-1,-2,-2,-1,1,4,17,1,-2,-2,-3,-2,-9,25.25,25.25,25.25,-12.5625,-12.5625,-12.5625,2.794099,4.250634,5.676538,7.140625,5.411024,5.258768,0.1619447,-0.2767457,1.575475,0.04283435,0.00384811,1.54474,0.1923519,0.3356948,1.728422,0.1130162,-0.3411403,1.571525,0.08237129,0.04769807,1.591105,0.1689636,-0.1094473,1.7306,0.1608934,-0.4145779,1.707804,0.007879651,0.07384706,1.668789,0.07939319,-0.4042957,1.670984,-0.0224801,-0.1253458,1.576453,0.3008318,-0.04220649,1.513335,NA,NA,NotTracked,NotTracked,
0.5087891,-0.8725586,0.1582031,-0.005371094,0.800293,0.2128906,-2,0,-1,-1,1,0,-1,0,-5,-3,1,-1,-1,0,-3,-7,37.375,37.375,37.375,-19.1875,-19.1875,-19.1875,2.812213,4.241592,5.719228,7.111841,5.416124,5.226556,0.1610173,-0.2799803,1.575216,0.04708802,0.003946716,1.54233,0.1924219,0.3358055,1.728577,0.111858,-0.3452059,1.572512,0.07791732,0.0469521,1.591592,0.1691226,-0.1092467,1.730826,0.1609675,-0.4141481,1.707916,0.0078384,0.0738468,1.669498,0.07952708,-0.4038205,1.67129,-0.02216015,-0.1257304,1.577167,0.303055,-0.04476939,1.515608,NA,NA,NotTracked,NotTracked,
0.5771484,-0.8740234,0.1611328,-0.1074219,0.7993164,0.2592773,-1,-1,0,-2,0,1,0,-2,2,6,3,0,1,-1,0,3,58.9375,58.9375,58.9375,-21.4375,-21.4375,-21.4375,2.841478,4.220433,5.778876,7.073895,5.424454,5.178069,0.2468387,-0.04942004,1.503223,0.05359893,0.002690376,1.539582,0.1924764,0.3357545,1.728805,0.2700558,-0.08769298,1.47225,0.08312726,0.04299754,1.591635,0.1690956,-0.1091673,1.731057,0.1608756,-0.4140379,1.708073,0.007838315,0.07396613,1.670131,0.07947283,-0.4036504,1.671695,-0.02227748,-0.1258704,1.578752,0.306968,-0.05135769,1.521344,NA,NA,NotTracked,NotTracked,
0.5556641,-0.7709961,0.1835938,-0.1767578,0.7548828,0.2407227,-1,-2,-1,0,-3,-1,-3,-1,4,-1,-1,1,-2,0,-2,1,69.75,69.75,69.75,-32.375,-32.375,-32.375,2.8834,4.211205,5.850887,7.022908,5.418546,5.107048,0.2133497,-0.05355766,1.512255,0.05894653,-0.003439895,1.539305,0.1924355,0.3357699,1.729063,0.1993014,-0.1041972,1.572167,0.09053113,0.03328319,1.5961,0.1691505,-0.1090265,1.731176,0.1608333,-0.4139313,1.708184,0.007689543,0.07403447,1.671096,0.07947068,-0.4034718,1.67207,-0.02320541,-0.1264757,1.581453,0.3118344,-0.05704568,1.525611,NA,NA,NotTracked,NotTracked,
0.4946289,-0.777832,0.1791992,-0.06445313,0.6733398,0.347168,-1,0,1,-1,-2,-2,-1,-1,-2,-9,-4,-1,0,0,-2,-1,90.25,90.25,90.25,-46.9375,-46.9375,-46.9375,2.935867,4.207368,5.934258,6.947451,5.377934,5.014059,0.2134616,-0.05985058,1.517145,0.07110981,-0.01482327,1.539455,0.1924566,0.3360074,1.729341,0.2166637,-0.00787415,1.584083,0.0910511,0.0271265,1.599936,0.1691565,-0.1089623,1.731263,0.160845,-0.4137544,1.708314,0.007363603,0.0742537,1.672711,0.07956533,-0.4032632,1.672252,-0.02596569,-0.1277648,1.584901,0.3216129,-0.06698753,1.535343,NA,NA,NotTracked,NotTracked,
0.487793,-0.6518555,0.1923828,-0.1748047,0.7363281,0.4433594,-2,-1,-1,0,0,0,0,-2,1,9,-2,-2,-1,-2,3,1,89.4375,89.4375,89.4375,-54.5625,-54.5625,-54.5625,2.993423,4.186741,6.020481,6.859006,5.317603,4.904405,0.2104388,-0.06996917,1.524456,0.08206324,-0.02220803,1.563684,0.192477,0.3360612,1.729437,0.2485869,-0.02359826,1.5872,0.1047423,0.03986333,1.611832,0.1691494,-0.1089012,1.731348,0.1608149,-0.4136955,1.708354,0.00611332,0.07492764,1.675915,0.07959276,-0.4031628,1.672382,-0.03074839,-0.1332269,1.591961,0.3318348,-0.08581366,1.548541,NA,NA,NotTracked,NotTracked,
0.4814453,-0.6240234,0.2270508,-0.1289063,0.7592773,0.3959961,-1,0,-1,0,-1,-2,1,-3,-4,1,1,0,0,-1,-2,-2,70.3125,70.3125,70.3125,-28.4375,-28.4375,-28.4375,3.030218,4.142909,6.120851,6.80177,5.226126,4.784375,0.1002191,-0.06732571,1.514568,0.1119636,-0.067696,1.521389,0.1923765,0.3362335,1.729663,0.07539947,-0.03615208,1.509824,0.1028716,-0.08344156,1.5585,0.1691652,-0.1089154,1.731399,0.1608469,-0.4139105,1.708654,0.004956219,0.07422315,1.679051,0.07992309,-0.4033425,1.673145,-0.03478861,-0.1444364,1.59957,0.3508841,-0.1052063,1.56841,NA,NA,NotTracked,NotTracked,
0.5063477,-0.6977539,0.2734375,-0.09277344,0.8862305,0.496582,-3,-1,-1,0,-2,3,0,1,-1,3,0,-2,-1,-2,0,2,56.125,56.125,56.125,-38.9375,-38.9375,-38.9375,3.018664,4.089954,6.26111,6.746896,5.10836,4.650964,0.04920238,-0.09202032,1.505004,0.07069251,-0.0913835,1.505783,0.1923068,0.3362539,1.729655,0.04272623,-0.05964277,1.491765,0.0656231,-0.125831,1.509593,0.169212,-0.1090421,1.731488,0.1611001,-0.4146488,1.709419,0.004818237,0.07389705,1.680448,0.08059388,-0.4041444,1.674442,-0.0364383,-0.1480683,1.603954,0.3690488,-0.1149312,1.583006,NA,NA,NotTracked,NotTracked,
0.5898438,-0.7260742,0.3208008,-0.1767578,0.9243164,0.4897461,0,-2,-2,-3,-1,-2,-2,-2,-6,-3,-2,0,0,-1,1,-1,64.9375,64.9375,64.9375,-21.375,-21.375,-21.375,3.001863,4.015441,6.41841,6.711849,4.969633,4.511002,0.1398181,-0.1228642,1.510289,0.09312809,-0.1228027,1.50038,0.1922557,0.3362844,1.729609,0.1515943,-0.09606923,1.515334,0.08988879,-0.157646,1.508563,0.169234,-0.1090976,1.731533,0.1611744,-0.4150143,1.70997,0.004554587,0.07405218,1.693348,0.08087367,-0.4045071,1.675336,-0.05879172,-0.1333399,1.632999,0.3742031,-0.1213414,1.593738,NA,NA,NotTracked,NotTracked,
0.5952148,-0.7167969,0.3027344,0.06542969,0.9228516,0.4213867,-2,-1,-2,-1,-1,0,-1,-2,2,-1,-3,0,-2,0,0,0,83.375,83.375,83.375,-48.6875,-48.6875,-48.6875,2.991371,3.924514,6.585282,6.681651,4.788124,4.361695,0.1304564,-0.1534918,1.496297,0.1116594,-0.153489,1.492879,0.1921766,0.3363002,1.729456,0.1686259,-0.1228844,1.520545,0.1061915,-0.1910501,1.49325,0.169227,-0.1091215,1.731539,0.1612969,-0.4153148,1.710448,0.004613807,0.07424743,1.696476,0.08110839,-0.4048785,1.676308,-0.05946326,-0.1351181,1.637566,0.381325,-0.125749,1.608687,NA,NA,NotTracked,NotTracked,
0.6191406,-0.6523438,0.2617188,0.1220703,0.824707,0.4902344,-2,1,-1,1,0,0,-2,-2,1,4,5,0,0,-1,-1,-1,71.875,71.875,71.875,-33.4375,-33.4375,-33.4375,2.964631,3.818531,6.75754,6.662102,4.575712,4.226386,0.1493421,-0.1890118,1.489833,0.1233794,-0.1898303,1.481565,0.1919902,0.3364649,1.728726,0.1794803,-0.1546891,1.508111,0.1279706,-0.2288129,1.486714,0.1692053,-0.1091589,1.731478,0.1611494,-0.4156757,1.710652,0.003794468,0.0744897,1.699158,0.08081041,-0.4055565,1.676861,-0.06081549,-0.1385737,1.648405,0.3864566,-0.1267127,1.623301,NA,NA,NotTracked,NotTracked,
0.7280273,-0.6660156,0.2260742,0.3056641,0.859375,0.5112305,0,-1,0,-3,-1,-3,0,0,-2,-9,-3,0,-3,-3,1,-1,65.875,65.875,65.875,-40.25,-40.25,-40.25,2.908411,3.700042,6.943042,6.668584,4.338244,4.094576,0.1091692,-0.3878098,1.497865,0.1387025,-0.2326379,1.494007,0.1916842,0.3364699,1.727535,0.1352947,-0.3678717,1.460046,0.1244068,-0.1844306,1.574491,0.1693062,-0.1095427,1.731266,0.1613646,-0.4173688,1.710906,0.003719332,0.07424778,1.700356,0.08086367,-0.4085598,1.67739,-0.06123395,-0.1400394,1.65703,0.3928083,-0.128089,1.643666,NA,NA,NotTracked,NotTracked,
0.8408203,-0.7099609,0.2158203,0.5322266,0.8623047,0.4951172,-1,-2,-1,-1,1,-1,-1,0,2,-2,2,1,-1,0,0,2,70.8125,70.8125,70.8125,-51.375,-51.375,-51.375,2.838912,3.575891,7.137789,6.680535,4.093142,3.959335,0.05489742,-0.4202313,1.510963,0.1794075,-0.3190377,1.492534,0.1914605,0.336768,1.726569,0.1023051,-0.4104321,1.525429,0.1491297,-0.2864334,1.563448,0.1695863,-0.1104885,1.730456,0.1626562,-0.4195565,1.710585,0.003043437,0.07389718,1.702867,0.08149453,-0.4118141,1.677474,-0.05912383,-0.1498875,1.670362,0.4082039,-0.1632892,1.621115,NA,NA,NotTracked,NotTracked,
0.8554688,-0.6962891,0.1821289,0.5673828,0.6811523,0.4790039,8,-2,0,-2,0,2,0,-1,-3,-18,-12,5,0,-2,0,-1,76.9375,76.9375,76.9375,-80.75,-80.75,-80.75,2.801023,3.514023,7.239915,6.681167,3.857451,3.816064,0.03521756,-0.4389341,1.517699,0.2162978,-0.354983,1.508086,0.1912653,0.336971,1.725137,0.07144053,-0.4229788,1.549308,0.2565111,-0.419789,1.557111,0.170063,-0.1110921,1.729584,0.1636743,-0.420539,1.709952,0.00258826,0.07375827,1.703671,0.08175187,-0.4123142,1.677192,-0.05853133,-0.1539142,1.673699,0.365186,-0.1769182,1.65548,NA,NA,NotTracked,NotTracked,
0.9467773,-0.6015625,0.1152344,1.030273,0.7026367,0.5561523,13,-9,-1,1,1,-5,-4,-2,-1,-6,-19,-16,-7,-1,1,-1,77.6875,77.6875,77.6875,-38.1875,-38.1875,-38.1875,2.719942,3.400785,7.445948,6.745612,3.653233,3.64749,0.01466942,-0.4534605,1.52992,0.24251,-0.3665029,1.541116,0.1909204,0.3370647,1.724358,0.05246779,-0.4414452,1.555,0.1853865,-0.3991416,1.566194,0.1702315,-0.1115246,1.728749,0.1644342,-0.4214903,1.709025,0.002159335,0.07335727,1.704551,0.08196682,-0.4127698,1.676309,-0.05819335,-0.157962,1.676867,0.3985096,-0.1480712,1.685695,NA,NA,NotTracked,NotTracked,
1.026855,-0.3535156,0.03955078,0.8652344,0.7871094,0.3725586,-5,-3,0,-4,-7,-22,-12,-2,1,-1,-4,1,0,0,3,1,46.1875,46.1875,46.1875,-71.875,-71.875,-71.875,2.566531,3.233556,7.740014,6.812715,3.501845,3.473727,-0.00206506,-0.4663123,1.545353,0.2826222,-0.4033075,1.519509,0.1907107,0.3370798,1.72357,0.03431693,-0.4594785,1.571773,0.2388882,-0.4044599,1.533615,0.1697513,-0.1119814,1.727777,0.1634279,-0.4223538,1.707754,0.001714941,0.07277445,1.705122,0.08039957,-0.4134386,1.675131,-0.05856768,-0.1597488,1.678593,0.3988299,-0.1514754,1.686198,NA,NA,NotTracked,NotTracked,
1.034668,-0.546875,0.1064453,0.8696289,0.5834961,0.3310547,5,-1,-1,-2,-4,-2,-4,-2,3,1,8,1,0,0,-2,-1,-4.5625,-4.5625,-4.5625,-106.1875,-106.1875,-106.1875,2.40412,3.161415,7.922861,6.861705,3.356925,3.281276,-0.01649203,-0.475292,1.561696,0.3022961,-0.4240566,1.537327,0.1905111,0.3371512,1.722608,0.02759599,-0.491681,1.57,0.2610778,-0.4355254,1.5522,0.1692889,-0.1125524,1.726748,0.1628298,-0.4230826,1.707031,0.001037108,0.07209772,1.70583,0.07966015,-0.4139217,1.674616,-0.05886882,-0.166243,1.681572,0.3990427,-0.1663328,1.68855,NA,NA,NotTracked,NotTracked,
1.005859,-0.6176758,0.1020508,0.9130859,0.5039063,0.3227539,10,-1,0,-2,-1,-2,-2,-2,-1,1,1,-4,-2,0,-1,-1,20.375,20.375,20.375,-86.8125,-86.8125,-86.8125,2.355799,3.14243,7.990532,6.936489,3.230395,3.076208,-0.03512993,-0.4913564,1.58413,0.330561,-0.4650167,1.562574,0.1901899,0.3373786,1.720849,0.01005893,-0.4837144,1.596379,0.2878975,-0.4425241,1.575129,0.1692413,-0.1131835,1.725632,0.1627204,-0.4238253,1.706578,0.0002572414,0.07144316,1.706815,0.07947444,-0.4144784,1.674259,-0.06175246,-0.1742145,1.687543,0.3994888,-0.1756242,1.692709,NA,NA,NotTracked,NotTracked,
0.9560547,-0.3896484,0.02050781,0.9379883,0.4174805,0.2763672,-4,-3,-2,-1,1,-1,-1,0,-2,0,2,-1,1,-1,-3,2,61.4375,61.4375,61.4375,-71.8125,-71.8125,-71.8125,2.314747,3.09387,8.146258,7.028286,3.132523,2.879914,-0.04193276,-0.4979549,1.594359,0.3422271,-0.4762776,1.577837,0.1901682,0.337471,1.720099,0.00776002,-0.4646044,1.602217,0.2943777,-0.4536664,1.576235,0.1693636,-0.1134416,1.725219,0.1628613,-0.4241766,1.706473,-2.626751E-05,0.07127,1.70721,0.07962408,-0.4148121,1.674173,-0.06314641,-0.175662,1.690799,0.3985329,-0.1763978,1.695744,NA,NA,NotTracked,NotTracked,
0.9575195,-0.4223633,0.05029297,0.9702148,0.3564453,0.2026367,0,-2,-1,1,-2,-2,-1,0,-1,0,0,-1,0,0,1,0,47.5,47.5,47.5,-35.5625,-35.5625,-35.5625,2.313342,3.073166,8.211135,7.142824,3.057416,2.699325,-0.04662732,-0.5001111,1.603163,0.3518094,-0.4899741,1.588978,0.1901664,0.3376097,1.719023,0.002694531,-0.4728396,1.607506,0.301147,-0.4714539,1.578766,0.1694964,-0.1136215,1.72499,0.1631088,-0.4247531,1.70653,-0.0001112691,0.07119586,1.707478,0.07995756,-0.4153798,1.674302,-0.06463508,-0.1753081,1.695183,0.3987689,-0.1770333,1.697262,NA,NA,NotTracked,NotTracked,
0.9370117,-0.4257813,0.05126953,0.9990234,0.4160156,0.1313477,3,-1,1,-2,-1,1,1,-1,0,-1,0,0,-2,0,1,1,46.75,46.75,46.75,-25.875,-25.875,-25.875,2.320736,3.066658,8.232279,7.269101,3.009185,2.533453,-0.04898437,-0.5010594,1.609968,0.3611184,-0.5003327,1.5973,0.1902368,0.3377777,1.717824,-0.001974949,-0.4750174,1.613095,0.306975,-0.4794153,1.580617,0.1698425,-0.1138392,1.724324,0.1635058,-0.4251387,1.706427,-0.0002618452,0.07113656,1.707628,0.08040597,-0.4157578,1.674303,-0.06662777,-0.1747263,1.699794,0.3980834,-0.1771695,1.698377,NA,NA,NotTracked,NotTracked,
0.9072266,-0.3662109,0.03320313,1.00293,0.3647461,0.09472656,-3,-4,-3,-1,-2,-2,-2,-3,-1,-1,0,-1,0,-1,0,-1,33.625,33.625,33.625,-31.875,-31.875,-31.875,2.341413,3.048942,8.284641,7.337793,2.979831,2.422982,-0.05079294,-0.503884,1.618628,0.3700632,-0.507035,1.605379,0.1903312,0.3376237,1.71696,0.001952935,-0.4753096,1.60656,0.3130821,-0.4880874,1.585517,0.170054,-0.1141763,1.723906,0.1637753,-0.4255407,1.706393,-0.0003992649,0.07109023,1.707985,0.08077563,-0.4161637,1.674355,-0.06815129,-0.1741621,1.704538,0.3981244,-0.1779027,1.699502,NA,NA,NotTracked,NotTracked,
0.9018555,-0.3496094,0.01171875,0.9682617,0.3354492,0.09960938,2,0,-2,-1,0,0,-2,0,-2,-3,1,-1,-1,0,-2,-3,21.125,21.125,21.125,-20.375,-20.375,-20.375,2.331687,3.033824,8.325499,7.352633,2.963351,2.378246,-0.05155296,-0.5040436,1.631529,0.3803807,-0.5149449,1.615976,0.1904428,0.3375225,1.715265,-0.002004794,-0.481757,1.612406,0.3206736,-0.4920606,1.594738,0.1704385,-0.1145784,1.72328,0.1643829,-0.4261356,1.706408,-0.0007828376,0.07096775,1.709187,0.08154665,-0.4167409,1.674611,-0.07005975,-0.1732946,1.712949,0.397881,-0.1788374,1.701448,NA,NA,NotTracked,NotTracked,
0.9213867,-0.3461914,0.001953125,0.9375,0.3374023,0.1083984,-2,0,-1,0,-2,0,-4,-2,1,-2,-1,0,0,-1,-1,-1,16.1875,16.1875,16.1875,-17.4375,-17.4375,-17.4375,2.319245,3.025423,8.348733,7.333191,2.958557,2.376282,-0.05243898,-0.5044029,1.636473,0.3811576,-0.5153987,1.618826,0.1905041,0.337541,1.714564,-0.003773984,-0.4803087,1.615,0.3230026,-0.4961213,1.598022,0.1705915,-0.114836,1.722857,0.1646296,-0.4264475,1.706322,-0.0008622441,0.07091286,1.709446,0.08179051,-0.4169754,1.674573,-0.06988274,-0.1731984,1.715491,0.3978766,-0.1793124,1.70199,NA,NA,NotTracked,NotTracked,
0.9272461,-0.3417969,-0.03222656,0.921875,0.3061523,0.09667969,-2,0,-2,-1,0,-2,-1,-1,-1,0,-2,0,-2,0,-2,-1,13.25,13.25,13.25,-11.375,-11.375,-11.375,2.290357,3.002006,8.40371,7.303607,2.955176,2.390019,-0.05621941,-0.5026515,1.642299,0.3813354,-0.5163903,1.620219,0.1905268,0.3375574,1.713914,-0.009013617,-0.4611951,1.623975,0.3240008,-0.5001698,1.597459,0.1707385,-0.1150048,1.722448,0.1647636,-0.4266005,1.706267,-0.0008769849,0.0709134,1.709656,0.08195159,-0.4171002,1.674576,-0.06921789,-0.1730719,1.718621,0.3977426,-0.1797611,1.702754,NA,NA,NotTracked,NotTracked,
0.9389648,-0.3256836,-0.05371094,0.9047852,0.3168945,0.08837891,-2,-2,-2,0,-1,-1,-4,-6,-1,0,-2,-1,-1,-1,-2,-1,10,10,10,-5.1875,-5.1875,-5.1875,2.272525,2.987817,8.435884,7.27401,2.954425,2.412932,-0.05552626,-0.5038865,1.647386,0.3822215,-0.5164124,1.62069,0.1906348,0.3376307,1.713289,-0.007475897,-0.4699181,1.6218,0.324167,-0.4987403,1.595713,0.170793,-0.1150763,1.722057,0.164851,-0.4266692,1.706225,-0.0009389056,0.07084618,1.709988,0.08206209,-0.4171425,1.674576,-0.06879222,-0.1730711,1.720662,0.3977017,-0.1800486,1.703315,NA,NA,NotTracked,NotTracked,
0.9394531,-0.3242188,-0.04541016,0.9106445,0.2890625,0.07421875,-2,-2,-2,-2,-3,0,-1,-2,-1,-1,-1,1,0,0,0,-1,4.0625,4.0625,4.0625,-3.5625,-3.5625,-3.5625,2.264186,2.981591,8.447152,7.249022,2.952974,2.433059,-0.05491508,-0.5050672,1.650765,0.3812852,-0.5151046,1.622361,0.1907949,0.3376523,1.712686,-0.007228103,-0.472417,1.621706,0.3265014,-0.4925198,1.605894,0.1710324,-0.1151146,1.72178,0.1649717,-0.426801,1.706323,-0.0009984387,0.07074448,1.710434,0.08224882,-0.417293,1.674811,-0.06784939,-0.1731981,1.723083,0.3974813,-0.1803304,1.704208,NA,NA,NotTracked,NotTracked,
