ALX,ALY,ALZ,ARX,ARY,ARZ,EMG0L,EMG1L,EMG2L,EMG3L,EMG4L,EMG5L,EMG6L,EMG7L,EMG0R,EMG1R,EMG2R,EMG3R,EMG4R,EMG5R,EMG6R,EMG7R,GLX,GLY,GLZ,GRX,GRY,GRZ,ORL,OPL,OYL,ORR,OPR,OYR,LHNX,LHNY,LHNZ,RHNX,RHNY,RHNZ,HX,HY,HZ,LTX,LTY,LTZ,RTX,RTY,RTZ,SpineMidX,SpineMidY,SpineMidZ,SpineBaseX,SpineBaseY,SpineBaseZ,ShoulderLeftX,ShoulderLeftY,ShoulderLeftZ,ShoulderRightX,ShoulderRightY,ShoulderRightZ,ElbowLeftX,ElbowLeftY,ElbowLeftZ,ElbowRightX,ElbowRightY,ElbowRightZ,Myo_Pose_left,Myo_Pose_Right,Kinect_pose_left,Kinect_pose_right
0.9418945,-0.331543,-0.02392578,0.9516602,0.269043,0.02099609,-3,-2,-1,-1,-3,-2,-1,-1,-1,1,0,-2,-1,-2,-1,-1,-1.5,-1.5,-1.5,1.375,1.375,1.375,2.379425,3.018752,8.325509,7.283336,2.958868,2.465145,-0.04867784,-0.5030064,1.645323,0.3645298,-0.5157436,1.621238,0.1797525,0.3376091,1.716097,-0.001041303,-0.4897362,1.609486,0.3155258,-0.4861048,1.596967,0.1662413,-0.1174,1.723151,0.162161,-0.4301533,1.70627,-0.009326762,0.06643042,1.723057,0.07981116,-0.4209391,1.676735,-0.06574119,-0.1803109,1.733465,0.3865042,-0.1827923,1.70222,NA,NA,NotTracked,NotTracked,
0.9326172,-0.3354492,-0.01953125,0.9702148,0.2783203,0.03076172,0,0,0,-1,0,-1,-1,-1,0,-3,-3,-1,0,1,2,-1,-4.1875,-4.1875,-4.1875,2.25,2.25,2.25,2.367156,3.014728,8.333293,7.259162,2.963778,2.493299,-0.04898251,-0.5034852,1.644676,0.3633489,-0.5145915,1.619433,0.1797728,0.3375481,1.716121,-0.001366728,-0.481602,1.610223,0.3152468,-0.4834689,1.593917,0.1662184,-0.1173764,1.723292,0.1621424,-0.4300338,1.706451,-0.009315802,0.06648938,1.723177,0.07980405,-0.4207989,1.676943,-0.0657533,-0.1802569,1.733501,0.3865368,-0.1823603,1.70251,NA,NA,NotTracked,NotTracked,
0.9360352,-0.3325195,-0.02441406,1.013184,0.3457031,0.02148438,0,0,0,0,-2,0,1,1,0,-13,-1,4,1,3,-5,0,-3.875,-3.875,-3.875,-2.1875,-2.1875,-2.1875,2.356671,3.012192,8.340318,7.210876,2.978437,2.544479,-0.04935294,-0.5031577,1.646076,0.3628521,-0.51441,1.619874,0.1798572,0.3374802,1.716394,-0.0009541107,-0.4880315,1.609341,0.3152631,-0.481784,1.596186,0.1661868,-0.1173976,1.723521,0.1620978,-0.4300428,1.70668,-0.009304025,0.06644814,1.723282,0.07976224,-0.4208117,1.677081,-0.06580193,-0.1802829,1.733611,0.386627,-0.1823187,1.702901,NA,NA,NotTracked,NotTracked,
0.9477539,-0.3452148,-0.03857422,1.134277,0.3305664,0.04394531,-1,-1,0,-2,0,-2,-1,-2,4,1,21,9,4,7,21,5,-5.0625,-5.0625,-5.0625,-48.75,-48.75,-48.75,2.342766,3.011172,8.349194,7.078485,3.019278,2.645501,-0.04963773,-0.5006068,1.646776,0.3615269,-0.5130419,1.617682,0.1799421,0.3374617,1.716455,-0.001782611,-0.482011,1.611655,0.3151738,-0.4829376,1.595115,0.1661242,-0.117405,1.723825,0.1619941,-0.430092,1.70696,-0.009282106,0.06638927,1.723384,0.07967166,-0.4208502,1.677271,-0.065862,-0.18032,1.73373,0.3868311,-0.1822312,1.703806,NA,NA,NotTracked,NotTracked,
0.9194336,-0.4477539,-0.08105469,1.229004,0.4262695,0.2114258,0,-3,-4,-2,-2,-3,-1,-1,-3,-1,5,-5,1,2,-3,-2,-8.125,-8.125,-8.125,-10.3125,-10.3125,-10.3125,2.344897,3.023031,8.337633,6.85735,3.101487,2.849625,-0.04935258,-0.501946,1.645681,0.3584478,-0.5076323,1.61318,0.1799963,0.3374258,1.716449,-0.001752426,-0.4768758,1.61265,0.313506,-0.4788302,1.5946,0.1660854,-0.1174289,1.72399,0.1619604,-0.4300655,1.707125,-0.009265434,0.06640016,1.72341,0.07963134,-0.4208273,1.677422,-0.06585363,-0.1803082,1.733748,0.3873472,-0.1821007,1.705105,NA,NA,NotTracked,NotTracked,
1.041504,-0.4697266,0.04638672,1.206055,0.6264648,0.4423828,-1,-1,-4,-4,-3,-3,4,2,0,1,5,0,0,0,-1,3,-23.25,-23.25,-23.25,25.9375,25.9375,25.9375,2.409965,3.050949,8.251769,6.655966,3.262762,3.092188,-0.04435834,-0.4971507,1.635605,0.3428764,-0.4732066,1.591838,0.1801193,0.3373055,1.716435,0.0005295025,-0.4825163,1.607451,0.2936602,-0.4922677,1.577947,0.1661035,-0.1173765,1.72408,0.161727,-0.4299347,1.707446,-0.009184066,0.06643923,1.723478,0.07927833,-0.4205585,1.677757,-0.06672329,-0.180088,1.733482,0.3912055,-0.1806277,1.711287,NA,NA,NotTracked,NotTracked,
1.033203,-0.5390625,0.1142578,0.9106445,0.7939453,0.6894531,0,-1,-3,-5,-3,-1,2,0,2,-3,-3,7,1,0,-4,-1,-41.6875,-41.6875,-41.6875,24.8125,24.8125,24.8125,2.547406,3.105396,8.064212,6.522094,3.491805,3.286411,-0.03990861,-0.4878882,1.627109,0.3273618,-0.4457406,1.575893,0.1801519,0.337247,1.71643,0.004129223,-0.4676555,1.603159,0.2886164,-0.4295733,1.580447,0.1659669,-0.1173411,1.724137,0.1610963,-0.4295677,1.707728,-0.00909625,0.06651364,1.723476,0.07833614,-0.4199938,1.678096,-0.06773324,-0.17984,1.732747,0.3954972,-0.179029,1.716039,NA,NA,NotTracked,NotTracked,
0.8754883,-0.5561523,0.1362305,0.5766602,0.6401367,0.6220703,1,3,23,44,11,1,0,-1,-3,-4,-1,9,9,2,-11,-7,-80.375,-80.375,-80.375,20.25,20.25,20.25,2.674646,3.186862,7.8422,6.42047,3.757842,3.448503,-0.03147555,-0.4736075,1.615777,0.3062419,-0.4090314,1.557221,0.1802413,0.337234,1.716352,0.01215025,-0.4587821,1.597356,0.2712757,-0.392957,1.577515,0.16571,-0.1172221,1.724181,0.1597216,-0.4287851,1.707947,-0.008988723,0.06715022,1.723695,0.07657418,-0.418843,1.678528,-0.07154123,-0.1783548,1.731958,0.4010941,-0.1765225,1.720821,NA,NA,NotTracked,NotTracked,
0.8041992,-0.644043,0.1933594,0.359375,0.6279297,0.6586914,0,-1,0,-12,-4,-5,-3,-2,-1,-7,-1,12,-6,0,0,-1,-114.1875,-114.1875,-114.1875,53.1875,53.1875,53.1875,2.752841,3.28786,7.629092,6.360207,4.040201,3.615427,-0.02066187,-0.4589532,1.603071,0.2751748,-0.3653768,1.558629,0.1803439,0.3371357,1.716295,0.02130704,-0.4309012,1.598565,0.3093126,-0.4584731,1.580769,0.1654387,-0.1170496,1.72429,0.1588525,-0.4282591,1.70818,-0.008891122,0.06742897,1.723829,0.07557122,-0.4181316,1.678891,-0.07376453,-0.177764,1.729335,0.4076989,-0.1736896,1.723269,NA,NA,NotTracked,NotTracked,
0.8701172,-0.6640625,0.2919922,0.2724609,0.7260742,0.7539063,-1,-3,-9,-12,-5,-2,-2,-1,1,0,-1,4,0,-4,-1,-1,-132.3125,-132.3125,-132.3125,74.5625,74.5625,74.5625,2.802058,3.398619,7.40564,6.356613,4.335231,3.78616,-0.003009227,-0.4444152,1.585814,0.254629,-0.3288688,1.550105,0.1806871,0.3372167,1.716251,0.03628302,-0.4182468,1.594723,0.2904785,-0.4019797,1.588166,0.1655671,-0.1168051,1.724362,0.1591377,-0.4278412,1.708265,-0.008624376,0.06780886,1.723695,0.07577031,-0.4179184,1.679001,-0.07570129,-0.172439,1.723935,0.4106291,-0.164855,1.719956,NA,NA,NotTracked,NotTracked,
0.8549805,-0.6333008,0.3154297,0.1367188,0.7133789,0.75,-2,-1,2,7,-1,-1,-3,-3,-2,-4,-5,2,-6,-4,-1,-2,-147.25,-147.25,-147.25,72,72,72,2.841603,3.521828,7.166794,6.371697,4.632623,3.979716,0.03933426,-0.4140801,1.551093,0.1873352,-0.2331645,1.511841,0.181332,0.3370835,1.716348,0.08468952,-0.4036841,1.544,0.1724471,-0.2957233,1.560313,0.1665554,-0.1163459,1.725166,0.1614843,-0.4265297,1.709318,-0.007580033,0.06865777,1.723294,0.07784685,-0.4176132,1.679873,-0.0794268,-0.1566101,1.706622,0.4135291,-0.1467873,1.702897,NA,NA,NotTracked,NotTracked,
0.8505859,-0.6816406,0.3164063,-0.01025391,0.7163086,0.7885742,-1,0,2,4,2,-1,-3,2,-3,-3,-3,0,2,0,1,-2,-166.8125,-166.8125,-166.8125,86.6875,86.6875,86.6875,2.855848,3.654593,6.921801,6.430593,4.922111,4.191374,0.06265517,-0.3735585,1.577715,0.1683207,-0.1832613,1.523228,0.1817292,0.3371283,1.716516,0.08961575,-0.3186508,1.56637,0.1714766,-0.2573952,1.570804,0.1668896,-0.1158853,1.725944,0.161874,-0.4256315,1.710304,-0.0058563,0.06937373,1.721851,0.07845408,-0.4170698,1.680984,-0.07792035,-0.1508805,1.696435,0.4345099,-0.1633702,1.635075,NA,NA,NotTracked,NotTracked,
0.7905273,-0.7509766,0.371582,-0.1289063,0.7407227,0.7553711,1,1,-6,3,-2,1,1,3,-3,-3,-4,5,7,-3,-3,-5,-168.3125,-168.3125,-168.3125,83.0625,83.0625,83.0625,2.845634,3.796831,6.675557,6.528906,5.185843,4.418649,0.07595407,-0.3376331,1.577849,0.146485,-0.1417837,1.530416,0.1824487,0.3367366,1.717092,0.078077,-0.3032281,1.528595,0.155693,-0.2107741,1.576919,0.1670885,-0.1153572,1.727475,0.1617041,-0.4242453,1.712375,-0.00395913,0.06987322,1.72024,0.07877129,-0.4160064,1.683176,-0.07815284,-0.1454155,1.685163,0.4287049,-0.162734,1.626761,NA,NA,NotTracked,NotTracked,
0.7084961,-0.7294922,0.3603516,-0.2280273,0.7021484,0.6264648,-1,-1,1,12,4,0,-7,-12,8,-2,2,0,-19,-12,-4,0,-142.125,-142.125,-142.125,74.6875,74.6875,74.6875,2.834463,3.942239,6.442426,6.652747,5.403215,4.651477,0.0790135,-0.2998149,1.5765,0.1294463,-0.1064577,1.542722,0.1834018,0.3365875,1.718075,0.1371605,-0.2553664,1.575529,0.1114671,-0.1652909,1.583657,0.167158,-0.1146905,1.729225,0.161276,-0.4230433,1.714473,-0.002768896,0.07012533,1.718774,0.07917449,-0.414353,1.685468,-0.07409218,-0.1379878,1.664677,0.4186192,-0.1596577,1.604647,NA,NA,NotTracked,NotTracked,
0.6083984,-0.6738281,0.3286133,-0.2001953,0.6591797,0.6157227,-5,-5,-2,-21,-14,-5,-8,-4,-6,-2,-2,-4,21,-2,-2,-1,-124.4375,-124.4375,-124.4375,76.125,76.125,76.125,2.816324,4.079243,6.235416,6.797648,5.561618,4.872644,0.1034976,-0.2911075,1.569742,0.07126894,-0.04238715,1.533881,0.184105,0.3366498,1.719206,0.1556471,-0.2467747,1.577362,0.09598386,0.002497504,1.604273,0.1675914,-0.1140809,1.730744,0.1613555,-0.4222263,1.715771,-0.002779314,0.07066821,1.717071,0.07983767,-0.4129947,1.686699,-0.06655967,-0.1374889,1.64082,0.3810347,-0.1253075,1.590969,NA,NA,NotTracked,NotTracked,
0.5537109,-0.6274414,0.3081055,-0.2553711,0.6757813,0.409668,-2,1,-2,-7,-3,-4,2,-4,1,-3,-1,-2,12,-8,-35,-4,-101.875,-101.875,-101.875,54.25,54.25,54.25,2.790787,4.197407,6.05598,6.93337,5.654499,5.065969,0.155955,-0.2829655,1.562245,0.06472341,-0.01717,1.550219,0.1849409,0.3365632,1.720606,0.1996016,-0.2278267,1.580982,0.08163057,-0.08569447,1.609917,0.1681058,-0.1133839,1.73175,0.1613474,-0.4215183,1.716317,-0.002875002,0.07203569,1.712868,0.08020895,-0.4117972,1.68726,-0.06043241,-0.1364487,1.627566,0.3732452,-0.1200119,1.582087,NA,NA,NotTracked,NotTracked,
0.5537109,-0.6274414,0.3081055,-0.2553711,0.6757813,0.409668,-2,1,-2,-7,-3,-4,2,-4,1,-3,-1,-2,12,-8,-35,-4,-101.875,-101.875,-101.875,54.25,54.25,54.25,2.790787,4.197407,6.05598,6.93337,5.654499,5.065969,0.1581077,-0.2657099,1.563983,0.1091573,-0.03314646,1.56619,0.1856821,0.3364604,1.721608,0.1989037,-0.215071,1.581508,0.1339282,0.01477112,1.598176,0.168294,-0.1128939,1.732163,0.1612969,-0.4207629,1.716373,-0.002955129,0.07219653,1.711867,0.08032978,-0.4107189,1.687163,-0.05260868,-0.1311327,1.614578,0.3438796,-0.10717,1.55685,NA,NA,NotTracked,NotTracked,
0.5517578,-0.6162109,0.2802734,-0.05126953,0.6733398,0.4228516,-3,-5,-7,-18,-5,-6,-8,10,-22,0,-1,-11,100,38,16,-6,-82.875,-82.875,-82.875,34.625,34.625,34.625,2.783395,4.244614,5.977265,7.034777,5.692917,5.211756,0.1943169,-0.2705831,1.568794,0.1075499,-0.02077965,1.568537,0.1865644,0.3368582,1.723059,0.2225031,-0.2093305,1.583321,0.1302084,0.02567433,1.595087,0.1685016,-0.1122776,1.732546,0.1613726,-0.419726,1.716419,-0.002337462,0.07269492,1.709767,0.08055012,-0.4094669,1.686998,-0.04568229,-0.1274906,1.605392,0.3327096,-0.09823332,1.546579,NA,NA,NotTracked,NotTracked,
0.5556641,-0.5708008,0.2319336,0.002929688,0.6469727,0.2768555,-4,-5,-5,7,-4,-10,-8,5,15,7,6,7,77,49,10,-4,-39.25,-39.25,-39.25,20.3125,20.3125,20.3125,2.783527,4.337068,5.783167,7.09217,5.690032,5.30758,0.1594116,-0.2481631,1.567286,0.1181872,-0.0197831,1.565362,0.1872902,0.3369957,1.723744,0.1709498,-0.2079669,1.516339,0.1314812,0.03146139,1.592286,0.1688651,-0.1115035,1.73279,0.1615072,-0.4183503,1.716333,-0.001726148,0.07277309,1.70738,0.0807758,-0.4081136,1.686564,-0.03817592,-0.1247509,1.5977,0.3221446,-0.08704254,1.537099,NA,NA,NotTracked,NotTracked,
0.6450195,-0.5942383,0.1264648,0.08837891,0.7836914,0.2182617,1,-2,-2,-33,-2,0,1,9,-52,-1,9,46,93,86,15,-9,-55.6875,-55.6875,-55.6875,0.6875,0.6875,0.6875,2.773589,4.332357,5.691932,7.120671,5.656608,5.366007,0.1661162,-0.2511515,1.57027,0.1259149,-0.01966541,1.557254,0.1876629,0.3371122,1.724372,0.181311,-0.2016147,1.521319,0.1252674,-0.08125219,1.595589,0.1692063,-0.1109557,1.732938,0.1616525,-0.416969,1.716161,-0.001395296,0.07272151,1.705418,0.08098442,-0.4069222,1.68628,-0.03351686,-0.1251259,1.592684,0.3110985,-0.07785549,1.529664,NA,NA,NotTracked,NotTracked,
0.6791992,-0.7290039,0.1035156,-0.007324219,0.8920898,0.168457,-3,-2,-2,4,0,-6,-11,-9,14,-2,-7,-18,-64,-8,-4,-9,-43.875,-43.875,-43.875,-3.4375,-3.4375,-3.4375,2.744442,4.311209,5.631463,7.126622,5.628076,5.380691,0.1710321,-0.2576976,1.573849,0.1254868,-0.01815568,1.553752,0.1879806,0.3370963,1.724653,0.2344533,-0.2174577,1.530493,0.1253621,-0.08107816,1.595405,0.1693648,-0.1106329,1.732935,0.1617407,-0.4162032,1.715993,-0.001045516,0.07261781,1.703455,0.0810577,-0.4061938,1.685968,-0.03031727,-0.1240002,1.589076,0.3051338,-0.07227135,1.526917,NA,NA,NotTracked,NotTracked,
0.5820313,-0.8491211,0.05322266,-0.01953125,0.8452148,0.2583008,-1,-1,-9,0,7,-1,-4,13,-14,-5,-6,-1,-29,-9,-7,-6,2.5,2.5,2.5,-9.3125,-9.3125,-9.3125,2.740225,4.302634,5.609541,7.112278,5.603136,5.372949,0.1761089,-0.2589776,1.578339,0.1240334,-0.01282852,1.547441,0.1885253,0.3371281,1.72575,0.2413689,-0.2194967,1.540121,0.1274293,-0.08172321,1.592476,0.1699505,-0.1097884,1.732915,0.1626944,-0.4143733,1.715526,0.001981808,0.07333699,1.688378,0.08193368,-0.4045317,1.685089,-0.02498087,-0.1236094,1.586619,0.3003433,-0.06711251,1.52643,NA,NA,NotTracked,NotTracked,
0.4638672,-0.8984375,0.0546875,-0.1044922,0.9116211,0.2851563,-2,-4,-5,-42,-12,-1,1,-3,13,6,9,8,12,6,0,-1,30.1875,30.1875,30.1875,-9.375,-9.375,-9.375,2.754948,4.303576,5.621956,7.089338,5.589313,5.352875,0.1752643,-0.2609373,1.57669,0.1248642,-0.01366751,1.546986,0.188554,0.337158,1.725773,0.2372439,-0.2192628,1.535484,0.1294774,-0.08144663,1.591788,0.1701602,-0.1094326,1.732778,0.1629767,-0.4136617,1.71518,0.003308236,0.07315233,1.683844,0.08218905,-0.4039392,1.68468,-0.02467033,-0.123479,1.586393,0.3001929,-0.06642118,1.526602,NA,NA,NotTracked,NotTracked,
0.4077148,-0.9033203,0.1655273,-0.1625977,0.9038086,0.3203125,-2,-2,-3,-1,-5,1,-1,0,2,5,-4,-14,10,10,11,5,38.25,38.25,38.25,-15,-15,-15,2.781464,4.310754,5.65239,7.054964,5.591179,5.312272,0.1766939,-0.2587744,1.576629,0.1251471,-0.01115013,1.550086,0.188537,0.3372142,1.725819,0.2381518,-0.2211945,1.537245,0.131064,-0.07860759,1.592205,0.1702006,-0.109283,1.732801,0.1629763,-0.4135107,1.715137,0.002186128,0.07284439,1.688288,0.08217964,-0.4037877,1.684608,-0.02452664,-0.1235845,1.586495,0.3010175,-0.06657265,1.526761,NA,NA,NotTracked,NotTracked,
0.4179688,-0.8857422,0.215332,-0.3457031,0.8916016,0.2924805,-3,-3,-1,-3,2,-5,-6,-7,0,-8,2,12,-10,-13,-10,-8,15.9375,15.9375,15.9375,-25.75,-25.75,-25.75,2.797179,4.313564,5.686049,7.00289,5.603346,5.245802,0.1761008,-0.2595762,1.574973,0.126012,-0.008727478,1.553143,0.1885089,0.3371938,1.725778,0.2372058,-0.2220028,1.535037,0.1330864,-0.07680951,1.591364,0.1703481,-0.1090235,1.732631,0.163076,-0.4132581,1.714905,0.001780276,0.07279748,1.69083,0.0822795,-0.4035947,1.684441,-0.02464198,-0.1235723,1.586521,0.3058532,-0.06819305,1.5287,NA,NA,NotTracked,NotTracked,
0.3623047,-0.9404297,0.2583008,-0.6552734,0.8876953,0.3339844,-3,-1,3,4,1,-3,3,-3,3,9,5,7,-36,1,-4,5,9.0625,9.0625,9.0625,-20.25,-20.25,-20.25,2.799553,4.315535,5.71271,6.942343,5.623222,5.156276,0.1751623,-0.2598316,1.575251,0.1251567,-0.004512629,1.558307,0.1884153,0.3372643,1.725742,0.2354286,-0.2230776,1.535106,0.1317109,-0.07773352,1.591974,0.1704723,-0.1088452,1.732472,0.1631464,-0.4131573,1.714778,0.001453766,0.07269713,1.692537,0.08233071,-0.4035341,1.684363,-0.0248459,-0.1234929,1.586705,0.3143659,-0.0724754,1.532678,NA,NA,NotTracked,NotTracked,
0.3623047,-0.9404297,0.2583008,-0.6552734,0.8876953,0.3339844,-3,-1,3,4,1,-3,3,-3,3,9,5,7,-36,1,-4,5,9.0625,9.0625,9.0625,-20.25,-20.25,-20.25,2.799553,4.315535,5.71271,6.942343,5.623222,5.156276,0.173499,-0.259336,1.574676,0.09374091,0.01075628,1.578553,0.1881415,0.3372426,1.725764,0.2356705,-0.2226544,1.53537,0.1225027,0.05826256,1.61028,0.1705047,-0.1088092,1.73243,0.1632102,-0.4131542,1.714552,0.001154426,0.07273149,1.694152,0.08237152,-0.4035264,1.684062,-0.02645732,-0.1228228,1.587746,0.3215639,-0.07711495,1.535527,NA,NA,NotTracked,NotTracked,
0.3417969,-0.9223633,0.2514648,-0.8334961,0.8271484,0.4189453,-2,-3,-10,-16,-10,-7,-4,-2,5,-3,-1,-10,42,-1,-1,-3,14.0625,14.0625,14.0625,7.4375,7.4375,7.4375,2.80555,4.317527,5.723414,6.896978,5.653937,5.035006,0.1699601,-0.2573862,1.574353,0.1205828,0.002869899,1.570697,0.1878088,0.3372932,1.725746,0.2339571,-0.2236824,1.53748,0.1181555,-0.04941229,1.606336,0.1705033,-0.1087511,1.732346,0.1631785,-0.4131659,1.714418,0.0009340936,0.07271247,1.695237,0.0823015,-0.4035158,1.68387,-0.03015991,-0.1221558,1.590135,0.3324318,-0.08184295,1.538865,NA,NA,NotTracked,NotTracked,
0.3110352,-0.9516602,0.1977539,-0.8017578,0.7832031,0.4169922,-5,-2,-3,19,-3,-3,-3,-4,2,-3,5,-1,8,1,2,1,13.4375,13.4375,13.4375,7.1875,7.1875,7.1875,2.828131,4.325781,5.738102,6.8891,5.663638,5.014084,0.1684577,-0.2582828,1.574267,0.1134276,0.007237047,1.57292,0.1873766,0.3373353,1.725685,0.2314451,-0.2259799,1.536127,0.1627667,0.04654821,1.608816,0.1704545,-0.1087874,1.732229,0.163114,-0.4132504,1.714168,0.0008266052,0.07250188,1.696162,0.08222019,-0.4036302,1.683493,-0.0315251,-0.1225773,1.591435,0.3407891,-0.08446947,1.541557,NA,NA,NotTracked,NotTracked,
0.3295898,-0.980957,0.1835938,-0.7084961,0.7944336,0.371582,2,-2,-3,-16,-7,-2,2,2,-2,-7,-3,4,-15,-5,1,-3,4.875,4.875,4.875,21.1875,21.1875,21.1875,2.834347,4.33169,5.739133,6.895674,5.682692,4.992632,0.1669917,-0.2582782,1.57411,0.1284005,0.002801181,1.569329,0.1869817,0.337365,1.725441,0.2308827,-0.2257851,1.535679,0.1209195,-0.05106064,1.604934,0.1704274,-0.108753,1.73208,0.1630243,-0.4131379,1.713796,0.0007791368,0.07241528,1.696953,0.08204255,-0.4034852,1.682693,-0.03182278,-0.1227561,1.591652,0.3443324,-0.08607274,1.541481,NA,NA,NotTracked,NotTracked,
0.3544922,-0.9682617,0.2026367,-0.6293945,0.8027344,0.2543945,0,-2,0,8,2,-4,-8,-2,2,10,-3,-4,-6,-3,-1,-9,0.5,0.5,0.5,8.9375,8.9375,8.9375,2.835497,4.333328,5.736534,6.916782,5.715499,4.986429,0.166272,-0.2585626,1.573359,0.1296349,0.001742667,1.569897,0.1867271,0.3373472,1.725344,0.2269095,-0.2258323,1.533005,0.1897713,0.0394831,1.608146,0.170395,-0.1087207,1.731992,0.1629732,-0.4131075,1.713521,0.0007025393,0.07226736,1.697473,0.08198061,-0.4034354,1.682216,-0.03213233,-0.1229142,1.591755,0.3464298,-0.08666434,1.541032,NA,NA,NotTracked,NotTracked,
0.4179688,-0.9189453,0.2163086,-0.5454102,0.8100586,0.300293,1,0,-5,11,7,0,0,-3,-10,-14,-11,-6,-1,0,-4,-27,-11.6875,-11.6875,-11.6875,17.8125,17.8125,17.8125,2.829217,4.334763,5.720889,6.924813,5.724237,4.981637,0.1660922,-0.2578977,1.572632,0.1302378,0.004582547,1.564779,0.1865767,0.3373162,1.725274,0.2290364,-0.224837,1.532561,0.1771357,0.04718371,1.607385,0.1704956,-0.1087823,1.731588,0.1628706,-0.4132385,1.712714,0.0005749543,0.07211468,1.698155,0.08176337,-0.4035066,1.680779,-0.03232907,-0.1228577,1.591629,0.3481084,-0.08678886,1.540266,NA,NA,NotTracked,NotTracked,
0.4179688,-0.8881836,0.2036133,-0.5498047,0.9389648,0.4018555,2,1,-2,-4,-2,2,3,0,-9,-20,-7,-1,6,2,-8,-37,-10.6875,-10.6875,-10.6875,0.375,0.375,0.375,2.824385,4.334592,5.708257,6.925956,5.744095,4.974236,0.166115,-0.2582138,1.572235,0.1182472,0.01434417,1.559152,0.1864786,0.3373399,1.725056,0.2303943,-0.2236992,1.532883,0.1314725,0.06748734,1.603546,0.170463,-0.1087899,1.731489,0.1629834,-0.4133255,1.712502,0.000537581,0.07206866,1.698274,0.08191101,-0.4036244,1.68029,-0.0321404,-0.1234187,1.590851,0.3485857,-0.08658567,1.539659,NA,NA,NotTracked,NotTracked,
0.4125977,-0.8925781,0.2011719,-0.621582,0.8725586,0.434082,-1,-1,-4,2,-6,-2,-3,-1,-4,0,0,0,-1,-3,0,9,-9.8125,-9.8125,-9.8125,1.875,1.875,1.875,2.82147,4.334576,5.703288,6.922976,5.795632,4.992064,0.1674819,-0.2577311,1.571371,0.1151222,0.01924097,1.556569,0.1864419,0.3372865,1.724924,0.2321297,-0.2232379,1.533651,0.1667474,0.05486362,1.602632,0.1705454,-0.10873,1.731335,0.1631762,-0.4133593,1.712178,0.00053547,0.07207341,1.698305,0.08215604,-0.4036151,1.679683,-0.03164723,-0.1236884,1.590232,0.3483196,-0.08577464,1.538666,NA,NA,NotTracked,NotTracked,
0.4082031,-0.9038086,0.2050781,-0.6464844,0.8579102,0.425293,0,-2,-5,-21,-9,-1,-1,-4,-6,-6,-3,3,0,-5,-1,-2,-2.9375,-2.9375,-2.9375,8.625,8.625,8.625,2.82164,4.333697,5.691294,6.93419,5.817828,5.012276,0.1844102,-0.2574671,1.573202,0.108262,0.02602069,1.55433,0.1864813,0.3373075,1.724927,0.2475149,-0.2022717,1.574703,0.1556798,0.06268468,1.601195,0.1706456,-0.1087491,1.731196,0.163362,-0.4135201,1.711883,0.00051694,0.07209121,1.698322,0.08235627,-0.4037945,1.679113,-0.03168333,-0.1236743,1.590126,0.3461612,-0.08224443,1.535817,NA,NA,NotTracked,NotTracked,
0.3847656,-0.8886719,0.1865234,-0.6704102,0.8325195,0.3525391,0,-2,0,-6,0,-4,-4,-5,3,2,4,7,44,21,-15,-35,3.5,3.5,3.5,0.375,0.375,0.375,2.826803,4.333104,5.685046,6.961406,5.860466,5.071244,0.1697021,-0.2538612,1.570755,0.103177,0.03399565,1.552042,0.1866094,0.3373095,1.724983,0.2320096,-0.225608,1.531373,0.1141043,0.0115033,1.601535,0.1707544,-0.1087845,1.731127,0.1634991,-0.4135965,1.711735,0.0005059058,0.0720958,1.698307,0.08252473,-0.4038825,1.678637,-0.03169796,-0.1236715,1.590123,0.3428855,-0.07896832,1.532811,NA,NA,NotTracked,NotTracked,
0.3896484,-0.9072266,0.203125,-0.5341797,0.7792969,0.4057617,-2,-2,-4,-3,-7,-4,-2,-3,-4,-1,1,-1,7,8,9,13,1,1,1,-9.0625,-9.0625,-9.0625,2.829456,4.331276,5.681529,7.004129,5.893301,5.18988,0.1650151,-0.2544437,1.570517,0.08695001,0.05145291,1.559864,0.1871111,0.3372404,1.724817,0.2315529,-0.2247447,1.531749,0.1561633,0.07731079,1.604444,0.1710492,-0.1088282,1.730954,0.1640771,-0.413956,1.711312,0.0002943518,0.07201944,1.697376,0.08303771,-0.4042833,1.677779,-0.03271746,-0.1223617,1.589128,0.325756,-0.06423217,1.522079,NA,NA,NotTracked,NotTracked,
0.402832,-0.8994141,0.1948242,-0.4545898,0.7641602,0.3510742,-2,-1,-1,-8,-2,-2,-2,-10,4,19,2,0,2,6,6,6,6.25,6.25,6.25,-16.5,-16.5,-16.5,2.842577,4.320298,5.670496,7.015471,5.896528,5.234633,0.195707,-0.2566428,1.572542,0.08314555,0.05644352,1.564233,0.1878102,0.3373131,1.724838,0.257419,-0.2060539,1.579054,0.09438738,-0.001732564,1.606099,0.1716118,-0.1088528,1.730674,0.164804,-0.4140357,1.710846,0.008114381,0.06874387,1.662276,0.08378521,-0.4044403,1.676992,-0.03281285,-0.1212001,1.58828,0.3192618,-0.060044,1.517969,NA,NA,NotTracked,NotTracked,
0.418457,-0.8916016,0.1987305,-0.3583984,0.6777344,0.1870117,-2,-2,-3,1,-1,-4,-1,-3,6,-16,-3,-8,-19,-1,24,68,-1.3125,-1.3125,-1.3125,-4.875,-4.875,-4.875,2.848228,4.308202,5.659464,7.048362,5.896105,5.325271,0.1698688,-0.2450854,1.568789,0.07901013,0.05913158,1.569412,0.1883904,0.3373759,1.724645,0.2265265,-0.1836321,1.576455,0.07477399,0.006562207,1.607216,0.1721618,-0.108956,1.730334,0.1652665,-0.4140787,1.710571,0.009108436,0.0688911,1.659641,0.084217,-0.4045309,1.676525,-0.03275269,-0.1200887,1.588095,0.314647,-0.05597774,1.516633,NA,NA,NotTracked,NotTracked,
0.434082,-0.8891602,0.2250977,-0.3120117,0.7197266,0.1914063,-2,-2,0,-20,-5,2,6,0,-6,0,4,12,-16,-1,8,21,-3.9375,-3.9375,-3.9375,7.3125,7.3125,7.3125,2.849177,4.302121,5.654236,7.099267,5.880128,5.405042,0.1707132,-0.2446433,1.566826,0.07363186,0.06356046,1.573247,0.1887638,0.337331,1.724507,0.2253053,-0.1835876,1.576046,0.137111,0.09243991,1.610846,0.1720045,-0.1090958,1.729622,0.1655097,-0.4142767,1.710184,0.008659036,0.06924541,1.662248,0.08428651,-0.4047585,1.676209,-0.03277168,-0.1200125,1.587991,0.3084491,-0.04984429,1.514376,NA,NA,NotTracked,NotTracked,
0.472168,-0.887207,0.2358398,-0.253418,0.7749023,0.04394531,-3,-2,-3,-3,-3,0,-1,3,8,0,1,2,14,1,4,13,-3.375,-3.375,-3.375,-3.3125,-3.3125,-3.3125,2.849857,4.28718,5.647616,7.124598,5.838117,5.446991,0.1708131,-0.244279,1.566529,0.06780484,0.06405921,1.577075,0.1891872,0.337323,1.724419,0.2272526,-0.1842802,1.5754,0.1204532,0.07336327,1.515095,0.1724594,-0.1090825,1.729374,0.1658727,-0.4142388,1.709893,0.009494848,0.06988474,1.659179,0.08456686,-0.4048147,1.675901,-0.03253311,-0.1192884,1.587614,0.3031051,-0.04429661,1.512384,NA,NA,NotTracked,NotTracked,
0.4853516,-0.8730469,0.2255859,-0.2050781,0.7519531,0.168457,-1,0,1,-3,4,0,1,-1,6,1,1,2,8,9,9,-46,0.25,0.25,0.25,-0.625,-0.625,-0.625,2.849528,4.281429,5.652705,7.116148,5.76368,5.424019,0.1704645,-0.2444779,1.566156,0.04779642,0.05569976,1.587018,0.190123,0.33727,1.724117,0.2255199,-0.1838418,1.574247,0.05698412,-0.007683205,1.613808,0.1729535,-0.1087965,1.729036,0.1663708,-0.4138546,1.709316,0.01055739,0.07080262,1.65637,0.08490131,-0.4046565,1.675605,-0.03230589,-0.1182508,1.586857,0.2965035,-0.03919216,1.512573,NA,NA,Unknown,NotTracked,
0.4682617,-0.8745117,0.2143555,-0.2924805,0.7265625,0.1689453,-1,-1,2,5,0,1,-3,-2,-5,-4,-5,-6,-7,1,15,16,2.1875,2.1875,2.1875,-7,-7,-7,2.848917,4.281712,5.658528,7.09323,5.700298,5.382751,0.196538,-0.2557533,1.569073,0.03381359,0.05200522,1.592164,0.1903417,0.3373548,1.724077,0.2557434,-0.2067955,1.576742,-0.01580551,0.01658628,1.567636,0.1731168,-0.1086087,1.728725,0.1664411,-0.4136144,1.708864,0.01095598,0.07142487,1.656567,0.08492348,-0.4045559,1.675548,-0.0321233,-0.118767,1.586773,0.2953764,-0.03838618,1.512687,NA,NA,Unknown,NotTracked,
0.4614258,-0.8828125,0.1967773,-0.3076172,0.7329102,0.1987305,1,-1,0,1,-2,-1,1,0,8,3,0,2,-5,56,3,53,4.5625,4.5625,4.5625,-8.125,-8.125,-8.125,2.846736,4.281453,5.683458,7.079403,5.658973,5.36026,0.1541409,-0.2572039,1.568699,0.03175541,0.04553882,1.589295,0.1905535,0.3373136,1.724105,0.2243426,-0.2261503,1.528,-0.01873698,0.0404453,1.545758,0.1731799,-0.1085251,1.728619,0.1665073,-0.4133973,1.708565,0.01174556,0.07205184,1.658482,0.08496441,-0.4044192,1.675462,-0.03176323,-0.1190376,1.586797,0.2947135,-0.03833988,1.512868,NA,NA,Unknown,NotTracked,
0.4204102,-0.8886719,0.1904297,-0.3588867,0.9052734,0.2348633,-2,-2,-5,-24,-13,-6,-4,-3,-11,-10,-7,-6,-2,-12,-14,-40,8.1875,8.1875,8.1875,-2.0625,-2.0625,-2.0625,2.848659,4.283184,5.69893,7.056015,5.497281,5.299148,0.1554609,-0.2614037,1.568952,0.03103559,0.03725982,1.586598,0.1906498,0.3373048,1.724058,0.2242322,-0.2269879,1.527294,-0.02042345,0.02491381,1.5387,0.1732423,-0.1084305,1.728504,0.1664186,-0.412989,1.708202,0.008371758,0.07299673,1.670159,0.08492848,-0.4041483,1.675371,-0.03014726,-0.1204551,1.586232,0.2942747,-0.03883583,1.513025,NA,NA,Unknown,NotTracked,
0.371582,-0.8959961,0.2226563,-0.3764648,1.141602,0.2919922,0,1,-1,24,8,1,0,-1,3,2,2,1,6,17,22,-65,5.125,5.125,5.125,-3,-3,-3,2.853526,4.290513,5.715624,7.048823,5.445865,5.27498,0.1565915,-0.2612336,1.568398,0.08765987,0.004252653,1.539895,0.190675,0.3372151,1.724058,0.2269031,-0.2219283,1.53805,0.1495651,0.01226185,1.471714,0.1732045,-0.1084159,1.728368,0.1662842,-0.4128307,1.707912,0.007197857,0.07290366,1.67346,0.08484937,-0.4040086,1.675248,-0.02893515,-0.1221911,1.584887,0.2942971,-0.04037426,1.513233,NA,NA,Unknown,NotTracked,
0.371582,-0.8959961,0.2226563,-0.3764648,1.141602,0.2919922,0,1,-1,24,8,1,0,-1,3,2,2,1,6,17,22,-65,5.125,5.125,5.125,-3,-3,-3,2.853526,4.290513,5.715624,7.048823,5.445865,5.27498,0.1570931,-0.2638369,1.568436,0.08774716,-0.007526669,1.537874,0.1907065,0.3372335,1.724044,0.2280737,-0.2201448,1.545676,-0.006766905,-0.01518643,1.519467,0.1731835,-0.1082996,1.728127,0.1658221,-0.4123937,1.707423,0.00643176,0.07269152,1.675651,0.08456407,-0.4036008,1.67508,-0.02842179,-0.1231265,1.584131,0.2949579,-0.04327979,1.514733,NA,NA,Unknown,Unknown,
0.3891602,-0.9077148,0.2246094,-0.3574219,1.100586,0.3408203,-4,0,-3,2,-2,-4,-4,-6,10,3,-1,-7,0,-17,2,40,7.8125,7.8125,7.8125,3.8125,3.8125,3.8125,2.85631,4.293845,5.720824,7.039708,5.384032,5.224798,0.1586395,-0.2648825,1.569106,0.08739821,-0.01716843,1.536735,0.1907143,0.3372421,1.724052,0.2293346,-0.2227596,1.541401,-0.005160254,-0.03081188,1.511381,0.1731332,-0.1082954,1.728025,0.1656483,-0.4122876,1.707232,0.006447608,0.07247879,1.675873,0.08444127,-0.4034711,1.67498,-0.02770407,-0.1242403,1.583455,0.3009931,-0.05053419,1.519863,NA,NA,Unknown,Unknown,
0.4018555,-0.9101563,0.2148438,-0.3041992,1.086426,0.4179688,0,0,-1,-15,0,-1,0,0,6,-4,-1,6,9,0,9,54,10.75,10.75,10.75,-15.5,-15.5,-15.5,2.865022,4.299534,5.727339,7.007946,5.333931,5.182834,0.1589345,-0.2646105,1.568004,0.08879805,-0.0237989,1.535757,0.1906692,0.3372284,1.723874,0.2317508,-0.2227165,1.543689,-0.005922792,-0.04412696,1.506786,0.1731028,-0.1081443,1.727747,0.1652089,-0.4119205,1.706846,0.005697859,0.0723756,1.677879,0.08413234,-0.403054,1.674654,-0.02805307,-0.1256785,1.582875,0.3039833,-0.05518124,1.522642,NA,NA,Unknown,Unknown,
0.4047852,-0.9135742,0.2163086,-0.2578125,1.041504,0.4394531,-4,-3,-1,-11,-6,-4,-4,-6,6,1,-2,-2,2,13,-4,11,8.1875,8.1875,8.1875,-16.25,-16.25,-16.25,2.869144,4.301003,5.728524,6.994001,5.331228,5.175457,0.159531,-0.2646627,1.568646,0.02231424,-0.01752133,1.573053,0.1906545,0.3371321,1.723505,0.229547,-0.2214779,1.544663,-0.01877527,-0.08767226,1.539391,0.1729982,-0.1080756,1.727593,0.1647472,-0.4116343,1.706462,0.00525952,0.0724047,1.679281,0.08379018,-0.4027576,1.674338,-0.02789146,-0.1265467,1.582505,0.3047275,-0.0562852,1.522532,NA,NA,Unknown,Unknown,
0.4306641,-0.9140625,0.2050781,-0.2626953,0.9799805,0.3339844,-2,0,1,12,5,4,3,1,6,0,-1,2,-9,21,-3,6,2.5625,2.5625,2.5625,-9.125,-9.125,-9.125,2.87852,4.30443,5.725882,6.978193,5.341125,5.166891,0.1602289,-0.2650609,1.569439,0.09200783,-0.03843018,1.542773,0.1906148,0.3370053,1.723185,0.2282543,-0.2192036,1.551068,-0.004463041,-0.05024436,1.504211,0.1729314,-0.1080303,1.727506,0.1645233,-0.4114615,1.706304,0.005225352,0.07233276,1.679393,0.08361487,-0.4025378,1.674204,-0.02762698,-0.127406,1.582038,0.3053392,-0.05672405,1.522831,NA,NA,Unknown,NotTracked,
0.4199219,-0.9072266,0.2124023,-0.2226563,0.9282227,0.2651367,0,0,-1,-14,1,-1,0,-1,-1,-3,1,0,-4,6,0,47,-2.625,-2.625,-2.625,-1.625,-1.625,-1.625,2.877569,4.307416,5.722323,6.975598,5.351779,5.165763,0.1608056,-0.2646482,1.568501,0.09233697,-0.03859695,1.542575,0.1906346,0.3369737,1.722776,0.2329385,-0.2200933,1.549769,0.1173611,0.01427363,1.59278,0.1727906,-0.1079962,1.727234,0.1643234,-0.4113219,1.706006,0.004816817,0.0721794,1.68014,0.08343046,-0.4023515,1.673872,-0.0277021,-0.1280255,1.581563,0.3060499,-0.05797059,1.522848,NA,NA,NotTracked,NotTracked,
0.4199219,-0.9072266,0.2124023,-0.2226563,0.9282227,0.2651367,0,0,-1,-14,1,-1,0,-1,-1,-3,1,0,-4,6,0,47,-2.625,-2.625,-2.625,-1.625,-1.625,-1.625,2.877569,4.307416,5.722323,6.975598,5.351779,5.165763,0.1618377,-0.2694865,1.568932,0.09223232,-0.03738613,1.542829,0.1906363,0.3369664,1.72272,0.2346421,-0.2195254,1.557241,0.1178794,0.01412738,1.592924,0.1727443,-0.1079569,1.727145,0.1641075,-0.4111233,1.705796,0.004526152,0.07229757,1.681012,0.08321723,-0.4020929,1.673578,-0.02780543,-0.1288709,1.580939,0.3067681,-0.05979731,1.523665,NA,NA,NotTracked,NotTracked,
0.4165039,-0.887207,0.230957,-0.1826172,0.9301758,0.2900391,-2,-2,0,-10,-2,-5,-3,-3,-4,-3,-2,5,0,-6,-13,-10,-0.6875,-0.6875,-0.6875,1.75,1.75,1.75,2.879123,4.31007,5.717086,6.979123,5.350154,5.161748,0.1624456,-0.2691509,1.568781,0.09198754,-0.03800511,1.543542,0.1905373,0.3370864,1.722434,0.2344441,-0.2218853,1.550599,0.1177064,0.01416072,1.592952,0.1726159,-0.1079142,1.727001,0.1640216,-0.4110567,1.705662,0.004208649,0.07214949,1.681438,0.08314642,-0.4020002,1.673384,-0.02762027,-0.1296351,1.580438,0.3069564,-0.06004352,1.523958,NA,NA,NotTracked,NotTracked,
0.4267578,-0.887207,0.2314453,-0.1689453,0.9204102,0.3105469,0,-1,-2,-3,0,-3,-9,-12,1,0,2,0,2,0,-2,22,0.5625,0.5625,0.5625,-0.375,-0.375,-0.375,2.880149,4.311164,5.716816,6.978299,5.347547,5.158575,0.2522216,-0.05470692,1.504696,0.09222967,-0.03784429,1.542738,0.1905325,0.3370777,1.722328,0.2624108,0.0009220022,1.562384,0.1156109,0.01493564,1.593937,0.1725425,-0.1079188,1.726841,0.163948,-0.4109736,1.705433,0.004187518,0.07208329,1.681343,0.08306459,-0.4018582,1.672997,-0.02764039,-0.1299046,1.580261,0.3070926,-0.06052193,1.524052,NA,NA,NotTracked,NotTracked,
0.4272461,-0.8930664,0.2207031,-0.1157227,0.8901367,0.3291016,-1,0,-2,1,1,-1,-1,3,-3,-7,-2,0,-3,2,2,15,3.125,3.125,3.125,-6.9375,-6.9375,-6.9375,2.882294,4.312405,5.718976,6.964633,5.3472,5.13674,0.2522051,-0.05464131,1.504489,0.09223789,-0.03878286,1.541999,0.1904669,0.3369935,1.722108,0.2431687,-0.002844034,1.575059,0.1154896,0.01459253,1.593562,0.1723837,-0.1078344,1.72667,0.1638172,-0.4108459,1.705223,0.003965597,0.07209751,1.68175,0.08294685,-0.4016831,1.672677,-0.02760124,-0.1302373,1.580084,0.3072504,-0.06082072,1.524308,NA,NA,NotTracked,NotTracked,
0.4262695,-0.8930664,0.2226563,-0.04833984,0.8608398,0.355957,-2,-1,-1,-2,1,-2,0,0,3,-8,-5,-1,-2,0,1,13,5.375,5.375,5.375,-11,-11,-11,2.883998,4.312536,5.72246,6.954059,5.350872,5.124502,0.2020346,-0.05726246,1.508279,0.09203778,-0.03716208,1.541552,0.1902852,0.3368412,1.721813,0.2117707,-0.00568141,1.574333,0.1178062,0.01399772,1.593194,0.1721666,-0.1078152,1.72657,0.1635986,-0.4107441,1.705156,0.003421661,0.0722407,1.682666,0.08278126,-0.4015594,1.672596,-0.02776332,-0.1310032,1.580216,0.3077252,-0.06206102,1.524902,NA,NA,NotTracked,NotTracked,
0.4516602,-0.8823242,0.2133789,0.04589844,0.7441406,0.3256836,1,0,-1,-1,-1,-2,0,0,1,3,-4,0,-1,1,-1,-4,16.5625,16.5625,16.5625,-28.8125,-28.8125,-28.8125,2.889675,4.309282,5.752052,6.914674,5.362041,5.08966,0.202746,-0.05863822,1.508401,0.0923724,-0.03897868,1.543093,0.1902474,0.3366618,1.721669,0.2231839,-0.008352052,1.577175,0.1182856,0.01398235,1.592952,0.1720433,-0.1078392,1.726439,0.1635188,-0.4107208,1.705006,0.003368869,0.07220215,1.682727,0.08271706,-0.4015048,1.67236,-0.02816265,-0.1312025,1.580211,0.3088836,-0.06389106,1.52596,NA,NA,NotTracked,NotTracked,
0.4731445,-0.8530273,0.1787109,-0.03613281,0.684082,0.3383789,-1,0,-1,1,-2,0,0,0,19,8,7,4,1,0,0,1,32.5,32.5,32.5,-18.1875,-18.1875,-18.1875,2.901583,4.303801,5.796758,6.873978,5.363787,5.041285,0.203718,-0.06569039,1.516684,0.03631027,-0.01183501,1.569369,0.1899497,0.336699,1.721166,0.2088817,-0.01625635,1.583389,0.07058425,0.0517225,1.609209,0.171621,-0.1078333,1.72605,0.1631682,-0.4106454,1.704729,0.002376721,0.07260595,1.684077,0.08240419,-0.4013368,1.671991,-0.02897331,-0.1329008,1.581398,0.3133593,-0.0737315,1.530533,NA,NA,NotTracked,NotTracked,
0.4775391,-0.8461914,0.1865234,-0.04443359,0.722168,0.3935547,0,-1,-1,0,-2,-1,0,0,10,3,-2,0,-3,-2,-1,2,43.0625,43.0625,43.0625,10.75,10.75,10.75,2.909934,4.302096,5.830804,6.863105,5.345261,4.983584,0.228026,-0.08551981,1.518131,0.04269113,-0.0143197,1.568207,0.1897596,0.3367262,1.720939,0.2276767,-0.02818911,1.571429,0.06468028,0.05066492,1.610407,0.1712975,-0.1078147,1.72577,0.1629498,-0.4106222,1.704587,0.001426731,0.07290239,1.685414,0.08222151,-0.4012668,1.671798,-0.03027695,-0.1354255,1.584395,0.3188452,-0.08165871,1.535572,NA,NA,NotTracked,NotTracked,
0.5351563,-0.6806641,0.2363281,-0.2290039,0.8505859,0.3710938,1,-2,0,-1,-1,-1,0,0,-3,-3,-3,-1,0,-2,-2,1,79.5,79.5,79.5,-17.4375,-17.4375,-17.4375,2.970907,4.287914,5.965229,6.828487,5.326574,4.89327,0.2258582,-0.0901855,1.525398,0.04620546,-0.01615039,1.567436,0.1894288,0.3369609,1.720396,0.2251422,-0.0370999,1.582631,0.05877177,0.0526216,1.61136,0.1709838,-0.1078168,1.725405,0.1626861,-0.4107774,1.704436,0.001005406,0.07296085,1.685793,0.08203575,-0.4013587,1.671657,-0.03355357,-0.1382919,1.589667,0.3335993,-0.09313098,1.550264,NA,NA,NotTracked,NotTracked,
0.5083008,-0.6723633,0.269043,-0.04589844,0.8071289,0.3710938,-2,-3,-4,0,-1,0,-1,-3,-2,-1,-1,-1,-1,-1,-2,-2,82.3125,82.3125,82.3125,-33.375,-33.375,-33.375,3.01639,4.261071,6.076895,6.774727,5.286291,4.763379,0.2172707,-0.08841578,1.537198,0.05686095,-0.02251713,1.565353,0.1890078,0.337155,1.719755,0.2221357,-0.04071059,1.589844,0.07552375,0.04296683,1.606698,0.170544,-0.1078932,1.725059,0.1624662,-0.411002,1.70431,0.0001464735,0.07329435,1.687038,0.08192265,-0.4014874,1.671509,-0.03595477,-0.142476,1.59489,0.3431024,-0.1034913,1.55784,NA,NA,NotTracked,NotTracked,
0.4858398,-0.6728516,0.2631836,-0.2709961,0.7573242,0.4941406,-10,-7,0,-1,-1,0,-1,-1,-1,-2,-3,-2,-2,-2,1,-1,83,83,83,-63.3125,-63.3125,-63.3125,3.034861,4.242703,6.138376,6.686049,5.205828,4.615336,0.2125252,-0.09440561,1.545716,0.05862294,-0.0417668,1.530689,0.1886133,0.3371741,1.719398,0.2135801,-0.04579338,1.591553,0.08942968,-0.001292654,1.597124,0.1700369,-0.1081389,1.724877,0.1620585,-0.4115618,1.704426,-0.0005775474,0.07337329,1.688275,0.08172084,-0.4018292,1.671663,-0.03775634,-0.1483539,1.601436,0.351435,-0.1120112,1.56756,NA,NA,NotTracked,NotTracked,
0.5014648,-0.7021484,0.269043,-0.09033203,0.7939453,0.4536133,0,0,-2,-1,-2,1,0,2,0,-4,-3,1,1,0,-4,-2,63.0625,63.0625,63.0625,-44.1875,-44.1875,-44.1875,3.056116,4.15003,6.349895,6.620518,5.059101,4.458896,0.09995963,-0.08260149,1.507432,0.06769668,-0.06636255,1.509203,0.1881693,0.3370918,1.718448,0.105522,-0.04851485,1.566,0.09484902,-0.02629592,1.593118,0.1697785,-0.1084011,1.724622,0.1617719,-0.412475,1.704613,-0.001362113,0.07315396,1.690317,0.08158834,-0.4023952,1.671828,-0.03914903,-0.1519584,1.607952,0.3609853,-0.12037,1.578938,NA,NA,NotTracked,NotTracked,
0.5776367,-0.8022461,0.2929688,0.1098633,0.7944336,0.5214844,1,2,0,-1,0,-3,-1,1,-4,-6,-8,-2,-1,1,0,0,66.8125,66.8125,66.8125,-65.375,-65.375,-65.375,3.034133,4.061831,6.522404,6.559665,4.874731,4.297311,0.08732843,-0.1366352,1.472037,0.1195012,-0.139099,1.481557,0.1872509,0.3370769,1.716539,0.1244992,-0.1699778,1.480647,0.1271321,-0.1058877,1.50625,0.1690408,-0.108956,1.724181,0.1613808,-0.413518,1.705159,-0.001655732,0.07330833,1.694123,0.08123105,-0.4034694,1.673011,-0.06454816,-0.1394926,1.648058,0.3867385,-0.1261367,1.616828,NA,NA,NotTracked,NotTracked,
0.6015625,-0.8256836,0.2924805,0.04150391,0.6801758,0.6518555,4,1,-1,-1,-3,-2,-1,0,5,2,-10,-4,-1,0,-3,2,81.125,81.125,81.125,-71.4375,-71.4375,-71.4375,3.029729,4.012052,6.609557,6.499992,4.649667,4.145463,0.1141748,-0.2793162,1.54177,0.1434384,-0.1701083,1.512001,0.186629,0.3370506,1.715634,0.06362972,-0.3565746,1.580222,0.1889462,-0.1481009,1.487629,0.168509,-0.1091948,1.723816,0.1605927,-0.4145195,1.70521,-0.002458731,0.07336845,1.696549,0.08003312,-0.4049163,1.673335,-0.06595255,-0.1415016,1.656369,0.4338782,-0.1530418,1.627378,NA,NA,NotTracked,NotTracked,
0.6884766,-0.7011719,0.2319336,0.2817383,0.6865234,0.5585938,-1,0,0,-2,-1,-1,-1,-1,-2,-7,-5,1,2,2,5,0,106.6875,106.6875,106.6875,-49.875,-49.875,-49.875,3.027212,3.837185,6.885962,6.479389,4.384748,4.010602,0.05928978,-0.2725126,1.573843,0.1590401,-0.2156399,1.498104,0.1862651,0.3371416,1.715,0.1141403,-0.3192311,1.573869,0.1164223,-0.2715995,1.537,0.168212,-0.1097231,1.723366,0.1604808,-0.4161478,1.705267,-0.003190088,0.07353505,1.698405,0.0796789,-0.4076762,1.67358,-0.06655462,-0.1420904,1.664778,0.4070093,-0.1352735,1.655461,NA,NA,NotTracked,NotTracked,
0.7700195,-0.6606445,0.2441406,0.378418,0.6953125,0.6367188,-3,-2,-2,-1,0,-2,3,0,-2,4,16,-5,-2,-1,-1,-1,107.9375,107.9375,107.9375,-46.0625,-46.0625,-46.0625,3.013789,3.707428,7.077324,6.484403,4.11295,3.872845,0.08223057,-0.4106785,1.496386,0.1767024,-0.2510113,1.498274,0.185825,0.3371486,1.713928,0.05066713,-0.4494698,1.512042,0.1486303,-0.2859697,1.551973,0.1679044,-0.11055,1.722289,0.1607134,-0.4179162,1.704641,-0.00389658,0.07319354,1.699691,0.07962263,-0.4104981,1.67298,-0.06784458,-0.1459639,1.674208,0.416297,-0.1620584,1.632606,NA,NA,NotTracked,NotTracked,
0.784668,-0.8056641,0.2890625,0.6157227,0.7685547,0.5415039,7,0,-2,-5,-3,-4,-2,1,1,-4,2,0,-3,-1,7,2,116.375,116.375,116.375,-5.875,-5.875,-5.875,3.007236,3.642688,7.173635,6.564823,3.852935,3.71344,0.04647993,-0.4137156,1.511296,0.2061139,-0.294808,1.51089,0.1852854,0.3371366,1.712852,0.01285113,-0.4356664,1.5332,0.1918486,-0.363612,1.547219,0.167615,-0.1109865,1.721589,0.1611463,-0.4189925,1.703927,-0.004438095,0.07271374,1.700874,0.07974661,-0.4115694,1.672397,-0.06825095,-0.1486865,1.679471,0.4191404,-0.1623721,1.636601,NA,NA,NotTracked,NotTracked,
0.8725586,-0.5092773,0.2563477,0.9755859,0.7568359,0.5517578,1,1,0,0,-2,-4,-2,-2,-6,-10,0,2,-1,-2,2,0,120.9375,120.9375,120.9375,-24.9375,-24.9375,-24.9375,2.964943,3.445934,7.494689,6.671592,3.632576,3.524627,0.001223097,-0.4374976,1.5449,0.2669967,-0.3623591,1.538947,0.1844133,0.3371078,1.711061,0.02663396,-0.4873987,1.537905,0.3257433,-0.3259025,1.520278,0.1667659,-0.112154,1.71977,0.160871,-0.4211597,1.702469,-0.00607709,0.0718948,1.702994,0.07871148,-0.4134805,1.671195,-0.07239345,-0.1567808,1.689098,0.4056955,-0.1498222,1.685246,NA,NA,NotTracked,NotTracked,
0.956543,-0.5253906,0.2919922,0.9165039,0.6474609,0.5048828,5,-1,-2,-3,0,-1,-2,-1,0,0,-11,1,3,2,2,2,94.6875,94.6875,94.6875,-38.5,-38.5,-38.5,2.880686,3.332409,7.725667,6.776423,3.450271,3.339165,-0.01779381,-0.4500007,1.557183,0.305913,-0.3967608,1.531243,0.1835443,0.3369911,1.709589,0.005573826,-0.429908,1.597406,0.3035316,-0.4017809,1.461237,0.1662726,-0.1125892,1.718825,0.1599853,-0.4219576,1.701773,-0.007044254,0.07153402,1.703959,0.07745051,-0.4139904,1.670504,-0.0721918,-0.161603,1.692991,0.4061589,-0.1606157,1.688172,NA,NA,NotTracked,NotTracked,
0.9487305,-0.3999023,0.1889648,0.9394531,0.6386719,0.4384766,-3,-2,-1,-2,1,-1,-1,-2,-5,5,-4,-2,-2,-2,1,-3,52.125,52.125,52.125,-34.4375,-34.4375,-34.4375,2.707647,3.195923,8.057101,6.891961,3.288859,3.15693,-0.03772326,-0.467357,1.567671,0.3262702,-0.4211197,1.547322,0.1832507,0.3369882,1.709184,-0.0759763,-0.4915418,1.57325,0.3270995,-0.4246492,1.480948,0.1659682,-0.1127995,1.718585,0.1595003,-0.4224092,1.701653,-0.007947342,0.07114492,1.70491,0.07686494,-0.4142338,1.670403,-0.07329325,-0.1667216,1.697007,0.4060772,-0.1697371,1.691046,NA,NA,NotTracked,NotTracked,
0.9423828,-0.3730469,0.1503906,0.9638672,0.4418945,0.2817383,-2,1,-3,1,-1,-1,-1,-1,2,-1,-7,1,-2,0,2,0,26.1875,26.1875,26.1875,-42.875,-42.875,-42.875,2.632691,3.159878,8.157624,7.034299,3.159636,2.947592,-0.05575755,-0.4857411,1.575994,0.3415531,-0.4431063,1.560693,0.1828369,0.3370146,1.708727,-0.09712958,-0.5121874,1.588,0.3576187,-0.4516957,1.497904,0.1656303,-0.113107,1.718223,0.1590005,-0.4230295,1.701635,-0.008322147,0.07097992,1.705324,0.07644486,-0.4145932,1.670346,-0.07467318,-0.1697764,1.699292,0.4049284,-0.1707025,1.692474,NA,NA,NotTracked,NotTracked,
0.9604492,-0.3881836,0.1264648,0.9765625,0.4067383,0.2563477,-3,0,-1,-1,-1,-2,-1,-2,1,-4,0,3,0,0,1,3,-20.0625,-20.0625,-20.0625,-22.875,-22.875,-22.875,2.462345,3.101019,8.334757,7.158597,3.065997,2.77482,-0.06855322,-0.4963129,1.586938,0.3566334,-0.4653187,1.57422,0.1824931,0.3371504,1.708109,-0.1083431,-0.5133725,1.598789,0.3748437,-0.4753132,1.51347,0.1654165,-0.1132879,1.717993,0.1587902,-0.4235212,1.701684,-0.008458576,0.07095142,1.705591,0.07631396,-0.4148418,1.670347,-0.07649189,-0.1740778,1.703379,0.4048223,-0.1713833,1.693609,NA,NA,NotTracked,NotTracked,
0.9697266,-0.3808594,0.1103516,0.9916992,0.4350586,0.1918945,-1,-2,-3,-3,-2,0,-2,-2,0,-2,-1,-2,-1,-2,-2,-2,-34.25,-34.25,-34.25,-22.3125,-22.3125,-22.3125,2.377707,3.075853,8.407241,7.29583,3.002879,2.602464,-0.08386773,-0.5112672,1.615985,0.3748988,-0.4934905,1.593566,0.1820839,0.3371187,1.707187,-0.1244196,-0.5167065,1.626524,0.421397,-0.5136725,1.564563,0.1652866,-0.1137775,1.717643,0.1591787,-0.4243722,1.701815,-0.009209916,0.0706986,1.706432,0.07675102,-0.4155608,1.670396,-0.07811958,-0.1738482,1.707322,0.4032338,-0.172105,1.696101,NA,NA,NotTracked,NotTracked,
0.9838867,-0.4213867,0.06201172,1.001465,0.3657227,0.1342773,-1,0,-2,-1,-1,-2,-2,-1,-2,0,0,-1,1,-1,5,-2,-37.6875,-37.6875,-37.6875,-33.1875,-33.1875,-33.1875,2.168045,3.016741,8.561584,7.400837,2.954412,2.453384,-0.08546036,-0.5123616,1.629794,0.3806919,-0.5003,1.603818,0.1817154,0.337091,1.706672,-0.1295076,-0.5266648,1.625083,0.4224826,-0.5145791,1.567507,0.1650144,-0.114083,1.717495,0.1591843,-0.424722,1.701928,-0.00937782,0.07054796,1.706712,0.07679746,-0.4157893,1.670498,-0.07855153,-0.1737902,1.709164,0.4020438,-0.1724147,1.697644,NA,NA,NotTracked,NotTracked,
0.987793,-0.3886719,0.02734375,1.005859,0.3222656,0.08203125,0,-1,0,-1,-2,1,-1,-1,-3,-1,-3,0,-1,-1,-1,-1,-14.5625,-14.5625,-14.5625,-20.375,-20.375,-20.375,2.108699,2.989413,8.603728,7.456838,2.924114,2.365235,-0.08505809,-0.5130851,1.641593,0.3842397,-0.5068439,1.611985,0.1813479,0.3370291,1.70631,-0.1269249,-0.5286437,1.640593,0.424488,-0.5203257,1.5794,0.1649837,-0.1141996,1.717383,0.1592835,-0.4249449,1.701944,-0.00965047,0.07045379,1.70698,0.07692643,-0.41598,1.670488,-0.07872549,-0.1737235,1.711469,0.4010436,-0.1727789,1.69881,NA,NA,NotTracked,NotTracked,
0.972168,-0.3457031,-0.01269531,0.987793,0.3203125,0.04296875,0,0,-2,-1,0,-3,-2,-1,2,-1,-1,-1,-1,-2,-2,2,12,12,12,-18.3125,-18.3125,-18.3125,2.143702,2.963379,8.575258,7.462187,2.908537,2.33836,-0.08085207,-0.5122989,1.650579,0.3828442,-0.5093279,1.618417,0.1811917,0.3368885,1.706047,-0.1243077,-0.4988884,1.668167,0.4230469,-0.4875264,1.613131,0.1649254,-0.1143628,1.717303,0.1594331,-0.4252808,1.702057,-0.009847175,0.07047827,1.707306,0.07715191,-0.4163248,1.670662,-0.07886176,-0.1734482,1.714425,0.3995424,-0.1734256,1.700026,NA,NA,NotTracked,NotTracked,
0.9584961,-0.3320313,-0.02148438,0.9487305,0.2680664,0.05078125,-2,-2,0,0,-2,-3,-3,-3,-1,-1,-3,0,-1,2,0,-2,18.4375,18.4375,18.4375,-15.875,-15.875,-15.875,2.183566,2.958302,8.544859,7.398028,2.896377,2.383605,-0.0701258,-0.5126307,1.659857,0.3757984,-0.5099761,1.629561,0.1809038,0.3368987,1.705943,-0.1157226,-0.5128134,1.670731,0.4246643,-0.5305424,1.61425,0.164857,-0.1144999,1.717228,0.1594661,-0.425734,1.702468,-0.01041684,0.07051715,1.708302,0.0772538,-0.4167545,1.671229,-0.07654162,-0.1734463,1.721748,0.3969369,-0.1743829,1.703173,NA,NA,NotTracked,NotTracked,
