ALX,ALY,ALZ,ARX,ARY,ARZ,EMG0L,EMG1L,EMG2L,EMG3L,EMG4L,EMG5L,EMG6L,EMG7L,EMG0R,EMG1R,EMG2R,EMG3R,EMG4R,EMG5R,EMG6R,EMG7R,GLX,GLY,GLZ,GRX,GRY,GRZ,ORL,OPL,OYL,ORR,OPR,OYR,LHNX,LHNY,LHNZ,RHNX,RHNY,RHNZ,HX,HY,HZ,LTX,LTY,LTZ,RTX,RTY,RTZ,SpineMidX,SpineMidY,SpineMidZ,SpineBaseX,SpineBaseY,SpineBaseZ,ShoulderLeftX,ShoulderLeftY,ShoulderLeftZ,ShoulderRightX,ShoulderRightY,ShoulderRightZ,ElbowLeftX,ElbowLeftY,ElbowLeftZ,ElbowRightX,ElbowRightY,ElbowRightZ,Myo_Pose_left,Myo_Pose_Right,Kinect_pose_left,Kinect_pose_right
0.9331055,-0.3422852,0.001953125,0.9038086,0.3427734,0.1020508,0,-1,-1,-2,-2,-1,-1,-2,0,0,-2,-2,1,0,-5,-1,0.375,0.375,0.375,-0.75,-0.75,-0.75,2.508502,3.076274,7.889715,7.042726,3.114902,1.562724,-0.04663684,-0.4977064,1.636576,0.3208151,-0.4772944,1.594256,0.161072,0.3376304,1.714067,-0.00174894,-0.4764896,1.609491,0.2735943,-0.4511796,1.580929,0.1529527,-0.1168349,1.726793,0.1462096,-0.4276313,1.711754,-0.02224969,0.06696674,1.735143,0.06259388,-0.4180859,1.683968,-0.0738214,-0.1815595,1.740119,0.3717781,-0.1794151,1.702411,NA,NA,NotTracked,NotTracked,
0.9316406,-0.3554688,-0.001953125,0.9082031,0.3544922,0.1079102,-1,0,-2,-1,1,0,-1,-2,1,-1,0,-3,-1,0,-1,-2,-1.9375,-1.9375,-1.9375,0,0,0,2.506383,3.073592,7.890221,7.042726,3.114902,1.562724,-0.04631079,-0.498001,1.637354,0.3209753,-0.4778912,1.594442,0.1613131,0.3376157,1.713872,-0.001490334,-0.475803,1.609711,0.2735617,-0.4501179,1.581478,0.1530608,-0.1168419,1.726768,0.1463962,-0.427628,1.711705,-0.02209622,0.06702017,1.735022,0.06278992,-0.4180605,1.683966,-0.07358573,-0.1815146,1.740101,0.3719645,-0.1796178,1.702299,NA,NA,NotTracked,NotTracked,
0.9238281,-0.3588867,-0.01220703,0.9052734,0.3496094,0.1064453,-1,0,0,-1,-1,-1,0,1,-2,-2,0,0,-2,-2,-2,0,-0.4375,-0.4375,-0.4375,-0.125,-0.125,-0.125,2.500383,3.071671,7.894937,7.042726,3.114902,1.562724,-0.04604181,-0.4967778,1.637436,0.3217603,-0.4756125,1.595429,0.1615049,0.3376616,1.713784,-0.001700124,-0.4764331,1.60987,0.2736513,-0.4496309,1.581636,0.1530626,-0.1168256,1.726751,0.1464792,-0.4275901,1.711641,-0.02195321,0.06711002,1.734908,0.06286834,-0.418014,1.683895,-0.07337407,-0.181444,1.739954,0.3722622,-0.1797205,1.702159,NA,NA,NotTracked,NotTracked,
0.9248047,-0.3706055,-0.002929688,0.9042969,0.3520508,0.1079102,-1,-2,1,-1,-1,0,-1,0,1,0,-2,-2,1,0,0,-1,-1.0625,-1.0625,-1.0625,0.25,0.25,0.25,2.497175,3.071563,7.8977,7.040424,3.114587,1.565215,-0.04614897,-0.4969432,1.637203,0.3215753,-0.4777111,1.594577,0.1618556,0.337696,1.713677,-0.001843674,-0.4763524,1.609771,0.2739255,-0.4511439,1.581562,0.1532877,-0.1168045,1.726623,0.1465537,-0.4275777,1.711583,-0.02157123,0.06731182,1.734643,0.06293418,-0.4179861,1.683799,-0.07306472,-0.1812211,1.73979,0.3725279,-0.1798742,1.701948,NA,NA,NotTracked,NotTracked,
0.9375,-0.3466797,-0.005859375,0.8950195,0.3535156,0.09570313,0,-2,-2,0,1,-1,-1,-1,-2,-1,-1,-1,0,-1,-3,1,-0.6875,-0.6875,-0.6875,-0.5,-0.5,-0.5,2.490196,3.072018,7.904977,7.041152,3.114608,1.56449,-0.04601217,-0.4970892,1.63724,0.3212561,-0.4769299,1.59403,0.1620811,0.3378331,1.713627,-0.001239716,-0.4747981,1.609528,0.2736314,-0.4498637,1.581359,0.1536111,-0.116761,1.726535,0.1467133,-0.4275749,1.711576,-0.02137038,0.06740602,1.734463,0.06313099,-0.417978,1.683811,-0.07279743,-0.1811423,1.739617,0.3727268,-0.1799974,1.701856,NA,NA,NotTracked,NotTracked,
0.934082,-0.3574219,0.004882813,0.8989258,0.3491211,0.1044922,8,-1,-2,-1,-2,0,1,12,0,0,1,0,-2,-2,-2,-3,-1.5,-1.5,-1.5,-5.375,-5.375,-5.375,2.486818,3.072293,7.906815,7.037754,3.114502,1.563883,-0.04612136,-0.4970489,1.637552,0.3221455,-0.4775773,1.594287,0.162742,0.3379378,1.713374,-0.001495192,-0.476034,1.609801,0.2739315,-0.4495643,1.581711,0.1542628,-0.1167735,1.726373,0.1473292,-0.4276002,1.711538,-0.02071391,0.06757621,1.733987,0.06375781,-0.4179461,1.683716,-0.07256296,-0.1808516,1.73952,0.3733097,-0.1802064,1.701648,NA,NA,NotTracked,NotTracked,
0.9282227,-0.3530273,0.004394531,0.9077148,0.3579102,0.09423828,-3,-1,-2,0,-2,-2,0,-2,-1,0,-3,0,-1,1,-1,1,-0.4375,-0.4375,-0.4375,-6.9375,-6.9375,-6.9375,2.486818,3.072293,7.906815,7.037074,3.112751,1.555931,-0.04622983,-0.4974221,1.637889,0.3231352,-0.4752102,1.595474,0.16323,0.337977,1.713239,-0.001256199,-0.4750017,1.610118,0.2748287,-0.4481233,1.581695,0.1543298,-0.1167765,1.726351,0.1474646,-0.4275916,1.711507,-0.02033923,0.06769109,1.73392,0.06391167,-0.4179285,1.68368,-0.07236122,-0.1807011,1.739469,0.3734841,-0.1803133,1.701639,NA,NA,NotTracked,NotTracked,
0.9272461,-0.3505859,-0.0004882813,0.9287109,0.3798828,0.09082031,-3,0,-1,-1,-1,1,-1,-1,0,-3,-2,0,2,2,0,0,-0.75,-0.75,-0.75,-13.0625,-13.0625,-13.0625,2.486818,3.072293,7.906815,7.039659,3.112352,1.540819,-0.04578022,-0.4966505,1.636811,0.3245055,-0.4736937,1.59621,0.1635756,0.3378842,1.713045,-0.001369488,-0.4763758,1.609767,0.2755668,-0.4470309,1.58192,0.1545261,-0.1167073,1.726279,0.1475308,-0.4275867,1.711484,-0.01999585,0.06784481,1.733671,0.06396952,-0.4179109,1.683655,-0.07221328,-0.1804898,1.739417,0.3736985,-0.1804699,1.701577,NA,NA,NotTracked,NotTracked,
0.9326172,-0.3481445,0.0004882813,0.9169922,0.4477539,0.078125,-1,-2,0,-2,-1,-1,-2,-3,11,8,4,0,-2,0,5,13,1,1,1,-25.3125,-25.3125,-25.3125,2.488427,3.072595,7.905779,7.026531,3.120779,1.53039,-0.04598205,-0.4968736,1.636346,0.3240083,-0.4753978,1.594127,0.1640135,0.3377919,1.712851,0.001963381,-0.4856884,1.60823,0.2747474,-0.448893,1.581314,0.1547744,-0.1167137,1.726191,0.1477089,-0.4276098,1.711423,-0.01947959,0.06805988,1.73328,0.06414953,-0.4179193,1.683617,-0.07190391,-0.1802323,1.73906,0.374022,-0.1806111,1.701477,NA,NA,NotTracked,NotTracked,
0.9345703,-0.3486328,-0.001953125,0.9716797,0.4106445,0.1411133,-2,-1,-1,-1,-1,-1,-1,0,2,-2,0,1,4,2,0,0,0.9375,0.9375,0.9375,-54.8125,-54.8125,-54.8125,2.490076,3.072391,7.904815,6.956244,3.142906,1.546056,-0.04559483,-0.4965006,1.636069,0.3245817,-0.4749975,1.593707,0.1643923,0.337716,1.712779,0.0002689653,-0.474333,1.609248,0.2756192,-0.4481737,1.58134,0.1550913,-0.1166929,1.726049,0.147996,-0.4276343,1.711336,-0.01914093,0.06803741,1.733003,0.06437737,-0.4179606,1.683569,-0.07174599,-0.1802139,1.738822,0.3742229,-0.1806622,1.701401,NA,NA,NotTracked,NotTracked,
0.9345703,-0.3486328,-0.001953125,0.9716797,0.4106445,0.1411133,-2,-1,-1,-1,-1,-1,-1,0,2,-2,0,1,4,2,0,0,0.9375,0.9375,0.9375,-54.8125,-54.8125,-54.8125,2.490076,3.072391,7.904815,6.956244,3.142906,1.546056,-0.04567375,-0.4965626,1.637871,0.3245676,-0.4719979,1.593453,0.164693,0.3377139,1.712719,-0.0004980484,-0.477714,1.609991,0.2765023,-0.4467299,1.58268,0.1554349,-0.1166498,1.726025,0.1481907,-0.4276002,1.711312,-0.01896503,0.06815173,1.733017,0.06457181,-0.4179258,1.683537,-0.0714826,-0.1801279,1.738754,0.3748159,-0.1808117,1.701602,NA,NA,NotTracked,NotTracked,
0.9345703,-0.3520508,-0.00390625,1.006348,0.5004883,0.2382813,-2,-1,-2,0,-2,-1,-2,0,-9,-6,0,6,11,-4,-4,-5,2.3125,2.3125,2.3125,-15.1875,-15.1875,-15.1875,2.496238,3.074321,7.900249,6.878413,3.194618,1.601445,-0.04571125,-0.4967299,1.636123,0.323122,-0.4684452,1.586852,0.1649479,0.3377765,1.712667,0.00025491,-0.4708568,1.610067,0.2767393,-0.4477912,1.582474,0.1558868,-0.1165819,1.725933,0.1484782,-0.4275147,1.711251,-0.01859407,0.06837724,1.73285,0.06490718,-0.417796,1.683414,-0.07134567,-0.1798521,1.73863,0.3754335,-0.180804,1.701552,NA,NA,NotTracked,NotTracked,
0.9204102,-0.3603516,-0.01025391,1.01709,0.6567383,0.2841797,0,-2,-1,0,1,0,-1,-1,3,-7,3,5,16,7,-2,-7,0.5625,0.5625,0.5625,-21.1875,-21.1875,-21.1875,2.500634,3.076708,7.896619,6.783503,3.300803,1.689212,-0.04528092,-0.4965535,1.636364,0.3207813,-0.4592793,1.578537,0.1652413,0.3378077,1.712765,-0.0001771421,-0.4753589,1.610023,0.2780324,-0.4458564,1.583605,0.1559974,-0.116569,1.725937,0.1485507,-0.427518,1.711299,-0.01850657,0.06841458,1.732773,0.06498028,-0.4177781,1.683437,-0.07123969,-0.1798157,1.738592,0.3764072,-0.1807347,1.701942,NA,NA,NotTracked,NotTracked,
0.9223633,-0.3515625,-0.009765625,1.045898,0.6801758,0.453125,0,-1,-1,-1,-3,0,-1,-1,-6,0,-7,-6,7,-1,-1,-3,-0.6875,-0.6875,-0.6875,-48.3125,-48.3125,-48.3125,2.501232,3.077157,7.895465,6.654161,3.454891,1.784913,-0.04484291,-0.4959362,1.634804,0.3184082,-0.4419607,1.56453,0.1655224,0.3378179,1.712708,0.0002771682,-0.47786,1.608848,0.2781485,-0.456933,1.578362,0.1561638,-0.1165493,1.725816,0.1485924,-0.4274909,1.711218,-0.01833458,0.0684936,1.732676,0.06501753,-0.417736,1.683317,-0.07105724,-0.1797615,1.738283,0.3778549,-0.1804878,1.702387,NA,NA,NotTracked,NotTracked,
0.9257813,-0.3632813,-0.01074219,0.9833984,0.7666016,0.5551758,-1,-3,-2,-1,-1,-1,0,-1,0,2,1,8,1,8,9,4,-4.3125,-4.3125,-4.3125,-48.8125,-48.8125,-48.8125,2.498203,3.077646,7.894558,6.531758,3.656232,1.867611,-0.04474168,-0.495983,1.635692,0.314766,-0.4198167,1.546092,0.1656758,0.3378027,1.71275,-4.450107E-05,-0.474905,1.610019,0.2825139,-0.4213202,1.578657,0.1562448,-0.1165163,1.725782,0.1486006,-0.4274408,1.711145,-0.0181926,0.06856854,1.732651,0.06501785,-0.417641,1.683197,-0.07093763,-0.1796876,1.738212,0.3803379,-0.1799164,1.703906,NA,NA,NotTracked,NotTracked,
0.9389648,-0.3642578,-0.002441406,0.8686523,0.7470703,0.699707,-1,0,1,-1,0,-1,1,-2,0,-4,-6,-5,-7,-4,3,-1,-5.625,-5.625,-5.625,-55.4375,-55.4375,-55.4375,2.492691,3.078908,7.890964,6.427301,3.90676,1.928641,-0.04457866,-0.495804,1.635318,0.2818764,-0.3645904,1.522208,0.1661288,0.3377955,1.712789,-0.000290932,-0.4760463,1.609897,0.2734479,-0.4415136,1.557529,0.1562556,-0.1164963,1.725783,0.1481282,-0.4272881,1.711105,-0.0178559,0.06864172,1.732662,0.06436675,-0.4171795,1.683041,-0.07091815,-0.1795759,1.737936,0.3875826,-0.1781515,1.708604,NA,NA,NotTracked,NotTracked,
0.9306641,-0.3598633,0.004882813,0.4775391,0.7246094,0.6689453,-2,0,0,-2,1,0,-1,-2,-4,-5,-6,-5,-16,-4,-1,0,-4.9375,-4.9375,-4.9375,-39.1875,-39.1875,-39.1875,2.491552,3.079732,7.886482,6.315276,4.349562,1.991225,-0.04491886,-0.4963516,1.635145,0.2799284,-0.317822,1.480672,0.1663784,0.3378328,1.712909,0.0008233929,-0.4729746,1.609777,0.2676436,-0.3917568,1.527,0.1562422,-0.1164962,1.725789,0.1480452,-0.4272644,1.711091,-0.01751713,0.06873737,1.732543,0.06431217,-0.4171175,1.682991,-0.07080735,-0.1794435,1.737713,0.390875,-0.1701472,1.709804,NA,NA,NotTracked,NotTracked,
0.9262695,-0.3588867,0.006835938,0.3852539,0.7392578,0.6782227,-1,-1,-2,0,-2,-1,-2,1,7,1,-2,-2,-1,6,3,12,-7.0625,-7.0625,-7.0625,-32.625,-32.625,-32.625,2.490747,3.081269,7.879738,6.292623,4.508806,2.004204,-0.0437968,-0.4961879,1.634808,0.2742442,-0.2634243,1.438208,0.1667605,0.3378516,1.712997,0.001023915,-0.4706851,1.610373,0.2401679,-0.3031937,1.457131,0.1562181,-0.1164753,1.725811,0.1479523,-0.4271815,1.71107,-0.01721594,0.06877389,1.732443,0.06426171,-0.4170581,1.682946,-0.07060337,-0.1793982,1.737501,0.3922929,-0.1623502,1.708396,NA,NA,NotTracked,NotTracked,
0.9291992,-0.3696289,0.002929688,0.1772461,0.7192383,0.7304688,1,-4,-3,0,-1,-1,-1,-1,-8,-12,-11,-3,55,9,-1,-9,-4.9375,-4.9375,-4.9375,-28.125,-28.125,-28.125,2.491175,3.084695,7.872495,6.255509,4.838143,2.035733,-0.04344744,-0.4958104,1.633824,0.2646249,-0.2044897,1.419872,0.1672124,0.337717,1.713187,0.00145238,-0.4701417,1.610096,0.2236764,-0.2383475,1.428706,0.1562717,-0.1164414,1.725868,0.1480432,-0.4270576,1.711064,-0.01655968,0.06892893,1.732188,0.06436347,-0.4169638,1.68288,-0.07036898,-0.179153,1.737272,0.3970506,-0.1464416,1.700656,NA,NA,NotTracked,NotTracked,
0.9321289,-0.359375,-0.001464844,-0.007324219,0.65625,0.609375,-2,0,-1,-1,-3,-2,-2,-2,29,1,8,21,-19,-5,2,28,-1.3125,-1.3125,-1.3125,-17.75,-17.75,-17.75,2.495704,3.089684,7.865108,6.233681,5.172291,2.064547,-0.04266596,-0.4956401,1.632194,0.2602472,-0.1430768,1.410001,0.1675378,0.3375463,1.713294,0.003056052,-0.4574295,1.6084,0.2165419,-0.1657785,1.4183,0.1563616,-0.1164185,1.725913,0.1480761,-0.4269394,1.711026,-0.01606687,0.06887986,1.731995,0.06437631,-0.4168676,1.682903,-0.07015681,-0.1791517,1.736978,0.4034058,-0.1421359,1.679534,NA,NA,NotTracked,NotTracked,
0.9350586,-0.3564453,0.008300781,-0.2353516,0.5952148,0.6469727,-1,0,6,0,0,-1,0,-1,-1,-3,-10,-10,-21,-13,-4,-6,-0.3125,-0.3125,-0.3125,-4,-4,-4,2.505565,3.095045,7.853951,6.236248,5.503841,2.109619,-0.04150931,-0.4954103,1.631007,0.255534,-0.0243838,1.420228,0.1684255,0.3373609,1.713973,0.001922003,-0.4699805,1.609392,0.2482944,-0.0464392,1.387148,0.1566397,-0.1162495,1.72646,0.1482977,-0.4266019,1.711332,-0.01540133,0.06883797,1.731926,0.06480602,-0.4166089,1.683512,-0.06976489,-0.1791669,1.736573,0.3967856,-0.1495896,1.63711,NA,NA,NotTracked,NotTracked,
0.9355469,-0.3520508,-0.004882813,-0.3525391,0.5551758,0.5932617,0,3,0,6,-2,-1,1,-1,16,21,8,10,31,0,-3,6,0.3125,0.3125,0.3125,21.8125,21.8125,21.8125,2.512277,3.101171,7.846536,6.278041,5.822769,2.167423,-0.04041506,-0.4949807,1.629007,0.2618529,0.02009976,1.439034,0.1690474,0.3372853,1.714311,0.002021364,-0.4687781,1.608801,0.2776241,0.04387034,1.39625,0.1568121,-0.1163499,1.726707,0.148543,-0.4267828,1.71153,-0.01491519,0.06876117,1.732055,0.06522264,-0.4169553,1.683978,-0.06953932,-0.1792169,1.736373,0.3907878,-0.1429804,1.614438,NA,NA,NotTracked,NotTracked,
0.9360352,-0.3608398,-0.007324219,-0.5439453,0.527832,0.5751953,-1,-2,2,-1,0,-1,-1,-1,-31,-5,-1,6,5,-10,-5,-19,0.9375,0.9375,0.9375,22.5625,22.5625,22.5625,2.51921,3.105362,7.838984,6.346092,6.121977,2.247027,-0.04026471,-0.4946189,1.62885,0.2559083,0.08149116,1.447336,0.1691455,0.3372543,1.714733,0.002236352,-0.4688523,1.608838,0.2580658,0.1297484,1.465909,0.1567219,-0.1167433,1.726955,0.1484845,-0.4277889,1.711473,-0.01437066,0.06834262,1.732192,0.06502197,-0.4181911,1.684786,-0.06944361,-0.1795626,1.73618,0.38405,-0.1290461,1.594287,NA,NA,NotTracked,NotTracked,
0.9365234,-0.3544922,-0.01074219,-0.6450195,0.4335938,0.4580078,-2,-3,-7,-1,-1,0,-2,-1,-2,-8,-1,12,-2,-1,0,-3,-1.125,-1.125,-1.125,25.1875,25.1875,25.1875,2.517508,3.108759,7.839913,6.455981,6.398622,2.359545,-0.03940265,-0.4944591,1.627971,0.2695948,0.1008075,1.476011,0.1690164,0.3372722,1.715019,0.003244444,-0.4687237,1.608215,0.2902333,0.1463275,1.459379,0.1565048,-0.1168378,1.727096,0.1483554,-0.4278886,1.711464,-0.01396472,0.06838996,1.732489,0.06460881,-0.4184209,1.685441,-0.06898701,-0.1795938,1.73574,0.3840726,-0.1218984,1.586517,NA,NA,NotTracked,NotTracked,
0.9282227,-0.3676758,-0.009765625,-0.668457,0.328125,0.3574219,-1,-1,-2,-2,0,-2,-2,0,3,4,0,4,14,3,1,5,-0.9375,-0.9375,-0.9375,14.5,14.5,14.5,2.517734,3.110415,7.83889,6.617049,6.637849,2.533916,-0.03878888,-0.4941668,1.627095,0.2703325,0.1360763,1.494923,0.1686848,0.3374113,1.715408,0.00873882,-0.4900051,1.603308,0.2995301,0.1717514,1.481121,0.1566431,-0.1167435,1.727059,0.148038,-0.4277248,1.711419,-0.01333114,0.06835895,1.732805,0.06397877,-0.4181825,1.685845,-0.06783643,-0.1797598,1.73583,0.3833001,-0.1106127,1.57673,NA,NA,NotTracked,NotTracked,
0.9223633,-0.3691406,-0.01220703,-0.7143555,0.2802734,0.2143555,-1,-1,-1,0,0,-2,0,-2,9,-5,-7,-5,10,3,1,9,5.1875,5.1875,5.1875,14,14,14,2.509566,3.112688,7.852307,6.852572,6.822066,2.781925,-0.03893728,-0.4940686,1.628996,0.2782073,0.1699732,1.53372,0.1684749,0.3375963,1.715757,0.006316842,-0.4701162,1.606732,0.3065028,0.207855,1.522636,0.1589987,-0.1131307,1.72748,0.1471023,-0.4267665,1.711378,-0.01151278,0.06872796,1.733759,0.06279654,-0.417087,1.686414,-0.06557232,-0.179564,1.735971,0.3797839,-0.08474313,1.555894,NA,NA,NotTracked,NotTracked,
0.9223633,-0.3735352,-0.00390625,-0.8881836,0.222168,0.2880859,-1,-2,-1,-2,-1,1,-2,-1,11,-14,-3,2,10,2,-4,6,8.0625,8.0625,8.0625,-5.1875,-5.1875,-5.1875,2.505988,3.114075,7.864648,7.115261,6.934413,3.067516,-0.03917741,-0.4940922,1.627738,0.2801412,0.1721166,1.54501,0.1684006,0.3376046,1.715907,0.006013865,-0.4712702,1.606209,0.3049004,0.2164312,1.536853,0.1597253,-0.1123115,1.727539,0.1466239,-0.4264296,1.711275,-0.01035419,0.06874167,1.734127,0.06226651,-0.4167283,1.686513,-0.06526344,-0.1793881,1.736058,0.3769207,-0.07382249,1.547679,NA,NA,NotTracked,NotTracked,
0.9189453,-0.3691406,-0.01269531,-0.6235352,0.3452148,-0.2119141,0,-2,-1,-1,0,-1,-2,-1,-15,11,6,6,-12,1,1,-11,6.0625,6.0625,6.0625,3.6875,3.6875,3.6875,2.501707,3.115203,7.877287,7.357695,6.966397,3.326988,-0.03911317,-0.4938859,1.628722,0.2565491,0.2153531,1.573935,0.168387,0.3375236,1.715974,0.006843848,-0.4679304,1.606616,0.3019083,0.2349997,1.545308,0.1600358,-0.1118319,1.727594,0.1462026,-0.426116,1.711124,-0.00953433,0.06860672,1.734262,0.06174785,-0.4163518,1.686584,-0.06500913,-0.1793954,1.736239,0.3753051,-0.06290922,1.538527,NA,NA,NotTracked,NotTracked,
0.9296875,-0.3881836,0.009277344,-1.024414,0.3081055,0.06542969,-2,-1,-1,-1,-2,-2,-2,-2,26,14,11,1,2,-1,0,4,6.3125,6.3125,6.3125,0.1875,0.1875,0.1875,2.501424,3.116442,7.884794,7.520634,6.977286,3.493631,-0.03973215,-0.4943792,1.628667,0.2500951,0.2241336,1.5808,0.1684453,0.3374391,1.716017,0.006008442,-0.472828,1.605971,0.2959493,0.2397448,1.547467,0.1600276,-0.1118479,1.727561,0.1455965,-0.425741,1.710916,-0.008712397,0.06883279,1.73451,0.06108384,-0.4159125,1.686721,-0.06476508,-0.1790426,1.736511,0.3738347,-0.05783309,1.534991,NA,NA,NotTracked,NotTracked,
0.9311523,-0.3959961,0.002441406,-0.8549805,0.3017578,0.04248047,-1,-1,0,-2,-1,-2,-1,0,-22,-3,0,1,-16,-7,-3,-13,4.5625,4.5625,4.5625,-12,-12,-12,2.499765,3.116621,7.893358,7.569583,6.97629,3.558835,-0.0395614,-0.4946738,1.629644,0.2425549,0.2376751,1.589834,0.168478,0.3373204,1.716089,0.006255669,-0.4703228,1.606341,0.1730006,0.223834,1.614875,0.16083,-0.1110466,1.727657,0.1454371,-0.4253783,1.710755,-0.008056761,0.06890587,1.734823,0.0609569,-0.4156315,1.68675,-0.06459996,-0.1788573,1.736868,0.3724129,-0.05272188,1.530864,NA,NA,NotTracked,NotTracked,
0.9111328,-0.387207,0.001953125,-0.9311523,0.3339844,0.01611328,-2,-2,-3,0,0,0,-2,-1,18,-5,-6,-8,-12,-2,0,13,2.75,2.75,2.75,-11.4375,-11.4375,-11.4375,2.499848,3.116261,7.89749,7.590189,6.979789,3.596385,-0.04020539,-0.4947636,1.630204,0.235449,0.2484022,1.596195,0.1684861,0.3371437,1.71656,0.006127502,-0.4707263,1.605883,0.1857626,0.2233912,1.631879,0.1617906,-0.1099669,1.727775,0.1452827,-0.4250174,1.710671,-0.007132566,0.06912339,1.735268,0.06080915,-0.4152501,1.686941,-0.06439031,-0.1785015,1.737081,0.369355,-0.04800466,1.526713,NA,NA,NotTracked,NotTracked,
0.9179688,-0.3896484,0.007324219,-0.9492188,0.3422852,-0.001953125,-1,-2,0,-1,-1,-1,-2,-1,1,15,0,6,31,0,3,2,-3.1875,-3.1875,-3.1875,-7.875,-7.875,-7.875,2.498771,3.116925,7.896776,7.599015,6.988222,3.616081,-0.03989518,-0.4944399,1.630493,0.2337838,0.2515025,1.598987,0.168573,0.3370567,1.717223,0.005967353,-0.471809,1.605958,0.1760788,0.2226272,1.621303,0.1621104,-0.1097122,1.727861,0.145224,-0.424927,1.710648,-0.006742495,0.06917278,1.735543,0.06073737,-0.4151231,1.687066,-0.0643667,-0.1783769,1.737264,0.3677841,-0.04610345,1.525307,NA,NA,NotTracked,NotTracked,
0.9199219,-0.3999023,0.009765625,-0.9541016,0.3305664,0.005371094,-1,1,0,-1,0,1,-2,-1,2,-4,-3,-7,-7,10,-1,0,-3.6875,-3.6875,-3.6875,-6.875,-6.875,-6.875,2.494959,3.118056,7.89666,7.589781,6.995254,3.616064,-0.04035617,-0.4946976,1.630895,0.2329935,0.2556329,1.60042,0.1687042,0.3367754,1.717564,0.00599541,-0.4726476,1.606115,0.175679,0.2228822,1.621989,0.1624336,-0.1095152,1.727919,0.1451914,-0.4248606,1.710613,-0.006236812,0.06914287,1.735705,0.0607185,-0.4150445,1.687137,-0.06444083,-0.1782644,1.737529,0.3666041,-0.04583357,1.525059,NA,NA,NotTracked,NotTracked,
0.9199219,-0.3955078,0.003417969,-0.9462891,0.3466797,-0.0009765625,-3,-1,-2,-1,-1,-2,0,0,-3,11,7,4,18,-1,0,-1,0.75,0.75,0.75,-3.8125,-3.8125,-3.8125,2.493742,3.120495,7.897647,7.57508,6.997977,3.604846,-0.04113571,-0.4941938,1.631611,0.2433675,0.2409569,1.591673,0.1687503,0.3367057,1.717788,0.005979148,-0.4723265,1.606223,0.1885671,0.2233825,1.638259,0.1626517,-0.1092678,1.727981,0.1451243,-0.4247048,1.710521,-0.006087448,0.06916609,1.735966,0.06066388,-0.4149042,1.687183,-0.06443901,-0.1782187,1.73766,0.3648518,-0.04430041,1.524109,NA,NA,NotTracked,NotTracked,
0.9160156,-0.3823242,0.002441406,-0.9575195,0.3295898,0.0004882813,-1,-1,0,-2,-3,-1,-3,0,-10,-11,-6,-10,-16,-1,-1,-1,0.25,0.25,0.25,-1.9375,-1.9375,-1.9375,2.494122,3.12302,7.898025,7.56475,6.998237,3.597545,-0.04163393,-0.4944392,1.631168,0.2528884,0.2282038,1.580935,0.1688198,0.3364855,1.718161,0.005809856,-0.4727303,1.606132,0.1794495,0.2166437,1.636286,0.1628558,-0.1090954,1.727964,0.1450728,-0.4245968,1.710377,-0.006182279,0.0692061,1.735738,0.06062667,-0.4148615,1.687178,-0.06451736,-0.1781522,1.73783,0.3638313,-0.04391725,1.523598,NA,NA,NotTracked,NotTracked,
0.9174805,-0.3920898,0.0078125,-0.9741211,0.315918,-0.01904297,0,-1,2,0,-2,-2,0,-1,0,-7,2,4,-4,-7,-3,-6,-1.25,-1.25,-1.25,2,2,2,2.496174,3.126423,7.895069,7.550271,6.998451,3.582162,-0.04252468,-0.4912198,1.630563,0.2538298,0.2284077,1.58062,0.1690926,0.3361977,1.718741,0.005525834,-0.4711037,1.606451,0.1844012,0.217464,1.64375,0.1630821,-0.1089821,1.728073,0.1449082,-0.4244316,1.710281,-0.005505859,0.06937147,1.736249,0.06045123,-0.4146615,1.687238,-0.06439647,-0.1778709,1.738211,0.3623761,-0.04386795,1.523627,NA,NA,NotTracked,Unknown,
0.9204102,-0.3828125,-0.0004882813,-0.9770508,0.2856445,-0.004882813,-3,-1,0,-2,-2,0,0,-1,-3,-10,1,11,2,-6,-1,0,-1.5,-1.5,-1.5,5.875,5.875,5.875,2.498291,3.128694,7.891322,7.531759,7.000141,3.557112,-0.04176216,-0.4935093,1.629541,0.2499526,0.23114,1.583289,0.1690984,0.3361267,1.719001,0.005732508,-0.4726982,1.606182,0.1841824,0.2184934,1.634896,0.162862,-0.1093595,1.727933,0.1447408,-0.4243932,1.71022,-0.005702827,0.06947038,1.736056,0.06027636,-0.4146082,1.687317,-0.06431313,-0.1778155,1.738328,0.3617602,-0.04283344,1.522816,NA,NA,NotTracked,Unknown,
0.9208984,-0.3847656,0.001953125,-0.9697266,0.3076172,0.0625,-1,-2,0,0,0,-3,-1,0,-3,1,0,-12,0,4,2,-1,-2.625,-2.625,-2.625,1.375,1.375,1.375,2.499015,3.129189,7.887641,7.510509,7.000074,3.533023,-0.04161773,-0.4939929,1.629894,0.2552273,0.2271094,1.577642,0.1691852,0.3359758,1.719258,0.005778319,-0.4726569,1.60623,0.2391361,0.1838571,1.600357,0.1629847,-0.1092653,1.728122,0.144691,-0.4242862,1.710216,-0.005409468,0.06945123,1.736324,0.06022028,-0.4144696,1.687454,-0.06429801,-0.1777909,1.738345,0.361313,-0.04210631,1.522406,NA,NA,NotTracked,Unknown,
0.9189453,-0.3764648,-0.0009765625,-0.9716797,0.2910156,0.05273438,-1,0,0,-1,0,0,0,0,7,-1,-2,-1,8,-2,-2,5,-1.9375,-1.9375,-1.9375,-1.1875,-1.1875,-1.1875,2.501092,3.130167,7.882766,7.518905,7.005018,3.54592,-0.0409418,-0.494672,1.629489,0.2558341,0.2273169,1.577495,0.1691561,0.3360098,1.719446,0.00695569,-0.4740392,1.605218,0.2214258,0.21547,1.566375,0.16305,-0.1090589,1.728224,0.1445571,-0.4241289,1.710202,-0.005247429,0.06942331,1.736435,0.06007285,-0.4142969,1.687556,-0.0643131,-0.1777801,1.738429,0.3611369,-0.04203012,1.522367,NA,NA,NotTracked,Unknown,
0.9174805,-0.3823242,0.0004882813,-0.9648438,0.2978516,0.07080078,-1,-4,-1,0,-1,-1,0,-3,-10,-32,-4,7,18,7,4,0,-1.8125,-1.8125,-1.8125,-2.0625,-2.0625,-2.0625,2.503378,3.130255,7.877807,7.537368,7.007252,3.567933,-0.04072872,-0.4936731,1.62744,0.2454897,0.2386166,1.589209,0.1691391,0.3359941,1.719469,0.005812096,-0.4723845,1.605811,0.1788694,0.2194175,1.629087,0.1631658,-0.1089854,1.728223,0.144485,-0.4240679,1.710153,-0.005495164,0.0694606,1.73616,0.06000159,-0.4142457,1.687575,-0.06438038,-0.1777662,1.738418,0.3607418,-0.04168248,1.522091,NA,NA,NotTracked,Unknown,
0.9145508,-0.3769531,-0.001464844,-0.9243164,0.3100586,-0.01416016,-1,-2,-1,-2,-1,-1,-1,0,3,-4,-6,0,17,-1,-1,3,-0.375,-0.375,-0.375,-12.4375,-12.4375,-12.4375,2.506878,3.129436,7.873436,7.633928,7.007658,3.688222,-0.04114478,-0.4939419,1.628368,0.2507925,0.2295421,1.587928,0.1691296,0.3359389,1.719588,0.005767643,-0.4728787,1.606242,0.1783958,0.2185296,1.630808,0.163571,-0.1083839,1.728277,0.1444347,-0.4239979,1.710168,-0.00519009,0.06942756,1.736414,0.05995178,-0.4141583,1.687794,-0.06439441,-0.1777444,1.73845,0.3595558,-0.04047236,1.521669,NA,NA,NotTracked,Unknown,
0.9150391,-0.3735352,0.002929688,-0.9277344,0.2797852,-0.1674805,0,-1,-1,-2,-1,-1,-1,-1,8,-7,-5,-2,27,5,-1,9,-0.625,-0.625,-0.625,-1.5625,-1.5625,-1.5625,2.509319,3.12713,7.870232,7.665617,7.008362,3.726955,-0.04022172,-0.4940247,1.628287,0.2487195,0.2332123,1.590827,0.1690957,0.3358234,1.719816,0.005766925,-0.4728442,1.606224,0.1843166,0.2162491,1.643,0.1636408,-0.1083888,1.728331,0.1444148,-0.4240211,1.710161,-0.005024921,0.06929463,1.73653,0.05990271,-0.4141991,1.687858,-0.06437637,-0.1778458,1.738522,0.3588647,-0.04020552,1.521926,NA,NA,NotTracked,Unknown,
0.9243164,-0.378418,-0.004394531,-0.996582,0.3291016,-0.03857422,-1,-1,-3,-1,-1,-2,0,-1,3,4,3,6,6,2,0,-1,1.5,1.5,1.5,0.5,0.5,0.5,2.51336,3.12572,7.866878,7.608657,7.006033,3.658835,-0.04091237,-0.4887578,1.630321,0.2523556,0.2233432,1.586071,0.1690267,0.3358425,1.720003,0.007407667,-0.4929227,1.605237,0.2338203,0.184621,1.613615,0.163416,-0.1087966,1.728221,0.144378,-0.4240506,1.710169,-0.004940643,0.0691995,1.736694,0.05982621,-0.4142403,1.687992,-0.06442277,-0.1779231,1.738521,0.3584816,-0.04013062,1.521914,NA,NA,NotTracked,Unknown,
0.9321289,-0.3803711,-0.006347656,-1.035645,0.2558594,-0.004394531,-2,-1,1,-2,0,-1,0,-1,-7,-4,-6,-8,17,1,0,-8,3.0625,3.0625,3.0625,10.8125,10.8125,10.8125,2.520416,3.124903,7.862342,7.522365,7.004807,3.563752,-0.04025453,-0.4911854,1.629824,0.2543444,0.2192131,1.580685,0.1689779,0.3358745,1.720166,0.006048147,-0.4659453,1.606609,0.2293686,0.1877332,1.6364,0.1635784,-0.1086515,1.728408,0.1443692,-0.4240183,1.710255,-0.004871528,0.06915872,1.736932,0.05984483,-0.4141878,1.688183,-0.06448317,-0.1779377,1.738702,0.3580867,-0.03996198,1.521812,NA,NA,NotTracked,Unknown,
0.9262695,-0.3793945,0.002441406,-0.9672852,0.34375,0.1381836,-1,0,-1,0,1,-2,-2,-2,2,13,11,11,-26,-8,-2,3,-0.0625,-0.0625,-0.0625,7.0625,7.0625,7.0625,2.52371,3.122905,7.859542,7.460566,6.999843,3.489677,-0.04035302,-0.4945664,1.630267,0.2356373,0.2446129,1.594916,0.1689901,0.3358258,1.720266,0.006206317,-0.4733211,1.606498,0.1867634,0.2187785,1.648138,0.1636702,-0.108526,1.72863,0.1443481,-0.4240092,1.710299,-0.004769885,0.0691826,1.737148,0.05983232,-0.4141893,1.688297,-0.06443368,-0.1779088,1.73884,0.3579172,-0.0399811,1.521868,NA,NA,NotTracked,Unknown,
0.9155273,-0.3881836,-0.006347656,-0.9140625,0.3227539,0.140625,-2,0,1,0,1,-2,0,-2,-6,-14,-5,-7,6,4,-2,0,-1.375,-1.375,-1.375,-16.8125,-16.8125,-16.8125,2.521739,3.120937,7.859919,7.474441,6.999469,3.520739,-0.04042413,-0.4890097,1.631895,0.2319384,0.2483687,1.595823,0.168787,0.3357488,1.720453,0.007255314,-0.4716468,1.60581,0.1825433,0.2177322,1.645403,0.1638402,-0.1083819,1.728769,0.144309,-0.4239911,1.710347,-0.004637113,0.06906587,1.737426,0.05977936,-0.4141604,1.688488,-0.06445611,-0.1779995,1.738987,0.3570812,-0.04007376,1.521957,NA,NA,NotTracked,Unknown,
0.9208984,-0.3935547,-0.004882813,-0.9018555,0.2998047,-0.01074219,-1,-1,1,-1,-3,-3,-2,-1,15,5,3,-3,-1,2,4,11,2.0625,2.0625,2.0625,-17.75,-17.75,-17.75,2.518184,3.118795,7.864964,7.580924,7.002853,3.653706,-0.03909769,-0.4946261,1.631817,0.2416176,0.2393251,1.593377,0.168473,0.3358018,1.720605,0.006704183,-0.4686283,1.607383,0.1764997,0.2166801,1.636833,0.1638945,-0.1082573,1.728828,0.1442697,-0.4239607,1.710445,-0.004634167,0.06897939,1.737583,0.05973571,-0.4141392,1.688722,-0.06450731,-0.1780702,1.739173,0.3564469,-0.03973189,1.521939,NA,NA,NotTracked,Unknown,
0.9248047,-0.3857422,-0.004394531,-0.9951172,0.3066406,-0.1191406,-1,-1,0,0,-1,-3,0,0,-16,2,-2,2,15,1,-4,-9,2.75,2.75,2.75,16.8125,16.8125,16.8125,2.516586,3.117743,7.868093,7.645322,7.007668,3.711147,-0.03953227,-0.494871,1.631794,0.2634852,0.1902217,1.569895,0.1683594,0.3357354,1.720593,0.006610135,-0.4714967,1.60689,0.2244933,0.2026,1.556187,0.1639659,-0.1082067,1.728882,0.1442749,-0.4240359,1.710566,-0.004610089,0.06894454,1.737712,0.05979287,-0.4142612,1.688965,-0.06435517,-0.1781351,1.73932,0.3555933,-0.03949144,1.522052,NA,NA,NotTracked,Unknown,
0.9282227,-0.375,0.0004882813,-1.035156,0.340332,-0.05761719,-2,0,-3,0,-2,-2,-1,0,0,6,2,10,34,5,1,4,2.8125,2.8125,2.8125,-5,-5,-5,2.514895,3.116258,7.873995,7.595194,7.00366,3.660822,-0.03950277,-0.4952592,1.632413,0.2391929,0.2303242,1.591898,0.1682309,0.3356978,1.720607,0.00657196,-0.4718762,1.607049,0.2305918,0.1844998,1.615125,0.1639929,-0.1081988,1.728895,0.1442749,-0.4240724,1.710595,-0.004555953,0.06885383,1.73778,0.05980117,-0.4143313,1.689094,-0.06435367,-0.1782054,1.739482,0.3551519,-0.03963633,1.522122,NA,NA,NotTracked,Unknown,
0.9243164,-0.390625,-0.0009765625,-1.019531,0.2373047,-0.002929688,-2,-2,1,0,-2,0,0,1,-3,-2,1,11,0,-5,-2,-8,1.0625,1.0625,1.0625,13.5,13.5,13.5,2.515145,3.116624,7.875585,7.487184,7.001617,3.540311,-0.03940819,-0.4951408,1.632288,0.2415471,0.2295916,1.582616,0.1680835,0.3355719,1.720551,0.00677371,-0.4718902,1.607124,0.2220132,0.1975207,1.641143,0.164015,-0.108154,1.728982,0.1441681,-0.424164,1.710748,-0.004582027,0.06884176,1.73804,0.05969124,-0.4143983,1.689335,-0.06419966,-0.1782567,1.739807,0.3544356,-0.03948989,1.521983,NA,NA,NotTracked,Unknown,
0.921875,-0.3823242,0.0078125,-0.9077148,0.371582,0.2041016,0,-1,-7,-4,-2,0,-1,0,12,2,1,-5,-22,-3,-1,1,-0.8125,-0.8125,-0.8125,-4.5625,-4.5625,-4.5625,2.51581,3.116748,7.874915,7.404607,6.98947,3.445489,-0.03934549,-0.4954031,1.633639,0.2458823,0.2239671,1.57507,0.1680225,0.3355561,1.720561,0.006661544,-0.4737172,1.606699,0.227356,0.1894501,1.6257,0.1640069,-0.1082448,1.729205,0.144146,-0.4242998,1.711006,-0.00468888,0.06889196,1.738374,0.05968916,-0.4145966,1.689876,-0.06428328,-0.178225,1.739949,0.3473632,-0.02869404,1.515921,NA,NA,NotTracked,NotTracked,
0.9213867,-0.3867188,-0.0009765625,-0.9199219,0.331543,0.1044922,-1,-2,-1,0,-2,-1,-3,-2,5,-13,-7,-12,-38,-6,0,5,-1,-1,-1,-23,-23,-23,2.51053,3.117234,7.879227,7.46735,6.994474,3.53893,-0.03951038,-0.4952474,1.632168,0.2451031,0.2246113,1.57442,0.1679541,0.335445,1.7205,0.006675388,-0.4729354,1.606776,0.2218303,0.1933166,1.612,0.163995,-0.1083048,1.729251,0.1441445,-0.424392,1.711076,-0.004623701,0.06885398,1.738402,0.05969746,-0.4147253,1.690029,-0.06436478,-0.1782095,1.740176,0.3478799,-0.03133023,1.517403,NA,NA,NotTracked,NotTracked,
0.9257813,-0.3745117,0.01025391,-0.9448242,0.3164063,0.02392578,-1,0,-1,-1,1,-1,-3,0,-2,-12,-2,-9,-6,-2,-7,-2,3.5,3.5,3.5,-22.625,-22.625,-22.625,2.511092,3.11741,7.882046,7.53405,7.000051,3.622914,-0.03938574,-0.4951592,1.633234,0.2396001,0.238438,1.586563,0.1678463,0.3352925,1.720399,0.006701253,-0.4731305,1.606791,0.174932,0.2148982,1.636445,0.1640073,-0.1082782,1.729295,0.1440423,-0.4244214,1.711175,-0.004668128,0.06882707,1.738549,0.05957546,-0.4147408,1.690211,-0.064386,-0.1782278,1.740475,0.3480755,-0.03339328,1.518961,NA,NA,NotTracked,NotTracked,
0.9291992,-0.3735352,0.01220703,-0.9326172,0.3076172,-0.1132813,-1,1,2,-1,-3,-1,1,1,-5,14,7,7,3,6,1,-2,2.5,2.5,2.5,23.1875,23.1875,23.1875,2.511454,3.117104,7.883368,7.673257,7.012436,3.758657,-0.03999701,-0.4950555,1.633261,0.2483761,0.2146263,1.57881,0.1677283,0.3352134,1.720279,0.006553079,-0.4740081,1.60658,0.2273788,0.1865122,1.608333,0.164038,-0.1082429,1.729328,0.1441039,-0.4244511,1.711273,-0.004640529,0.06882871,1.7386,0.05968526,-0.4147758,1.690388,-0.06441092,-0.178196,1.740727,0.3478814,-0.03394675,1.51939,NA,NA,NotTracked,NotTracked,
0.9165039,-0.3764648,-0.007324219,-0.9550781,0.3657227,-0.03515625,-1,-2,-3,-1,-1,-1,0,-2,7,-5,-5,-4,-10,3,3,6,-0.25,-0.25,-0.25,-8.0625,-8.0625,-8.0625,2.510215,3.116708,7.8853,7.643566,7.00387,3.732712,-0.04010778,-0.4951688,1.63425,0.2487981,0.2130722,1.579872,0.1676389,0.3351556,1.720249,0.006445908,-0.4737952,1.606961,0.2236093,0.1854759,1.619733,0.1640878,-0.1082587,1.729461,0.1441154,-0.424626,1.711496,-0.004604752,0.06883214,1.738851,0.05968441,-0.4149477,1.690725,-0.06432799,-0.1781839,1.741206,0.3476623,-0.03457008,1.519967,NA,NA,NotTracked,NotTracked,
0.9121094,-0.3823242,0.004882813,-0.9765625,0.2915039,0.03076172,-2,-2,0,-1,0,-1,-2,-1,-2,-10,-6,0,-24,-8,-4,0,-0.25,-0.25,-0.25,5.0625,5.0625,5.0625,2.51016,3.117209,7.885378,7.592561,6.995514,3.682327,-0.04009402,-0.495104,1.634391,0.2468704,0.2148979,1.579158,0.1675102,0.3351399,1.720306,0.00645103,-0.4737966,1.60684,0.1691981,0.2643529,1.594857,0.1641212,-0.1082166,1.729507,0.1441223,-0.4246369,1.711628,-0.004636727,0.06879816,1.738955,0.05970184,-0.4149649,1.690825,-0.06440235,-0.178202,1.741369,0.3475229,-0.0345492,1.520061,NA,NA,NotTracked,NotTracked,
0.9248047,-0.387207,0.01171875,-0.9643555,0.3291016,0.03808594,0,-2,-2,-2,-4,-2,-1,-1,-23,-1,1,-2,-8,-4,-4,-18,1.1875,1.1875,1.1875,-0.625,-0.625,-0.625,2.510872,3.117681,7.885372,7.573254,6.992035,3.660811,-0.04066879,-0.4952167,1.634518,0.2221955,0.2467497,1.600306,0.167395,0.3351187,1.720201,0.007308567,-0.4616826,1.60695,0.1899706,0.2122707,1.665238,0.1641338,-0.1081922,1.729551,0.1441378,-0.4247024,1.711712,-0.004641166,0.06872994,1.739152,0.05972505,-0.415057,1.691022,-0.06453837,-0.1782394,1.741538,0.3474824,-0.03448579,1.520171,NA,NA,NotTracked,NotTracked,
0.9360352,-0.3798828,0.003417969,-0.9707031,0.300293,-0.03417969,-1,1,2,0,-3,-2,1,-1,1,1,-7,-13,-35,-10,-3,11,2.5625,2.5625,2.5625,-1.1875,-1.1875,-1.1875,2.512095,3.118248,7.887147,7.588017,6.996784,3.679536,-0.04105979,-0.4947311,1.634492,0.2278135,0.2441403,1.594638,0.1673345,0.3350636,1.720115,0.006607898,-0.471043,1.606821,0.1920855,0.21039,1.666202,0.1640552,-0.1082229,1.729629,0.1439113,-0.4248222,1.711895,-0.004627105,0.06868444,1.739234,0.05948239,-0.415154,1.691385,-0.06459314,-0.1782631,1.741675,0.3474322,-0.03461375,1.520298,NA,NA,NotTracked,NotTracked,
0.9194336,-0.3828125,0.005371094,-0.9467773,0.3149414,-0.02587891,0,-2,-1,-1,1,-2,-2,-1,15,8,3,2,0,-1,-1,8,-0.3125,-0.3125,-0.3125,-1.125,-1.125,-1.125,2.514531,3.117629,7.885411,7.572557,6.999423,3.660398,-0.04150102,-0.4956488,1.636187,0.236309,0.2331105,1.590487,0.1672869,0.3350452,1.720123,0.006481136,-0.4717346,1.607428,0.224985,0.1865215,1.61825,0.1640553,-0.1081635,1.729707,0.1439051,-0.4248511,1.712034,-0.004655785,0.06867376,1.739391,0.05948089,-0.4151767,1.691562,-0.06459519,-0.1782748,1.741893,0.3472872,-0.03503032,1.520771,NA,NA,NotTracked,NotTracked,
0.9140625,-0.3808594,0.002929688,-0.9277344,0.315918,0.0004882813,-1,0,-3,-2,-1,0,-1,0,-1,-2,1,-2,14,-2,0,-4,-2.5625,-2.5625,-2.5625,-0.0625,-0.0625,-0.0625,2.51431,3.116039,7.882898,7.544136,6.99717,3.631437,-0.04066512,-0.4953221,1.635382,0.2433278,0.2180982,1.581269,0.1671955,0.3351008,1.720105,0.006627904,-0.45955,1.60875,0.2215102,0.1854967,1.60926,0.1640336,-0.1080893,1.729752,0.1437857,-0.4248777,1.712156,-0.004781856,0.06862469,1.739678,0.05935202,-0.4151866,1.691769,-0.06472093,-0.1783355,1.742036,0.3472275,-0.0354594,1.521234,NA,NA,NotTracked,NotTracked,
0.9174805,-0.378418,0.0004882813,-0.9306641,0.3134766,0.003417969,-1,0,-2,-1,-2,-2,-3,0,-3,1,-2,-5,6,-3,-2,0,-0.5,-0.5,-0.5,-0.5625,-0.5625,-0.5625,2.514163,3.115556,7.882029,7.532642,6.995691,3.619598,-0.04089126,-0.4952551,1.634894,0.2126905,0.2507394,1.60942,0.16708,0.3350824,1.720015,0.006479434,-0.4694483,1.607743,0.1874946,0.2070953,1.671136,0.1640302,-0.1080972,1.729771,0.1437115,-0.4249444,1.712252,-0.004796292,0.06859272,1.739724,0.05929135,-0.4152373,1.691877,-0.06474485,-0.1783627,1.742112,0.3471427,-0.03555838,1.521314,NA,NA,NotTracked,NotTracked,
0.9208984,-0.3823242,0.001953125,-0.9086914,0.3129883,-0.01074219,-1,-2,-1,-1,0,-3,0,0,-3,-3,-1,0,2,-1,-2,-2,0.625,0.625,0.625,1.8125,1.8125,1.8125,2.515049,3.115197,7.881562,7.506035,6.984244,3.591371,-0.04245889,-0.4926467,1.634402,0.2363237,0.2352504,1.58577,0.1669232,0.3351095,1.719919,0.006013434,-0.4688151,1.607705,0.2231268,0.1881289,1.602778,0.1640318,-0.1080965,1.729764,0.1437273,-0.4249332,1.712249,-0.004823206,0.06860314,1.739708,0.05930813,-0.4152275,1.691877,-0.06476255,-0.1783472,1.74219,0.3472384,-0.03589125,1.52152,NA,NA,NotTracked,NotTracked,
0.9208984,-0.3681641,0.001953125,-0.8413086,0.3027344,-0.01953125,-1,0,-1,-2,-1,-1,-2,-2,-3,4,-3,-2,0,1,-1,-1,-0.375,-0.375,-0.375,18.1875,18.1875,18.1875,2.516122,3.113231,7.880296,7.460063,6.964672,3.527153,-0.04123413,-0.4958168,1.635231,0.2407961,0.2289518,1.580078,0.1667883,0.3350774,1.719917,0.006295274,-0.4708041,1.608417,0.2263081,0.1840629,1.607053,0.1640178,-0.1081148,1.729797,0.1437166,-0.4249603,1.712289,-0.004971777,0.06859217,1.739856,0.05929674,-0.4152557,1.691927,-0.06480544,-0.1783901,1.742264,0.3472001,-0.03699076,1.522019,NA,NA,NotTracked,NotTracked,
0.9145508,-0.3735352,0.001953125,-0.7192383,0.3413086,0.04052734,-1,0,-3,-2,-2,-1,1,-1,-1,-3,0,0,-4,0,0,-1,-0.1875,-0.1875,-0.1875,37.375,37.375,37.375,2.517656,3.112207,7.878034,7.296997,6.897741,3.292334,-0.04108112,-0.4958693,1.635663,0.2438595,0.2212526,1.572328,0.1664275,0.3352579,1.720092,0.00594869,-0.4720841,1.609162,0.2224802,0.186993,1.602243,0.1639943,-0.108114,1.72983,0.1437054,-0.4249764,1.712329,-0.004994051,0.06860596,1.739891,0.05928845,-0.4152671,1.691975,-0.06485821,-0.1783603,1.742409,0.3478499,-0.03851053,1.522519,NA,NA,NotTracked,NotTracked,
0.9145508,-0.3735352,0.001953125,-0.7192383,0.3413086,0.04052734,-1,0,-3,-2,-2,-1,1,-1,-1,-3,0,0,-4,0,0,-1,-0.1875,-0.1875,-0.1875,37.375,37.375,37.375,2.517656,3.112207,7.878034,7.296997,6.897741,3.292334,-0.04111481,-0.4954933,1.634227,0.2222246,0.2357147,1.582124,0.166182,0.3353706,1.720041,0.005508489,-0.473067,1.608092,0.1551707,0.2220263,1.6072,0.1639201,-0.1081117,1.729836,0.1437112,-0.4250011,1.712334,-0.005152719,0.06857385,1.739958,0.0593023,-0.4152875,1.691972,-0.06494706,-0.1784133,1.742434,0.3497745,-0.04325965,1.524529,NA,NA,NotTracked,NotTracked,
0.9116211,-0.3710938,0.005371094,-0.7739258,0.362793,0.1049805,-1,-1,-2,-2,-1,-1,-2,-2,-1,-7,-4,-2,0,0,1,0,4.0625,4.0625,4.0625,27.9375,27.9375,27.9375,2.523913,3.112494,7.875018,7.138519,6.809944,3.082637,-0.04100439,-0.4956327,1.63289,0.2153414,0.22735,1.573235,0.1653831,0.3357968,1.720146,0.005780795,-0.4720362,1.607756,0.1607535,0.2240677,1.613805,0.1632498,-0.1090543,1.729367,0.1436797,-0.425091,1.712302,-0.0053541,0.06844698,1.739898,0.05928127,-0.415369,1.691926,-0.06512771,-0.1785376,1.742463,0.352441,-0.04820528,1.525903,NA,NA,NotTracked,NotTracked,
0.9335938,-0.3642578,0.01757813,-0.7006836,0.3339844,0.1313477,-2,-1,-1,-1,-2,-4,-1,-1,-3,-4,-3,0,-2,-1,-1,-2,5.8125,5.8125,5.8125,32.4375,32.4375,32.4375,2.533429,3.11388,7.871489,6.984361,6.688565,2.875015,-0.04063407,-0.4958811,1.634506,0.2195723,0.210158,1.550281,0.1648417,0.3363726,1.720707,0.005991384,-0.4717974,1.608445,0.1940977,0.2092294,1.6115,0.1629541,-0.1091014,1.729472,0.1436589,-0.4252305,1.712403,-0.00558205,0.06840871,1.740054,0.05927249,-0.415466,1.691967,-0.06518991,-0.1786156,1.742636,0.3577935,-0.05783197,1.531033,NA,NA,NotTracked,NotTracked,
0.9189453,-0.3671875,0.005859375,-0.6928711,0.3847656,0.1733398,-1,-1,-1,-1,0,0,-2,-2,-5,-5,-4,-3,-1,-1,13,-2,6.375,6.375,6.375,35.9375,35.9375,35.9375,2.542493,3.113858,7.869329,6.919107,6.608915,2.775656,-0.04066812,-0.4964819,1.633893,0.2958442,0.03217806,1.546394,0.1640968,0.3368954,1.721288,0.006114957,-0.4710214,1.608114,0.2528576,0.04330321,1.614181,0.1624251,-0.1092969,1.729408,0.1435628,-0.4253527,1.712449,-0.005989155,0.06831352,1.740144,0.05920359,-0.4155947,1.691993,-0.06559245,-0.1786951,1.742893,0.3626973,-0.06641786,1.535782,NA,NA,NotTracked,NotTracked,
0.9370117,-0.3662109,0.01025391,-0.671875,0.465332,0.190918,0,-1,-2,-2,1,-2,-2,0,-4,-8,-7,-3,-4,-1,26,7,5.3125,5.3125,5.3125,7.6875,7.6875,7.6875,2.55166,3.112778,7.866064,6.753055,6.294767,2.544048,-0.04032843,-0.4962893,1.634639,0.2970064,0.0218019,1.53631,0.1630204,0.3377602,1.721962,0.006323125,-0.4697787,1.607944,0.265526,0.02681286,1.610684,0.161431,-0.1097613,1.729249,0.1436205,-0.4256069,1.712568,-0.007340867,0.06811069,1.740996,0.05940071,-0.4161334,1.692432,-0.06580318,-0.1792054,1.743253,0.3681736,-0.0770699,1.542127,NA,NA,NotTracked,NotTracked,
0.9331055,-0.3896484,-0.008789063,-0.6923828,0.4736328,0.2290039,1,0,-2,-1,-2,0,0,-2,-4,-4,-3,-3,-4,-7,26,3,4.4375,4.4375,4.4375,27.5,27.5,27.5,2.555649,3.111916,7.867151,6.722219,6.166299,2.477589,-0.04031474,-0.4965946,1.634869,0.2181925,0.1465058,1.475424,0.1621862,0.3381616,1.722769,0.006060693,-0.4715439,1.608243,0.1987221,0.1404276,1.521091,0.1601545,-0.1114907,1.728986,0.1437041,-0.4262048,1.712881,-0.008667377,0.06796493,1.741491,0.0596931,-0.4170289,1.693181,-0.06606814,-0.1796201,1.743441,0.3738951,-0.0877586,1.548205,NA,NA,NotTracked,Closed,
0.9365234,-0.3789063,-0.01171875,-0.6577148,0.6054688,0.3286133,0,0,-1,-1,-2,-1,-1,-3,2,3,3,0,3,2,33,11,4.0625,4.0625,4.0625,56.6875,56.6875,56.6875,2.557448,3.109607,7.869362,6.703561,5.901326,2.359747,-0.03979285,-0.4963166,1.635193,0.2129687,0.07430544,1.427152,0.1618236,0.3381301,1.723247,0.006311113,-0.469892,1.607822,0.1741083,0.09712741,1.484667,0.1580215,-0.1142071,1.72984,0.1442546,-0.4277487,1.713372,-0.01190715,0.06726027,1.742847,0.06062417,-0.4190775,1.694072,-0.06662302,-0.1809745,1.74407,0.3831781,-0.1152467,1.565068,NA,NA,NotTracked,Closed,
0.8955078,-0.390625,-0.01269531,-0.2387695,0.8417969,0.5131836,-2,-1,-1,-1,-1,0,-1,0,2,2,-1,1,1,0,-11,2,-8.625,-8.625,-8.625,32.25,32.25,32.25,2.550971,3.105952,7.870387,6.725349,5.486632,2.244531,-0.03983497,-0.4966079,1.636547,0.2352833,0.01103798,1.414263,0.1618638,0.3381369,1.723302,0.006264535,-0.4714649,1.608469,0.1773557,0.04854475,1.443,0.1577699,-0.1145087,1.73032,0.1443168,-0.4277603,1.713449,-0.01256081,0.06732336,1.743092,0.06078357,-0.4190967,1.693919,-0.0670404,-0.1809683,1.744235,0.3881977,-0.1206046,1.573606,NA,NA,NotTracked,Closed,
0.9067383,-0.4008789,0.01367188,-0.3500977,0.7651367,0.4550781,0,0,-2,-1,0,-1,0,-1,0,-2,-1,-2,-4,-2,0,-1,-15.1875,-15.1875,-15.1875,2.875,2.875,2.875,2.544277,3.103759,7.868557,6.718883,5.3483,2.215287,-0.04032858,-0.4966197,1.637366,0.2185885,-0.01664631,1.386362,0.1620066,0.3380946,1.723632,0.005728786,-0.474775,1.609204,0.1774473,0.003235943,1.4095,0.1576208,-0.1145495,1.730689,0.1447926,-0.4273866,1.713698,-0.01288843,0.06755737,1.741929,0.06149742,-0.4186775,1.69342,-0.06720044,-0.1806784,1.744264,0.3965107,-0.1255179,1.583754,NA,NA,NotTracked,Closed,
0.9174805,-0.3867188,0.006347656,0.2036133,0.6923828,0.4926758,-3,0,0,0,-2,-2,-1,-2,0,3,-1,-2,-2,2,4,3,-15.6875,-15.6875,-15.6875,35.625,35.625,35.625,2.515403,3.099394,7.869003,6.753369,4.915114,2.127872,-0.04251144,-0.4944482,1.638756,0.2481112,-0.08110275,1.388133,0.1619851,0.3381265,1.723771,0.00539218,-0.4703945,1.609167,0.1939107,-0.04661399,1.386333,0.1573482,-0.1144737,1.730935,0.1449515,-0.4266495,1.713847,-0.01325948,0.06759437,1.741936,0.06186296,-0.4176586,1.692709,-0.06770241,-0.180614,1.744248,0.4037488,-0.1248952,1.599409,NA,NA,NotTracked,Closed,
0.9311523,-0.3945313,0.03173828,0.2548828,0.8554688,0.472168,0,-3,-2,-1,-2,1,-1,-1,-2,2,18,4,-1,-4,-4,-1,-5.125,-5.125,-5.125,58.875,58.875,58.875,2.510132,3.099517,7.865963,6.816895,4.640948,2.069514,-0.04295894,-0.4977302,1.639032,0.25754,-0.1284214,1.385796,0.162065,0.338199,1.724172,0.005267541,-0.4726462,1.610053,0.2360698,-0.08440916,1.368667,0.1571666,-0.1144005,1.731175,0.1451263,-0.4262481,1.714033,-0.01362989,0.06765603,1.742027,0.06212617,-0.4171839,1.692444,-0.06801203,-0.1806055,1.743859,0.4050401,-0.1167968,1.618422,NA,NA,NotTracked,Unknown,
0.9311523,-0.3945313,0.03173828,0.2548828,0.8554688,0.472168,0,-3,-2,-1,-2,1,-1,-1,-2,2,18,4,-1,-4,-4,-1,-5.125,-5.125,-5.125,58.875,58.875,58.875,2.510132,3.099517,7.865963,6.816895,4.640948,2.069514,-0.04317659,-0.4977715,1.637107,0.2982615,-0.1817335,1.423147,0.162076,0.338208,1.724198,0.00580959,-0.4916344,1.608761,0.2914169,-0.1469259,1.464,0.1571777,-0.1143959,1.731235,0.1458335,-0.4259513,1.714089,-0.01404234,0.06756276,1.74184,0.06299379,-0.4169286,1.691798,-0.06822901,-0.1807728,1.743278,0.4029142,-0.1148532,1.635656,NA,NA,NotTracked,Unknown,
0.9335938,-0.3623047,0.01953125,0.550293,0.8618164,0.4731445,-1,-2,-2,-2,1,-1,-1,-2,1,-4,-10,-2,-1,1,-6,-1,-0.5,-0.5,-0.5,12.5,12.5,12.5,2.511973,3.100683,7.863443,6.855804,4.370925,2.012316,-0.04310554,-0.4970627,1.636471,0.3017653,-0.222652,1.426679,0.1620777,0.338211,1.724245,0.005109817,-0.4795478,1.60972,0.2615964,-0.2153221,1.335462,0.1568338,-0.1144094,1.731408,0.1459261,-0.4258612,1.714145,-0.01431364,0.06765129,1.7417,0.06321699,-0.4168175,1.691423,-0.0683362,-0.1807234,1.743108,0.3973658,-0.1166227,1.642897,NA,NA,NotTracked,Unknown,
0.9326172,-0.3745117,0.03076172,0.6137695,0.9052734,0.4482422,-1,-1,-1,0,-3,-3,-1,-1,1,1,-5,1,2,2,-1,0,-0.375,-0.375,-0.375,19.0625,19.0625,19.0625,2.517269,3.10307,7.857508,6.909826,4.132182,1.958504,-0.04315026,-0.496477,1.635809,0.3105427,-0.260909,1.437383,0.1620837,0.3382125,1.724252,0.004930241,-0.4787559,1.610109,0.2672503,-0.2538734,1.34715,0.1566714,-0.1144657,1.731494,0.1459088,-0.4258497,1.71415,-0.01465865,0.06771313,1.741559,0.06319932,-0.4167077,1.691004,-0.06857257,-0.1807062,1.742711,0.3926033,-0.1207667,1.651326,NA,NA,NotTracked,Unknown,
