ALX,ALY,ALZ,ARX,ARY,ARZ,EMG0L,EMG1L,EMG2L,EMG3L,EMG4L,EMG5L,EMG6L,EMG7L,EMG0R,EMG1R,EMG2R,EMG3R,EMG4R,EMG5R,EMG6R,EMG7R,GLX,GLY,GLZ,GRX,GRY,GRZ,ORL,OPL,OYL,ORR,OPR,OYR,LHNX,LHNY,LHNZ,RHNX,RHNY,RHNZ,HX,HY,HZ,LTX,LTY,LTZ,RTX,RTY,RTZ,SpineMidX,SpineMidY,SpineMidZ,SpineBaseX,SpineBaseY,SpineBaseZ,ShoulderLeftX,ShoulderLeftY,ShoulderLeftZ,ShoulderRightX,ShoulderRightY,ShoulderRightZ,ElbowLeftX,ElbowLeftY,ElbowLeftZ,ElbowRightX,ElbowRightY,ElbowRightZ,Myo_Pose_left,Myo_Pose_Right,Kinect_pose_left,Kinect_pose_right
0.9443359,-0.3237305,0.05517578,0.9414063,0.2416992,0.01806641,0,-3,-1,-2,-2,-1,-2,-1,0,-2,-1,-1,-1,0,1,0,-2.1875,-2.1875,-2.1875,0.875,0.875,0.875,2.712332,3.059653,7.203104,7.523473,2.905582,2.521958,-0.1368062,-0.4664098,1.248417,0.3274719,-0.4625491,1.258952,0.1058877,0.3196128,1.357442,-0.1715336,-0.4698262,1.248611,0.281519,-0.4397041,1.255703,0.1138815,-0.1196118,1.366996,0.1190843,-0.4362771,1.349968,-0.06464364,0.05449968,1.354501,0.03634128,-0.4268688,1.317569,-0.1191754,-0.1981616,1.341043,0.3310448,-0.2048936,1.349442,NA,NA,NotTracked,NotTracked,
0.9443359,-0.3237305,0.05517578,0.9448242,0.2495117,0.01220703,0,-3,-1,-2,-2,-1,-2,-1,-1,-2,-1,-1,-2,0,-1,0,-2.1875,-2.1875,-2.1875,-2.9375,-2.9375,-2.9375,2.712332,3.059653,7.203104,7.520165,2.903337,2.522629,-0.1366438,-0.4676111,1.24999,0.3271199,-0.4633188,1.259524,0.1059491,0.3196132,1.3573,-0.1685757,-0.4672511,1.229125,0.2842695,-0.4382292,1.273039,0.1138378,-0.119562,1.366791,0.1190132,-0.4362049,1.349782,-0.06479735,0.05465173,1.354162,0.03626629,-0.4268097,1.31734,-0.1192342,-0.1976051,1.340549,0.3309983,-0.2045896,1.349312,NA,NA,NotTracked,NotTracked,
0.9443359,-0.3237305,0.05517578,0.9404297,0.2451172,0.02099609,0,-3,-1,-2,-2,-1,-2,-1,0,-1,0,-1,-1,-2,-2,0,-2.1875,-2.1875,-2.1875,-0.3125,-0.3125,-0.3125,2.712332,3.059653,7.203104,7.518618,2.901751,2.521543,-0.1363741,-0.4677981,1.250189,0.3267511,-0.4625409,1.259554,0.1058464,0.3196277,1.356786,-0.1715049,-0.4621448,1.25141,0.2815829,-0.4464458,1.257486,0.1136682,-0.1194984,1.366358,0.1188481,-0.4360924,1.349428,-0.06496469,0.05474052,1.353611,0.03610224,-0.4267399,1.317009,-0.1194965,-0.1972724,1.340083,0.3307979,-0.2042845,1.348987,NA,NA,NotTracked,NotTracked,
0.9443359,-0.3237305,0.05517578,0.934082,0.2460938,0.02246094,0,-3,-1,-2,-2,-1,-2,-1,0,0,0,1,-3,-1,0,-2,-2.1875,-2.1875,-2.1875,-1.375,-1.375,-1.375,2.712332,3.059653,7.203104,7.519911,2.899248,2.516506,-0.1363069,-0.4672781,1.250038,0.3265224,-0.4625955,1.2602,0.1057464,0.3195349,1.356535,-0.170936,-0.4613169,1.249385,0.2803692,-0.4526743,1.248909,0.1135119,-0.1194986,1.365958,0.1187143,-0.4360746,1.349018,-0.06512386,0.05471018,1.353267,0.03596792,-0.4267465,1.316547,-0.1196723,-0.1972988,1.339779,0.3305496,-0.2044254,1.348803,NA,NA,NotTracked,NotTracked,
0.9443359,-0.3237305,0.05517578,0.9423828,0.2509766,0.02539063,0,-3,-1,-2,-2,-1,-2,-1,0,-1,0,-1,-1,-1,0,-1,-2.1875,-2.1875,-2.1875,1.0625,1.0625,1.0625,2.712332,3.059653,7.203104,7.521555,2.898221,2.514722,-0.1361434,-0.4677809,1.249972,0.3259371,-0.4631339,1.259892,0.1055385,0.31948,1.356126,-0.1717471,-0.4688272,1.247539,0.2811,-0.4475648,1.256133,0.1134067,-0.119504,1.365668,0.1185277,-0.4360694,1.348673,-0.06528796,0.05462462,1.352689,0.03575599,-0.42676,1.316123,-0.1196733,-0.1973214,1.339371,0.3303197,-0.2043817,1.348654,NA,NA,NotTracked,NotTracked,
0.9443359,-0.3237305,0.05517578,0.9467773,0.2436523,0.02392578,0,-3,-1,-2,-2,-1,-2,-1,-2,0,-1,0,0,-2,-4,-8,-2.1875,-2.1875,-2.1875,0.125,0.125,0.125,2.712332,3.059653,7.203104,7.518575,2.899132,2.515765,-0.1368314,-0.4682115,1.249825,0.3256005,-0.462297,1.259589,0.105327,0.3195613,1.356018,-0.1709949,-0.4651378,1.245358,0.2812633,-0.4397639,1.260178,0.1132111,-0.1195105,1.365514,0.1183534,-0.4361043,1.348439,-0.06552736,0.05461191,1.352416,0.03559396,-0.4267819,1.315918,-0.119883,-0.1972948,1.339234,0.3301125,-0.2044486,1.348588,NA,NA,NotTracked,NotTracked,
0.9443359,-0.3237305,0.05517578,0.9428711,0.2519531,0.02246094,0,-3,-1,-2,-2,-1,-2,-1,1,-1,-2,-1,0,0,-4,-2,-2.1875,-2.1875,-2.1875,0.125,0.125,0.125,2.712332,3.059653,7.203104,7.517661,2.900475,2.517512,-0.1375214,-0.4669147,1.249367,0.3253361,-0.4623049,1.25954,0.1050797,0.3196242,1.355932,-0.1745948,-0.4589765,1.2608,0.2804392,-0.4443374,1.257455,0.1129843,-0.1194915,1.365358,0.1181493,-0.4361159,1.348186,-0.06579302,0.05470804,1.352179,0.03537275,-0.426787,1.315607,-0.120169,-0.1972894,1.338969,0.3298762,-0.2045137,1.348472,NA,NA,NotTracked,NotTracked,
0.9443359,-0.3237305,0.05517578,1.102539,0.2739258,-0.01953125,0,-3,-1,-2,-2,-1,-2,-1,18,-6,-1,-1,2,-1,1,4,-2.1875,-2.1875,-2.1875,1.5,1.5,1.5,2.712332,3.059653,7.203104,7.49235,2.905982,2.544631,-0.1378764,-0.4676973,1.249539,0.3237475,-0.460923,1.256457,0.104972,0.31964,1.355826,-0.1722223,-0.4624426,1.250074,0.2791274,-0.4525395,1.247609,0.1126971,-0.1194909,1.365189,0.1178982,-0.4361482,1.34795,-0.06600223,0.0545904,1.352055,0.03512206,-0.4267836,1.31536,-0.1204321,-0.1971787,1.338867,0.3296174,-0.2044193,1.348413,NA,NA,NotTracked,NotTracked,
0.9443359,-0.3237305,0.05517578,1.066895,0.2578125,0.01220703,0,-3,-1,-2,-2,-1,-2,-1,-34,4,10,-4,-2,6,-3,-6,-2.1875,-2.1875,-2.1875,60.625,60.625,60.625,2.712332,3.059653,7.203104,7.251783,2.944653,2.839372,-0.1390549,-0.467463,1.248872,0.3133985,-0.4509985,1.233234,0.1048195,0.3196498,1.355791,-0.1723526,-0.4714362,1.245,0.279887,-0.4412082,1.262389,0.1125098,-0.119475,1.364885,0.1176021,-0.4361299,1.34763,-0.06617145,0.05458714,1.352007,0.03482402,-0.4267564,1.315033,-0.1207467,-0.1971955,1.338609,0.3297856,-0.2034609,1.34821,NA,NA,NotTracked,NotTracked,
0.9443359,-0.3237305,0.05517578,1.058105,0.7783203,0.4624023,0,-3,-1,-2,-2,-1,-2,-1,0,-5,-6,-3,4,-13,-11,-1,-2.1875,-2.1875,-2.1875,101.75,101.75,101.75,2.712332,3.059653,7.203104,6.962734,3.117984,3.320589,-0.1395845,-0.4669303,1.249935,0.2736512,-0.4232897,1.183198,0.1045194,0.3196034,1.355526,-0.1453793,-0.4750904,1.212334,0.2387086,-0.4110816,1.198091,0.1118145,-0.1194722,1.36443,0.1159904,-0.4359398,1.34709,-0.06637875,0.05466538,1.351902,0.03289625,-0.4261987,1.313954,-0.1210757,-0.1970294,1.338728,0.3309878,-0.1937102,1.343352,NA,NA,NotTracked,NotTracked,
0.9443359,-0.3237305,0.05517578,0.9765625,0.8369141,0.6445313,0,-3,-1,-2,-2,-1,-2,-1,-3,-7,-6,-7,3,3,1,-3,-2.1875,-2.1875,-2.1875,124.9375,124.9375,124.9375,2.712332,3.059653,7.203104,6.774703,3.462896,3.735183,-0.1412839,-0.468839,1.253724,0.1983691,-0.3288293,1.139977,0.1043952,0.3194547,1.355138,-0.1748285,-0.4656554,1.241454,0.2052153,-0.3215562,1.096639,0.1091913,-0.1194672,1.363918,0.1078125,-0.4353339,1.345911,-0.06660593,0.0547595,1.351753,0.02472613,-0.4241373,1.313291,-0.1216788,-0.1970195,1.338538,0.3327078,-0.1531343,1.329366,NA,NA,NotTracked,Unknown,
0.9443359,-0.3237305,0.05517578,0.4624023,0.8295898,0.6318359,0,-3,-1,-2,-2,-1,-2,-1,-17,-2,-5,-16,-13,3,4,-1,-2.1875,-2.1875,-2.1875,132.6875,132.6875,132.6875,2.712332,3.059653,7.203104,6.765937,4.27523,4.324525,-0.1426786,-0.4696848,1.255309,0.1349095,-0.2051463,1.12989,0.1045493,0.3190844,1.354386,-0.1669969,-0.4651253,1.232203,0.1644308,-0.2011785,1.099822,0.1089602,-0.1194209,1.364122,0.1079518,-0.4348558,1.346632,-0.06605902,0.054301,1.350693,0.02515094,-0.423846,1.314024,-0.1223396,-0.196773,1.338218,0.3478805,-0.1462787,1.292951,NA,NA,NotTracked,Unknown,
0.9443359,-0.3237305,0.05517578,0.2470703,0.7133789,0.5288086,0,-3,-1,-2,-2,-1,-2,-1,12,3,3,-8,3,-1,0,-1,-2.1875,-2.1875,-2.1875,106.4375,106.4375,106.4375,2.712332,3.059653,7.203104,6.860326,4.716715,4.633849,-0.141695,-0.4692402,1.253468,0.0653495,-0.108634,1.137159,0.1050268,0.3187811,1.354049,-0.1721756,-0.4618059,1.242251,0.05010974,-0.124936,1.094435,0.1094657,-0.118952,1.364739,0.1090474,-0.432487,1.34815,-0.06293672,0.05713797,1.350188,0.02639586,-0.4217708,1.315244,-0.1224331,-0.1953489,1.337517,0.3521525,-0.1272116,1.234528,NA,NA,NotTracked,Unknown,
0.9443359,-0.3237305,0.05517578,0.1728516,0.6401367,0.3701172,0,-3,-1,-2,-2,-1,-2,-1,-22,-2,-4,-1,4,-2,1,-2,-2.1875,-2.1875,-2.1875,68.5,68.5,68.5,2.712332,3.059653,7.203104,7.005044,5.11065,4.982795,-0.1387212,-0.4676285,1.248727,0.04533731,-0.03392697,1.14974,0.1055642,0.3185026,1.353961,-0.173366,-0.465365,1.249772,0.04322728,-0.008704227,1.118556,0.1101337,-0.1185663,1.365655,0.1102929,-0.4310266,1.34934,-0.06268983,0.05754273,1.350665,0.02821506,-0.4202625,1.317868,-0.1224168,-0.1953107,1.337428,0.3126276,-0.1196728,1.197822,NA,NA,NotTracked,Unknown,
0.9443359,-0.3237305,0.05517578,0.1074219,0.6821289,0.2832031,0,-3,-1,-2,-2,-1,-2,-1,-30,0,2,2,1,-2,-3,-18,-2.1875,-2.1875,-2.1875,36.75,36.75,36.75,2.712332,3.059653,7.203104,7.108422,5.253857,5.189787,-0.1349417,-0.4664589,1.244516,0.002725334,0.001696548,1.179693,0.1058832,0.3182096,1.354084,-0.1692471,-0.4485562,1.245143,0.02624886,0.02020045,1.13685,0.110345,-0.1186969,1.366349,0.1107769,-0.4310602,1.349928,-0.06163258,0.0574467,1.349175,0.02896227,-0.4209073,1.320286,-0.1222553,-0.1951825,1.337735,0.301502,-0.1028967,1.172373,NA,NA,NotTracked,Unknown,
0.9443359,-0.3237305,0.05517578,0.04882813,0.7734375,0.2084961,0,-3,-1,-2,-2,-1,-2,-1,-13,1,0,0,6,6,-5,-11,-2.1875,-2.1875,-2.1875,17.4375,17.4375,17.4375,2.712332,3.059653,7.203104,7.16273,5.279081,5.306186,-0.1327618,-0.4662104,1.244196,0.004720495,0.01128369,1.186206,0.1062273,0.3178377,1.354845,-0.1660723,-0.456219,1.250071,0.01376048,0.03585157,1.148186,0.1105679,-0.1187826,1.367257,0.1109944,-0.4312047,1.350299,-0.0602424,0.05710924,1.347629,0.02908567,-0.4217222,1.322695,-0.121443,-0.1941951,1.338899,0.2855225,-0.09144461,1.157422,NA,NA,NotTracked,Unknown,
0.9443359,-0.3237305,0.05517578,-0.0390625,0.8945313,0.2143555,0,-3,-1,-2,-2,-1,-2,-1,8,4,2,2,3,-1,-1,2,-2.1875,-2.1875,-2.1875,6.0625,6.0625,6.0625,2.712332,3.059653,7.203104,7.177084,5.23339,5.347261,-0.1326225,-0.4674795,1.247398,0.0212039,0.009485225,1.179405,0.1057537,0.3174749,1.355829,-0.1683421,-0.4782918,1.250818,0.05612509,0.0174797,1.131127,0.1105927,-0.1187725,1.367545,0.1109764,-0.4312199,1.350307,-0.05966403,0.05684393,1.346871,0.02890358,-0.4220791,1.323694,-0.1202611,-0.193506,1.341557,0.2792407,-0.08595343,1.151196,NA,NA,NotTracked,Unknown,
0.9443359,-0.3237305,0.05517578,0.01611328,0.9707031,0.2421875,0,-3,-1,-2,-2,-1,-2,-1,-11,-6,-2,-3,2,3,-3,-1,-2.1875,-2.1875,-2.1875,0.4375,0.4375,0.4375,2.712332,3.059653,7.203104,7.174998,5.183514,5.336571,-0.1358811,-0.4690582,1.25277,0.02343366,0.00545876,1.178962,0.1050204,0.317222,1.357023,-0.1725085,-0.4755743,1.255167,0.05872238,0.01760731,1.133296,0.1105203,-0.1187658,1.367733,0.1108972,-0.4312625,1.35013,-0.05954133,0.05670732,1.346912,0.0287539,-0.422284,1.323972,-0.1200899,-0.1945045,1.344301,0.2791162,-0.08453622,1.149162,NA,NA,NotTracked,Unknown,
0.9443359,-0.3237305,0.05517578,0.1879883,1.013184,0.1660156,0,-3,-1,-2,-2,-1,-2,-1,-14,-1,-4,-3,-7,-1,0,-6,-2.1875,-2.1875,-2.1875,14.125,14.125,14.125,2.712332,3.059653,7.203104,7.183948,5.131318,5.293018,-0.1406722,-0.4696278,1.259892,0.03405651,0.001922852,1.180467,0.1039195,0.3169401,1.358859,-0.1739794,-0.4629411,1.258999,0.05218872,0.02025829,1.136453,0.1104714,-0.1187259,1.367937,0.1108087,-0.4312682,1.349858,-0.0593479,0.0564325,1.347457,0.02867217,-0.4223329,1.323993,-0.1200194,-0.195103,1.347052,0.2861887,-0.08373678,1.149182,NA,NA,NotTracked,Unknown,
0.9443359,-0.3237305,0.05517578,0.5224609,0.8544922,0.5400391,0,-3,-1,-2,-2,-1,-2,-1,3,-1,1,6,11,1,1,-1,-2.1875,-2.1875,-2.1875,-1.4375,-1.4375,-1.4375,2.712332,3.059653,7.203104,7.173076,5.066778,5.186064,-0.147457,-0.4712195,1.266317,0.03557216,-0.003119431,1.185062,0.1024626,0.3168891,1.360539,-0.1799283,-0.4604713,1.261,0.0323179,-0.01795414,1.153,0.1103899,-0.1186666,1.368058,0.1106366,-0.4312539,1.349337,-0.05918234,0.05612404,1.348744,0.02851734,-0.422399,1.323864,-0.1211353,-0.1953672,1.349241,0.3079775,-0.0846586,1.153813,NA,NA,NotTracked,Unknown,
0.9443359,-0.3237305,0.05517578,0.1806641,0.984375,0.3989258,0,-3,-1,-2,-2,-1,-2,-1,4,7,6,8,6,1,-3,-1,-2.1875,-2.1875,-2.1875,-4.75,-4.75,-4.75,2.712332,3.059653,7.203104,7.166852,4.974411,4.893263,-0.1530338,-0.4723066,1.270645,0.071535,-0.01279247,1.187218,0.1013893,0.3172227,1.361336,-0.1866403,-0.4658612,1.269333,0.0334213,-0.0248266,1.163962,0.1102114,-0.1184755,1.368034,0.110219,-0.4310042,1.348514,-0.05945802,0.05523865,1.351223,0.02803701,-0.4223503,1.323269,-0.1228206,-0.1952357,1.351986,0.3546838,-0.08613433,1.175981,NA,NA,Unknown,Unknown,
0.9443359,-0.3237305,0.05517578,0.0004882813,1.036133,0.4326172,0,-3,-1,-2,-2,-1,-2,-1,-2,0,-2,-8,-18,-7,1,-4,-2.1875,-2.1875,-2.1875,4.125,4.125,4.125,2.712332,3.059653,7.203104,7.181343,4.892406,4.56424,-0.1586027,-0.4714158,1.273447,0.1339059,-0.01543285,1.169576,0.09901576,0.317888,1.361235,-0.1560535,-0.5012212,1.292912,0.1639869,0.01102045,1.127759,0.1097568,-0.1182091,1.367647,0.1095304,-0.4305646,1.347508,-0.06088778,0.05568639,1.354585,0.02707761,-0.4220724,1.321826,-0.124911,-0.1947066,1.35469,0.4004853,-0.08172061,1.213643,NA,NA,Unknown,Closed,
0.9443359,-0.3237305,0.05517578,-0.09277344,1.043945,0.5405273,0,-3,-1,-2,-2,-1,-2,-1,-13,-4,-5,-6,13,-5,-1,-9,-2.1875,-2.1875,-2.1875,25.8125,25.8125,25.8125,2.712332,3.059653,7.203104,7.235413,4.798414,4.19957,-0.164447,-0.4724878,1.277163,0.1586152,-0.02677031,1.190366,0.097078,0.3183767,1.359412,-0.1976311,-0.470341,1.273869,0.1490762,-0.009836896,1.142058,0.1087105,-0.11779,1.366502,0.1083179,-0.4302503,1.346328,-0.0652862,0.05503215,1.359454,0.02547954,-0.4218379,1.319808,-0.126977,-0.1952981,1.35702,0.423432,-0.07376051,1.239802,NA,NA,Unknown,Unknown,
0.9443359,-0.3237305,0.05517578,-0.1044922,0.9589844,0.5151367,0,-3,-1,-2,-2,-1,-2,-1,-5,-8,-13,-23,-38,-9,-14,-12,-2.1875,-2.1875,-2.1875,8.1875,8.1875,8.1875,2.712332,3.059653,7.203104,7.328294,4.715935,3.74294,-0.1677408,-0.4711475,1.283134,0.1594655,-0.03088576,1.230914,0.09591678,0.3186433,1.356209,-0.1674068,-0.4978687,1.3006,0.1215665,-0.08283436,1.205,0.1078633,-0.1173721,1.364915,0.1072919,-0.4296684,1.345149,-0.0655882,0.05509207,1.359467,0.02416501,-0.4212066,1.317853,-0.1283167,-0.1951556,1.358588,0.4344591,-0.06903531,1.256712,NA,NA,Unknown,Unknown,
0.9443359,-0.3237305,0.05517578,-0.1845703,0.9047852,0.3369141,0,-3,-1,-2,-2,-1,-2,-1,-9,-3,3,0,-8,5,5,-2,-2.1875,-2.1875,-2.1875,-15.375,-15.375,-15.375,2.712332,3.059653,7.203104,7.354656,4.708753,3.488077,-0.1694628,-0.4705411,1.287948,0.1657169,-0.02741931,1.240809,0.09697047,0.3185424,1.353003,-0.2035336,-0.4657722,1.288504,0.125377,-0.0789654,1.206429,0.107501,-0.1168257,1.363247,0.1069316,-0.4288465,1.344239,-0.06583495,0.05517024,1.359389,0.02366958,-0.4202551,1.315972,-0.1292067,-0.1951531,1.359426,0.4375137,-0.06723331,1.279052,NA,NA,Unknown,Unknown,
0.9443359,-0.3237305,0.05517578,-0.2109375,0.9165039,0.2216797,0,-3,-1,-2,-2,-1,-2,-1,5,0,1,0,-16,0,8,18,-2.1875,-2.1875,-2.1875,-14.3125,-14.3125,-14.3125,2.712332,3.059653,7.203104,7.34505,4.753841,3.356343,-0.1685913,-0.4692314,1.289061,0.1730114,-0.01579558,1.245824,0.0994101,0.3182727,1.349707,-0.1993017,-0.4618005,1.26325,0.1413708,-0.055149,1.214739,0.1076482,-0.1164019,1.361802,0.1069486,-0.4280009,1.343128,-0.06574844,0.0555138,1.358191,0.0236892,-0.4190535,1.313303,-0.1294297,-0.1949993,1.359431,0.4364111,-0.06875324,1.290272,NA,NA,Lasso,Unknown,
0.9443359,-0.3237305,0.05517578,-0.1210938,0.953125,0.1616211,0,-3,-1,-2,-2,-1,-2,-1,-20,-5,-7,-6,-15,-6,6,-3,-2.1875,-2.1875,-2.1875,-18.875,-18.875,-18.875,2.712332,3.059653,7.203104,7.309946,4.788632,3.308465,-0.1663424,-0.4689491,1.282873,0.1745302,-0.01689718,1.2457,0.1022112,0.3177674,1.347885,-0.1654149,-0.5001473,1.309,0.1347562,-0.04790878,1.214688,0.1079805,-0.1163522,1.360906,0.1073357,-0.4276072,1.342312,-0.06523931,0.0560104,1.356176,0.02426456,-0.4184192,1.310941,-0.1296431,-0.1949405,1.358427,0.4344232,-0.07206785,1.295861,NA,NA,Unknown,Unknown,
0.9443359,-0.3237305,0.05517578,-0.006835938,0.9804688,0.1933594,0,-3,-1,-2,-2,-1,-2,-1,9,2,0,0,3,-2,-2,0,-2.1875,-2.1875,-2.1875,-19.375,-19.375,-19.375,2.712332,3.059653,7.203104,7.270084,4.799698,3.310351,-0.164465,-0.4672847,1.273584,0.2657137,-0.03019287,1.216955,0.1048189,0.3175356,1.346978,-0.1707045,-0.4804871,1.291529,0.3054827,-0.008368061,1.171389,0.1082971,-0.1163007,1.360449,0.1078584,-0.4273818,1.341707,-0.06424861,0.0560972,1.353964,0.02492522,-0.4180559,1.309408,-0.1299643,-0.1942972,1.356001,0.4318726,-0.07661972,1.298269,NA,NA,Lasso,Unknown,
0.9443359,-0.3237305,0.05517578,0.05761719,0.9663086,0.2231445,0,-3,-1,-2,-2,-1,-2,-1,-9,0,0,3,16,2,-13,-5,-2.1875,-2.1875,-2.1875,-21.375,-21.375,-21.375,2.712332,3.059653,7.203104,7.24093,4.801648,3.324545,-0.1619048,-0.4659374,1.260325,0.2723687,-0.03385383,1.210604,0.1064793,0.3175036,1.347105,-0.1604712,-0.4981168,1.293,0.2595847,-0.0305318,1.167773,0.1086958,-0.1162595,1.360249,0.1083884,-0.4273463,1.341246,-0.0634785,0.05644681,1.353011,0.02541905,-0.4179368,1.308536,-0.1302657,-0.1935539,1.353304,0.4304489,-0.08317646,1.302665,NA,NA,Lasso,Unknown,
0.9443359,-0.3237305,0.05517578,0.1298828,0.8828125,0.2890625,0,-3,-1,-2,-2,-1,-2,-1,-2,1,1,3,9,-3,-3,-1,-2.1875,-2.1875,-2.1875,-31.5,-31.5,-31.5,2.712332,3.059653,7.203104,7.156285,4.788315,3.359307,-0.1594506,-0.4603317,1.248137,0.1974619,-0.02872379,1.23148,0.1082801,0.3174992,1.347697,-0.1595393,-0.50327,1.261727,0.1799393,-0.05917083,1.2301,0.1090325,-0.1162669,1.360216,0.1089799,-0.4274052,1.340951,-0.06279535,0.0566953,1.352228,0.02593554,-0.4179506,1.308061,-0.130363,-0.1929579,1.350399,0.4274576,-0.08908807,1.305566,NA,NA,Unknown,Unknown,
0.9443359,-0.3237305,0.05517578,0.1621094,0.8256836,0.2954102,0,-3,-1,-2,-2,-1,-2,-1,-5,-2,0,7,5,3,0,-7,-2.1875,-2.1875,-2.1875,-44.25,-44.25,-44.25,2.712332,3.059653,7.203104,7.055776,4.7192,3.350477,-0.1575725,-0.4578837,1.24056,0.2098173,-0.05267133,1.21268,0.1096969,0.3177844,1.348581,-0.1794835,-0.4529904,1.264364,0.2347954,-0.04480238,1.163125,0.109362,-0.1162422,1.360221,0.1093772,-0.4275898,1.340753,-0.06235949,0.0571028,1.351873,0.02621996,-0.4180786,1.307824,-0.1300723,-0.1923895,1.34838,0.4261029,-0.09383589,1.311172,NA,NA,Unknown,Unknown,
0.9443359,-0.3237305,0.05517578,0.1425781,0.746582,0.3388672,0,-3,-1,-2,-2,-1,-2,-1,2,0,1,-1,-2,-1,-2,3,-2.1875,-2.1875,-2.1875,-60.3125,-60.3125,-60.3125,2.712332,3.059653,7.203104,6.960444,4.607339,3.336604,-0.1545844,-0.4571519,1.23709,0.2568051,-0.1113137,1.185365,0.1110023,0.3179318,1.349662,-0.1898447,-0.4657694,1.235167,0.2158715,-0.1311072,1.210769,0.1096235,-0.1162556,1.360265,0.1096029,-0.4277056,1.340598,-0.06214553,0.05727758,1.351826,0.02643943,-0.4181655,1.307498,-0.1296896,-0.1910924,1.346201,0.4226417,-0.09467885,1.374064,NA,NA,Unknown,Unknown,
0.9443359,-0.3237305,0.05517578,0.2260742,0.722168,0.3994141,0,-3,-1,-2,-2,-1,-2,-1,0,1,0,-2,-1,-1,-6,-1,-2.1875,-2.1875,-2.1875,-44.4375,-44.4375,-44.4375,2.712332,3.059653,7.203104,6.86956,4.435963,3.325242,-0.1533134,-0.4608535,1.240736,0.2735789,-0.1840367,1.174363,0.1120326,0.3181475,1.351366,-0.1834777,-0.4717538,1.226757,0.2264892,-0.2040974,1.1858,0.1098322,-0.116107,1.360425,0.1097909,-0.4275923,1.340602,-0.06187774,0.05745861,1.351836,0.02665774,-0.4180463,1.307396,-0.1293552,-0.1909714,1.345487,0.3881888,-0.1151228,1.39047,NA,NA,Unknown,Unknown,
0.9443359,-0.3237305,0.05517578,0.3725586,0.659668,0.3828125,0,-3,-1,-2,-2,-1,-2,-1,-29,-11,-3,-3,-1,-3,-2,-8,-2.1875,-2.1875,-2.1875,-8.0625,-8.0625,-8.0625,2.712332,3.059653,7.203104,6.80696,4.126688,3.343506,-0.151656,-0.4630742,1.248655,0.2944046,-0.2553812,1.180771,0.1126005,0.318219,1.353305,-0.184241,-0.4528377,1.243667,0.3082861,-0.2873881,1.1608,0.110177,-0.116049,1.360658,0.1104128,-0.4276025,1.340675,-0.06169094,0.05757141,1.351952,0.02723493,-0.41813,1.307311,-0.128906,-0.1911172,1.344769,0.3686778,-0.1240112,1.394799,NA,NA,Unknown,Unknown,
0.9443359,-0.3237305,0.05517578,0.5917969,0.6772461,0.3188477,0,-3,-1,-2,-2,-1,-2,-1,4,0,0,-1,-1,-2,0,-20,-2.1875,-2.1875,-2.1875,6.4375,6.4375,6.4375,2.712332,3.059653,7.203104,6.814346,3.838684,3.330775,-0.1503889,-0.4639232,1.257042,0.3034907,-0.3257307,1.21549,0.113049,0.3183988,1.355275,-0.1862888,-0.4625417,1.258222,0.2568056,-0.3411725,1.27135,0.1104779,-0.1161234,1.361019,0.1112385,-0.4277122,1.341511,-0.06163559,0.05764309,1.352198,0.02788687,-0.4181981,1.307728,-0.1285427,-0.1916429,1.344634,0.3577198,-0.1349973,1.393204,NA,NA,Unknown,Unknown,
0.9443359,-0.3237305,0.05517578,0.7592773,0.7802734,0.3061523,0,-3,-1,-2,-2,-1,-2,-1,2,2,-3,1,-1,1,0,-7,-2.1875,-2.1875,-2.1875,18.5625,18.5625,18.5625,2.712332,3.059653,7.203104,6.877098,3.564955,3.263879,-0.1492798,-0.4697839,1.263474,0.3148164,-0.3884001,1.224795,0.1130928,0.3183948,1.357608,-0.181909,-0.4734754,1.256267,0.2856664,-0.3953875,1.193667,0.1111482,-0.116196,1.362246,0.1136209,-0.4282811,1.342823,-0.06170817,0.05758672,1.352745,0.03024408,-0.4187189,1.308765,-0.12794,-0.1920163,1.345191,0.348803,-0.165314,1.389141,NA,NA,Lasso,Unknown,
0.9443359,-0.3237305,0.05517578,0.9199219,0.5932617,0.1748047,0,-3,-1,-2,-2,-1,-2,-1,-5,-2,-3,-1,-3,-2,0,-3,-2.1875,-2.1875,-2.1875,-49.3125,-49.3125,-49.3125,2.712332,3.059653,7.203104,6.973564,3.294922,3.096619,-0.1487241,-0.4708612,1.266503,0.325502,-0.4392999,1.249017,0.1131806,0.3186142,1.360375,-0.1836418,-0.4672676,1.259331,0.2886771,-0.4122021,1.243744,0.1119681,-0.116442,1.363991,0.1153037,-0.4292605,1.344134,-0.06180513,0.05748827,1.35426,0.03205037,-0.4197232,1.309965,-0.1272345,-0.1927624,1.346084,0.3425111,-0.1860474,1.381194,NA,NA,Lasso,NotTracked,
0.9443359,-0.3237305,0.05517578,1.274902,0.1298828,-0.2089844,0,-3,-1,-2,-2,-1,-2,-1,-2,-3,-2,-2,-3,-1,0,25,-2.1875,-2.1875,-2.1875,22.25,22.25,22.25,2.712332,3.059653,7.203104,7.886028,2.862369,2.020634,-0.1476714,-0.466227,1.266516,0.3346759,-0.4803508,1.292771,0.1142472,0.3187112,1.365866,-0.1809262,-0.4683727,1.259868,0.2851916,-0.4831629,1.2562,0.114269,-0.1174854,1.366804,0.1196371,-0.4314003,1.347072,-0.06156766,0.05722395,1.35749,0.03648885,-0.4220529,1.313041,-0.1262604,-0.1933597,1.348006,0.3322808,-0.2058384,1.365541,NA,NA,NotTracked,NotTracked,
0.9443359,-0.3237305,0.05517578,0.9848633,0.2631836,-0.006835938,0,-3,-1,-2,-2,-1,-2,-1,-1,0,-1,0,-2,-5,0,0,-2.1875,-2.1875,-2.1875,47.375,47.375,47.375,2.712332,3.059653,7.203104,8.128477,2.824973,1.893207,-0.1459739,-0.4661654,1.265067,0.3330088,-0.4812114,1.296513,0.1152233,0.3190645,1.368191,-0.1419003,-0.4924014,1.288667,0.2893215,-0.4525253,1.287549,0.1151484,-0.1176355,1.367849,0.1206884,-0.4316202,1.348575,-0.06123676,0.05741115,1.359353,0.03765588,-0.4222778,1.314841,-0.1254859,-0.1934426,1.349498,0.3320903,-0.2065637,1.365047,NA,NA,NotTracked,NotTracked,
0.9443359,-0.3237305,0.05517578,0.9321289,0.265625,0.02099609,0,-3,-1,-2,-2,-1,-2,-1,-2,-2,-2,-1,-1,-1,-1,-4,-2.1875,-2.1875,-2.1875,-36.875,-36.875,-36.875,2.712332,3.059653,7.203104,8.014606,2.835015,2.001143,-0.143694,-0.4653544,1.263904,0.3322457,-0.4711325,1.295712,0.1160651,0.3191116,1.369536,-0.1781757,-0.4497883,1.267059,0.2848684,-0.4490321,1.285714,0.1158706,-0.1181137,1.368003,0.121682,-0.4320978,1.350257,-0.06073238,0.05738769,1.360811,0.03863813,-0.4226107,1.316528,-0.1247186,-0.1935586,1.351212,0.3319258,-0.2078432,1.36493,NA,NA,NotTracked,NotTracked,
0.9443359,-0.3237305,0.05517578,0.9633789,0.1010742,-0.05859375,0,-3,-1,-2,-2,-1,-2,-1,-1,-1,-2,-3,0,-4,1,-7,-2.1875,-2.1875,-2.1875,-5.1875,-5.1875,-5.1875,2.712332,3.059653,7.203104,7.984099,2.832611,1.988963,-0.1410213,-0.4656097,1.265226,0.3327452,-0.4727161,1.295262,0.1166,0.3192525,1.370756,-0.1415013,-0.4503476,1.283083,0.2845402,-0.4521043,1.279783,0.1171735,-0.1179172,1.370709,0.1224423,-0.4326463,1.351825,-0.06012838,0.05734088,1.362522,0.03941053,-0.4230495,1.318116,-0.1238387,-0.1942336,1.352816,0.3318075,-0.208739,1.364747,NA,NA,NotTracked,NotTracked,
0.9443359,-0.3237305,0.05517578,0.9804688,0.2265625,-0.02587891,0,-3,-1,-2,-2,-1,-2,-1,-2,0,-1,-1,0,-1,-2,-2,-2.1875,-2.1875,-2.1875,18.75,18.75,18.75,2.712332,3.059653,7.203104,7.995521,2.833962,2.01042,-0.1373468,-0.4665407,1.26776,0.3332401,-0.4726775,1.293206,0.1172602,0.3195647,1.371644,-0.1677386,-0.4668278,1.263521,0.2854071,-0.4771656,1.283471,0.1180339,-0.1180909,1.371955,0.1230706,-0.4330873,1.353081,-0.05954216,0.05729424,1.363901,0.04008907,-0.4234909,1.319587,-0.1224881,-0.1951666,1.35391,0.3318741,-0.2089381,1.364632,NA,NA,NotTracked,NotTracked,
0.9443359,-0.3237305,0.05517578,0.9472656,0.199707,-0.01318359,0,-3,-1,-2,-2,-1,-2,-1,0,-1,0,0,1,-4,-3,6,-2.1875,-2.1875,-2.1875,-5.625,-5.625,-5.625,2.712332,3.059653,7.203104,7.932396,2.838072,2.07465,-0.1342446,-0.4662559,1.270658,0.3327633,-0.4734339,1.292311,0.1176145,0.3196158,1.372285,-0.1658519,-0.4653764,1.263798,0.286456,-0.46659,1.275726,0.1186771,-0.1183011,1.372842,0.1238883,-0.4335128,1.354576,-0.0590527,0.05706612,1.365311,0.04093472,-0.4238989,1.321324,-0.1208036,-0.196129,1.355395,0.3320111,-0.2090493,1.364583,NA,NA,NotTracked,NotTracked,
0.9443359,-0.3237305,0.05517578,0.9482422,0.1938477,-0.03173828,0,-3,-1,-2,-2,-1,-2,-1,2,0,0,1,0,-1,-5,-2,-2.1875,-2.1875,-2.1875,2.25,2.25,2.25,2.712332,3.059653,7.203104,7.882686,2.841887,2.118005,-0.1318951,-0.4667576,1.272568,0.3329161,-0.4723414,1.292204,0.1179616,0.3198481,1.372695,-0.1654589,-0.4610158,1.268098,0.2864285,-0.4613949,1.285139,0.1197283,-0.1182293,1.374509,0.1248035,-0.4337726,1.356192,-0.05852699,0.05709418,1.365575,0.04186508,-0.4241008,1.323174,-0.1188326,-0.1972093,1.356918,0.3322507,-0.2090232,1.364677,NA,NA,NotTracked,NotTracked,
