ALX,ALY,ALZ,ARX,ARY,ARZ,EMG0L,EMG1L,EMG2L,EMG3L,EMG4L,EMG5L,EMG6L,EMG7L,EMG0R,EMG1R,EMG2R,EMG3R,EMG4R,EMG5R,EMG6R,EMG7R,GLX,GLY,GLZ,GRX,GRY,GRZ,ORL,OPL,OYL,ORR,OPR,OYR,LHNX,LHNY,LHNZ,RHNX,RHNY,RHNZ,HX,HY,HZ,LTX,LTY,LTZ,RTX,RTY,RTZ,SpineMidX,SpineMidY,SpineMidZ,SpineBaseX,SpineBaseY,SpineBaseZ,ShoulderLeftX,ShoulderLeftY,ShoulderLeftZ,ShoulderRightX,ShoulderRightY,ShoulderRightZ,ElbowLeftX,ElbowLeftY,ElbowLeftZ,ElbowRightX,ElbowRightY,ElbowRightZ,Myo_Pose_left,Myo_Pose_Right,Kinect_pose_left,Kinect_pose_right
0.9213867,0.3125,0.08154297,0.9423828,-0.3271484,0.05126953,-7,-2,-2,-2,-1,1,0,-2,-2,0,-2,-1,0,-1,0,-2,1.5,1.5,1.5,-0.8125,-0.8125,-0.8125,7.105844,3.033251,7.44146,2.753194,3.039943,6.482839,-0.134306,-0.4656243,1.270229,0.3071152,-0.4700201,1.258814,0.08335415,0.3272791,1.416169,-0.1746075,-0.4634661,1.272312,0.3532074,-0.468756,1.262933,0.08520938,-0.1161858,1.400656,0.09022676,-0.434477,1.375513,-0.08993524,0.05326142,1.383992,0.008899467,-0.425236,1.340409,-0.1354285,-0.1954325,1.362137,0.2983502,-0.2067906,1.372004,NA,NA,NotTracked,NotTracked,
0.925293,0.3222656,0.07324219,0.9443359,-0.3354492,0.05908203,-1,-1,0,2,-1,-2,-4,2,-1,-1,-1,-2,-1,-1,0,-2,1.5,1.5,1.5,-0.25,-0.25,-0.25,7.101951,3.034575,7.448562,2.737311,3.039191,6.497664,-0.1353555,-0.4649186,1.269903,0.3053159,-0.4691511,1.256546,0.08372165,0.3273005,1.415078,-0.1754365,-0.4687565,1.272874,0.2661344,-0.465034,1.261087,0.08561426,-0.1161569,1.399532,0.09047961,-0.4343486,1.374503,-0.0898121,0.05335021,1.383145,0.009135466,-0.4250906,1.339441,-0.135273,-0.1953371,1.361452,0.2984422,-0.2067356,1.370354,NA,NA,NotTracked,NotTracked,
0.9169922,0.3071289,0.07128906,0.9326172,-0.328125,0.05957031,4,-3,-1,-1,-2,-6,-7,0,-2,0,-2,-1,-1,-2,-2,-1,0.6875,0.6875,0.6875,-1.0625,-1.0625,-1.0625,7.091394,3.036436,7.461445,2.72747,3.039271,6.507832,-0.1365907,-0.4648655,1.27046,0.3065419,-0.468153,1.2557,0.08407712,0.3273078,1.413836,-0.1769609,-0.465861,1.271007,0.2715662,-0.4664415,1.234731,0.08581289,-0.1160774,1.398805,0.09059438,-0.4343816,1.373791,-0.08985376,0.05351257,1.382671,0.009249371,-0.4250976,1.33869,-0.1353302,-0.195235,1.360707,0.2984814,-0.2069726,1.368998,NA,NA,NotTracked,NotTracked,
0.918457,0.3110352,0.07519531,0.9453125,-0.3256836,0.06640625,1,-1,0,0,-3,-2,-2,-1,-2,-3,-2,-2,-2,-2,-1,0,1.375,1.375,1.375,-0.9375,-0.9375,-0.9375,7.088397,3.03735,7.466718,2.714237,3.041138,6.521286,-0.1376164,-0.4650469,1.270359,0.3056701,-0.4704302,1.25433,0.08429585,0.3271893,1.413038,-0.1603619,-0.4612747,1.243734,0.3034986,-0.4723656,1.213179,0.08600575,-0.1161508,1.398211,0.09062061,-0.4344602,1.373271,-0.08974976,0.05357532,1.382049,0.009266429,-0.4251146,1.338209,-0.1355131,-0.1950448,1.360354,0.2985568,-0.2070758,1.367984,NA,NA,NotTracked,NotTracked,
0.9301758,0.3193359,0.06738281,0.9443359,-0.3144531,0.05419922,1,-2,-1,-2,0,1,-2,0,-1,0,-1,-2,-2,0,0,-2,-0.375,-0.375,-0.375,0.3125,0.3125,0.3125,7.0887,3.037366,7.468551,2.710625,3.041273,6.52659,-0.138848,-0.4645531,1.269024,0.3064844,-0.4602523,1.25444,0.0844918,0.3270229,1.412312,-0.1801008,-0.4605412,1.268036,0.2735219,-0.4564086,1.230896,0.0861281,-0.1163243,1.397363,0.09057053,-0.4347394,1.372426,-0.08968256,0.05368895,1.381342,0.0092021,-0.4253574,1.337336,-0.1361872,-0.1953218,1.35962,0.2985486,-0.2072657,1.366776,NA,NA,NotTracked,NotTracked,
0.9150391,0.3105469,0.0703125,0.9414063,-0.3271484,0.0703125,2,-1,-1,1,0,-1,-1,-4,-2,0,-3,-2,-2,-1,0,-1,-2.6875,-2.6875,-2.6875,-3.3125,-3.3125,-3.3125,7.090018,3.037448,7.463283,2.709231,3.041502,6.524513,-0.1389711,-0.4640655,1.268166,0.3074149,-0.4597826,1.254878,0.08461922,0.3269048,1.411465,-0.1603538,-0.4638438,1.236241,0.2695242,-0.4547287,1.23878,0.08608481,-0.1162881,1.39655,0.09053033,-0.4348098,1.371844,-0.08954527,0.05390311,1.380522,0.009137817,-0.4253996,1.336679,-0.1365555,-0.1950124,1.358453,0.298611,-0.2074638,1.365841,NA,NA,NotTracked,NotTracked,
0.9482422,0.3212891,0.08740234,0.9472656,-0.3251953,0.05371094,6,1,-1,-1,-1,0,0,-11,0,-2,0,-1,-1,-1,-1,-2,2.125,2.125,2.125,0.1875,0.1875,0.1875,7.107008,3.035348,7.445574,2.712284,3.042171,6.519731,-0.1396765,-0.4642289,1.26654,0.3070368,-0.4597476,1.254823,0.08457146,0.3271267,1.410034,-0.1620785,-0.4627669,1.237657,0.2687607,-0.4811521,1.268909,0.0861408,-0.1160396,1.395751,0.09047992,-0.434603,1.371295,-0.0897747,0.05422201,1.379786,0.009120301,-0.4252152,1.336294,-0.1368273,-0.1946194,1.357513,0.2986878,-0.2070468,1.364984,NA,NA,NotTracked,NotTracked,
1.001953,0.355957,0.08691406,0.9458008,-0.3388672,0.04443359,4,-7,-2,-2,-1,-3,4,37,-1,-1,-1,0,-3,0,1,-1,3.8125,3.8125,3.8125,2.3125,2.3125,2.3125,7.075378,3.043475,7.486158,2.718001,3.044568,6.515624,-0.1399345,-0.4626874,1.265665,0.3068571,-0.468581,1.250232,0.08468297,0.32717,1.409245,-0.1801369,-0.4624173,1.264875,0.2696208,-0.450005,1.234968,0.08610534,-0.1159423,1.395197,0.09027808,-0.4343856,1.370841,-0.08992503,0.0544444,1.37883,0.008950922,-0.4250261,1.335925,-0.1373143,-0.1944891,1.356395,0.2989553,-0.2068765,1.364268,NA,NA,NotTracked,NotTracked,
0.9926758,0.6064453,0.1708984,0.9331055,-0.3344727,0.03759766,17,10,-12,-9,1,1,-1,-39,-1,-1,-2,-1,-2,-2,-1,0,-25.5,-25.5,-25.5,5.375,5.375,5.375,6.973628,3.119613,7.575534,2.730822,3.052279,6.510828,-0.1395423,-0.4632614,1.263883,0.3089117,-0.4579664,1.226969,0.08443061,0.3273206,1.408413,-0.1807347,-0.4614247,1.265037,0.266322,-0.434463,1.207182,0.08607349,-0.1157597,1.394768,0.09000874,-0.4341482,1.370353,-0.09010743,0.05450766,1.378189,0.008725619,-0.4248729,1.335521,-0.1374352,-0.1943397,1.355529,0.299397,-0.2049823,1.363446,NA,NA,NotTracked,NotTracked,
0.9516602,0.7529297,0.3989258,0.921875,-0.3359375,0.07617188,27,10,4,-4,-1,7,-1,5,0,-2,0,-1,0,-1,-1,-1,7.125,7.125,7.125,-10.5625,-10.5625,-10.5625,6.7981,3.399799,7.733087,2.734427,3.058749,6.498892,-0.1402672,-0.4608687,1.261522,0.3154754,-0.4178264,1.16619,0.08427499,0.3272777,1.407842,-0.157817,-0.4568861,1.227439,0.2812763,-0.4075645,1.163889,0.08552422,-0.1154981,1.394122,0.08881211,-0.43378,1.369585,-0.09039844,0.05445084,1.377422,0.007527784,-0.4246646,1.334872,-0.1377433,-0.1938289,1.354579,0.3008669,-0.1932745,1.359765,NA,NA,NotTracked,Lasso,
0.9042969,0.8681641,0.5224609,0.9550781,-0.3476563,0.06445313,-9,2,-1,3,1,2,-4,-1,-2,-3,0,-4,0,-2,0,-1,7.5,7.5,7.5,-7.9375,-7.9375,-7.9375,6.74195,3.748495,7.826818,2.717406,3.063821,6.499299,-0.1418963,-0.4597573,1.260063,0.3251605,-0.3444418,1.1014,0.08430041,0.3273336,1.407555,-0.1811291,-0.4732997,1.257636,0.3013721,-0.2886086,1.075833,0.08498012,-0.1151646,1.393623,0.08727235,-0.4330766,1.36876,-0.09048407,0.05479698,1.376846,0.005916815,-0.4240212,1.334011,-0.1383554,-0.1926387,1.352829,0.3018793,-0.169117,1.350394,NA,NA,NotTracked,Unknown,
0.7114258,0.9086914,0.5585938,0.9477539,-0.3339844,0.05615234,-14,3,-2,-10,-5,-13,-3,14,-2,0,-3,-3,-1,0,-2,-2,38.8125,38.8125,38.8125,-2.1875,-2.1875,-2.1875,6.749712,4.201667,7.89038,2.716667,3.073825,6.493948,-0.1426111,-0.458933,1.256322,0.3233008,-0.2213904,1.054221,0.08460187,0.3273843,1.407416,-0.1652232,-0.4549424,1.226327,0.2924357,-0.1725524,1.032882,0.08426555,-0.1147706,1.393267,0.08593599,-0.4321911,1.367744,-0.09056971,0.0551447,1.376407,0.004431479,-0.4229036,1.332386,-0.1393403,-0.1918431,1.351014,0.3029689,-0.1560083,1.342016,NA,NA,NotTracked,Unknown,
0.3037109,0.9907227,0.4848633,0.9384766,-0.3349609,0.07617188,-2,-4,-11,-1,1,1,1,0,-1,-2,-2,-1,-1,-1,-1,0,47.75,47.75,47.75,5.375,5.375,5.375,6.822273,4.886605,7.981367,2.753428,3.097076,6.462795,-0.1441541,-0.4581866,1.25263,0.307505,-0.07946233,1.032608,0.08537596,0.3273771,1.407606,-0.1844804,-0.4592603,1.243818,0.2684386,-0.05581937,1.034786,0.08407273,-0.1147253,1.393237,0.08545984,-0.4319721,1.367423,-0.09057262,0.0554,1.376231,0.003823621,-0.4225664,1.331628,-0.140479,-0.1913133,1.349841,0.3008438,-0.1605102,1.318684,NA,NA,NotTracked,Unknown,
-0.2094727,0.9589844,0.5019531,0.9208984,-0.3310547,0.06347656,45,-5,-2,-7,-3,-6,-3,27,-1,-1,0,-2,-2,-1,-1,-1,39.25,39.25,39.25,4.6875,4.6875,4.6875,6.905814,5.406734,8.08993,2.782747,3.111832,6.44109,-0.1443976,-0.4566385,1.248414,0.284483,0.06263551,1.030135,0.08684284,0.3270963,1.407976,-0.1855735,-0.4618964,1.247435,0.2423774,0.06280333,1.048187,0.08392972,-0.1147376,1.393203,0.08505429,-0.4319452,1.3669,-0.09049325,0.05546377,1.376212,0.003437108,-0.4224575,1.330934,-0.1413579,-0.1909928,1.348848,0.3212453,-0.1201553,1.24576,NA,NA,NotTracked,Open,
-0.9824219,0.8007813,0.1943359,0.9155273,-0.3427734,0.07226563,-8,8,4,3,3,13,5,4,1,-1,0,0,-1,2,-1,0,61.9375,61.9375,61.9375,3.4375,3.4375,3.4375,7.065688,5.877819,8.252632,2.807013,3.120915,6.42115,-0.1431982,-0.4555776,1.246033,0.2594382,0.1794142,1.060821,0.08941904,0.3264548,1.408381,-0.1835487,-0.4620425,1.246379,0.2161066,0.1723623,1.083062,0.08378551,-0.1145997,1.393103,0.08431614,-0.4309547,1.365877,-0.09050997,0.0558137,1.376759,0.002629833,-0.4215686,1.330308,-0.1419798,-0.1899588,1.348417,0.3331048,-0.1106678,1.25179,NA,NA,NotTracked,Open,
-0.5737305,0.6289063,0.1967773,0.9213867,-0.3505859,0.08056641,-46,-11,-4,-1,-1,8,17,-6,-1,-2,-1,0,0,1,0,0,49.3125,49.3125,49.3125,-0.75,-0.75,-0.75,7.292165,6.244883,8.479902,2.821559,3.119103,6.409125,-0.1429232,-0.4558161,1.245593,0.2331381,0.2610757,1.100385,0.09202743,0.3255985,1.407406,-0.1827373,-0.4617376,1.246035,0.1920991,0.2438752,1.139727,0.08404495,-0.1131737,1.392549,0.08468603,-0.425042,1.363359,-0.07715385,0.05749767,1.384083,0.001593119,-0.4152545,1.32915,-0.1429359,-0.1871321,1.348523,0.3443477,-0.06953541,1.213724,NA,NA,NotTracked,Open,
-0.5512695,0.5830078,0.07519531,0.9243164,-0.3588867,0.06738281,24,-8,-4,-1,3,9,-11,4,-1,-2,0,-1,-1,-2,0,2,61.9375,61.9375,61.9375,7.25,7.25,7.25,7.600859,6.502555,8.755963,2.822193,3.11276,6.417024,-0.1419612,-0.4551315,1.250096,0.2120715,0.3111451,1.134961,0.09564449,0.3242822,1.406098,-0.1826496,-0.462437,1.250388,0.1783382,0.2817759,1.18187,0.0847253,-0.1110331,1.391958,0.08531219,-0.4204425,1.361657,-0.06932061,0.06025567,1.387942,0.001385656,-0.4099193,1.329107,-0.1435806,-0.1837939,1.349578,0.3479938,-0.02387749,1.186931,NA,NA,NotTracked,Open,
-0.4780273,0.543457,0.0009765625,0.9208984,-0.3583984,0.06445313,-15,1,2,2,0,4,5,24,-1,-3,0,1,-1,-1,-2,0,34.6875,34.6875,34.6875,9.125,9.125,9.125,7.813854,6.618361,8.954511,2.825789,3.104776,6.429451,-0.1419224,-0.4561692,1.254231,0.1970456,0.3334159,1.165227,0.1011603,0.3239746,1.40121,-0.1810083,-0.453006,1.253962,0.1697598,0.3037607,1.21496,0.08534849,-0.1080845,1.391182,0.08396076,-0.414198,1.360616,-0.06596778,0.0610661,1.3894,-0.0001453277,-0.4024785,1.330152,-0.144248,-0.1791949,1.3517,0.3494647,0.01267553,1.17422,NA,NA,NotTracked,Open,
-0.5068359,0.3442383,-0.1162109,0.9291992,-0.362793,0.08496094,3,1,1,1,1,-5,-6,4,-2,1,-1,-3,-1,-1,0,-2,21.0625,21.0625,21.0625,13.125,13.125,13.125,8.190857,6.743713,9.349573,2.830469,3.09638,6.45465,-0.1433866,-0.4579341,1.259461,0.1797043,0.3607987,1.200379,0.1050943,0.3244322,1.396236,-0.1816304,-0.4636925,1.2555,0.1374774,0.3333439,1.248578,0.08558272,-0.1059035,1.390152,0.08200796,-0.410981,1.359258,-0.06454448,0.06136354,1.390362,-0.002270813,-0.3992451,1.329777,-0.1444841,-0.1759443,1.355015,0.3141791,0.1266513,1.161984,NA,NA,NotTracked,Open,
-0.7807617,0.2924805,-0.2216797,0.9296875,-0.3789063,0.09423828,-17,-12,-3,1,-1,-8,16,37,-2,-3,-2,-1,-3,-1,-1,-2,-6.6875,-6.6875,-6.6875,4.375,4.375,4.375,8.597772,6.813387,9.798932,2.805407,3.08515,6.49274,-0.1442479,-0.4585556,1.266502,0.1700851,0.3733628,1.224377,0.1055433,0.3243301,1.394627,-0.1828389,-0.4460707,1.265667,0.1174599,0.3412751,1.251855,0.085261,-0.1047883,1.389628,0.08019451,-0.4095128,1.35856,-0.06311803,0.06221585,1.391308,-0.004323879,-0.3974707,1.329473,-0.1446897,-0.1740073,1.358052,0.3144211,0.1281788,1.162259,NA,NA,NotTracked,Open,
-0.8432617,0.2919922,-0.2539063,0.9204102,-0.3720703,0.07861328,-1,4,1,2,4,-16,-30,16,-3,-3,-1,-1,-1,-1,-2,0,-15.75,-15.75,-15.75,2.75,2.75,2.75,8.745711,6.83313,9.982251,2.765475,3.075941,6.542111,-0.1472056,-0.4578472,1.273304,0.1662738,0.3702943,1.238629,0.1053731,0.3248129,1.394274,-0.1824568,-0.4519573,1.262536,0.1106467,0.3359328,1.254271,0.08478895,-0.1042582,1.389411,0.07853921,-0.4089551,1.358432,-0.06281422,0.0623365,1.391862,-0.0060132,-0.3970064,1.32967,-0.1454895,-0.1735971,1.361022,0.3141872,0.1296647,1.162498,NA,NA,NotTracked,Open,
-1.008789,0.1904297,-0.5117188,0.9321289,-0.3652344,0.0859375,29,7,2,1,-3,-44,-14,-35,-2,-2,-1,0,-1,-1,0,-1,-4.125,-4.125,-4.125,0.5,0.5,0.5,8.8886,6.843996,0.1526197,2.720373,3.069949,6.59476,-0.1501577,-0.459257,1.276713,0.1647668,0.3681999,1.243148,0.1048829,0.3251712,1.394037,-0.1776643,-0.4603775,1.251846,0.1109703,0.3350486,1.253135,0.08417584,-0.1038207,1.389137,0.07715511,-0.4086809,1.358221,-0.06273216,0.06188855,1.392144,-0.007583359,-0.3965467,1.329703,-0.1464811,-0.173062,1.362738,0.3136938,0.1303924,1.162434,NA,NA,NotTracked,Open,
-0.953125,0.3115234,-0.3652344,0.9467773,-0.3388672,0.07177734,-12,7,0,-2,-1,3,-4,-29,1,0,0,-1,0,1,-1,-2,-0.5,-0.5,-0.5,1.75,1.75,1.75,8.826678,6.847319,0.08437046,2.708786,3.069731,6.61231,-0.1525362,-0.4611203,1.279759,0.1642525,0.3674805,1.239658,0.1043348,0.325388,1.393959,-0.1915827,-0.4485963,1.272923,0.1060197,0.3331649,1.252747,0.08371364,-0.1034684,1.389038,0.07598084,-0.4083052,1.358256,-0.06259231,0.06167929,1.39241,-0.008807546,-0.3960759,1.329929,-0.1471132,-0.1728369,1.364206,0.3130333,0.1306848,1.162231,NA,NA,NotTracked,Unknown,
-1.015137,0.3295898,-0.2753906,0.9321289,-0.3408203,0.07910156,36,-5,0,1,-2,-5,-6,-10,-1,-3,-1,-1,-1,-2,0,-1,12.625,12.625,12.625,-1.4375,-1.4375,-1.4375,8.749292,6.850614,9.989574,2.717826,3.072263,6.602901,-0.1548117,-0.4619313,1.279855,0.1651199,0.3672584,1.233506,0.1036929,0.3253755,1.393731,-0.1947106,-0.4497442,1.27197,0.1095686,0.3327767,1.252679,0.08329606,-0.1030822,1.389057,0.07502777,-0.4077474,1.358447,-0.06255873,0.0614838,1.3927,-0.009994892,-0.3949476,1.330375,-0.1481508,-0.1734927,1.365625,0.3127831,0.1309385,1.162196,NA,NA,NotTracked,Open,
-0.9018555,0.3310547,-0.1870117,0.9248047,-0.3461914,0.078125,21,0,0,1,-1,-18,6,-5,-2,-1,-1,-2,-1,-1,0,-1,-2.3125,-2.3125,-2.3125,-4.0625,-4.0625,-4.0625,8.64936,6.849111,9.8841,2.737717,3.075966,6.573722,-0.1559493,-0.4606878,1.278721,0.1656146,0.3686578,1.228749,0.1033054,0.325392,1.393476,-0.1868652,-0.4551359,1.260427,0.1100478,0.3352352,1.251215,0.08299344,-0.1025445,1.389079,0.07415748,-0.4068356,1.35876,-0.0626431,0.06146626,1.39301,-0.010915,-0.3937373,1.330924,-0.1490889,-0.1733875,1.366384,0.3126417,0.1313673,1.162188,NA,NA,NotTracked,Open,
-0.8374023,0.3349609,-0.175293,0.9272461,-0.3408203,0.0703125,-28,2,7,7,3,-3,-7,-50,0,0,0,-2,0,0,0,0,-1.625,-1.625,-1.625,-2.75,-2.75,-2.75,8.632227,6.846593,9.871624,2.753399,3.077149,6.552235,-0.154917,-0.4602373,1.277695,0.1631051,0.3689489,1.231032,0.1028652,0.32553,1.393193,-0.1948738,-0.4638019,1.271857,0.1091545,0.3344179,1.25125,0.08265458,-0.1021354,1.389145,0.07338752,-0.4063577,1.359173,-0.06270976,0.06156855,1.393293,-0.01161736,-0.393431,1.331459,-0.1502613,-0.1731447,1.367407,0.3119106,0.1321983,1.162124,NA,NA,NotTracked,Open,
-0.8579102,0.3173828,-0.2402344,0.9399414,-0.3486328,0.05859375,11,-8,-2,-1,-2,-17,10,-2,0,-1,0,-1,1,-1,0,0,-6.75,-6.75,-6.75,-1.125,-1.125,-1.125,8.697903,6.837668,9.955872,2.774169,3.078671,6.526807,-0.1534578,-0.4605598,1.276852,0.160298,0.3705644,1.238064,0.1021505,0.3256448,1.392843,-0.1958169,-0.4591502,1.276893,0.1024752,0.3345968,1.252203,0.08221883,-0.101845,1.389266,0.07249692,-0.4060233,1.359628,-0.06270589,0.06165545,1.393387,-0.01260142,-0.3926699,1.331922,-0.1506212,-0.1724919,1.367729,0.311207,0.1325681,1.161975,NA,NA,NotTracked,Open,
-0.9238281,0.2504883,-0.3720703,0.9243164,-0.340332,0.06933594,9,5,-1,-4,-3,-12,-5,9,-1,0,-1,-1,-2,-3,-2,-1,-2.3125,-2.3125,-2.3125,-2.5625,-2.5625,-2.5625,8.791161,6.829251,0.06230737,2.802597,3.081432,6.492167,-0.1522362,-0.4611678,1.27411,0.1585823,0.3657083,1.238617,0.1013445,0.3260603,1.392495,-0.1936277,-0.4684314,1.27475,0.1035254,0.3294389,1.250924,0.08146972,-0.1015458,1.389399,0.07159677,-0.4057305,1.360059,-0.06274703,0.06169936,1.393446,-0.0135351,-0.3919634,1.332297,-0.1507212,-0.1724482,1.36781,0.3104717,0.1326584,1.161723,NA,NA,NotTracked,Open,
-0.8286133,0.206543,-0.2612305,0.8994141,-0.3447266,0.08447266,-24,8,2,0,-1,3,-2,-10,0,-2,-3,-2,-2,-3,-2,1,-3,-3,-3,1.3125,1.3125,1.3125,8.68389,6.83475,9.934146,2.813745,3.084291,6.479056,-0.1519663,-0.4614477,1.273777,0.162789,0.3660029,1.229575,0.1010444,0.3259916,1.391882,-0.1928332,-0.4605967,1.272507,0.106558,0.3328875,1.251356,0.08111527,-0.1014968,1.389514,0.07101491,-0.4058793,1.360462,-0.06301209,0.06148602,1.393601,-0.01407447,-0.3925404,1.332718,-0.1509918,-0.1723762,1.367873,0.3100595,0.1321622,1.161388,NA,NA,NotTracked,Open,
-0.6357422,0.2675781,-0.1777344,0.9375,-0.3291016,0.07421875,8,-4,-1,-2,1,-3,-2,-10,-2,-1,-2,-1,-2,1,-1,-2,0.375,0.375,0.375,7.625,7.625,7.625,8.469494,6.82384,9.691843,2.825964,3.083991,6.476948,-0.1517647,-0.461853,1.27249,0.1762797,0.3704637,1.205585,0.1005443,0.3261622,1.391474,-0.1926119,-0.4604193,1.271448,0.1288016,0.3497825,1.255872,0.08078099,-0.1015015,1.389774,0.07068516,-0.4059837,1.360926,-0.06308901,0.06138021,1.393655,-0.01441507,-0.393232,1.333744,-0.1511832,-0.1725587,1.367736,0.3109336,0.1284869,1.160542,NA,NA,NotTracked,Open,
-0.5688477,0.2724609,-0.05761719,0.9365234,-0.3203125,0.09179688,11,2,-3,-3,0,4,-2,-6,0,0,2,-2,-2,-2,0,-2,-30.625,-30.625,-30.625,7.9375,7.9375,7.9375,8.081892,6.757623,9.305141,2.860485,3.077876,6.460462,-0.1508471,-0.4618662,1.272153,0.1973857,0.3141886,1.157131,0.09680691,0.3259012,1.393918,-0.1919874,-0.4603608,1.271231,0.1703342,0.2765899,1.214462,0.08026051,-0.1015903,1.390235,0.07049298,-0.4060265,1.36132,-0.06324443,0.06129595,1.393798,-0.01462774,-0.39327,1.334426,-0.1512854,-0.1741701,1.367353,0.3106178,0.1122674,1.156153,NA,NA,NotTracked,Open,
-0.53125,0.2773438,-0.02197266,0.9487305,-0.3486328,0.1025391,-1,1,-1,0,0,-3,-3,7,-1,0,-2,-2,0,-1,0,-2,-31.75,-31.75,-31.75,4,4,4,7.935853,6.716424,9.160667,2.885146,3.069265,6.440811,-0.1504297,-0.462715,1.272876,0.2089774,0.2627205,1.114352,0.08824132,0.3240772,1.400236,-0.1904486,-0.4613219,1.269936,0.1738374,0.2539903,1.178333,0.07959653,-0.1021718,1.391001,0.07157972,-0.4069246,1.36221,-0.06496128,0.06077149,1.394501,-0.0133733,-0.3940613,1.334781,-0.1513468,-0.1771319,1.3672,0.3062806,0.071234,1.147872,NA,NA,NotTracked,Open,
-0.5029297,0.6621094,0.2587891,0.9536133,-0.3540039,0.09765625,0,-3,-3,0,-1,-4,-3,4,-2,-2,2,-2,-1,-1,-1,-2,-54.625,-54.625,-54.625,3.125,3.125,3.125,7.187737,6.177956,8.438163,2.908506,3.060106,6.426292,-0.1482874,-0.4634404,1.273793,0.2255369,0.1773819,1.062923,0.08228734,0.3245377,1.40399,-0.1733761,-0.4641032,1.248655,0.1992894,0.196289,1.109364,0.07787788,-0.1046174,1.391958,0.07128964,-0.4122412,1.363134,-0.0973691,0.05299701,1.394068,-0.01302481,-0.4030789,1.334506,-0.1505441,-0.1808635,1.367405,0.3150476,-0.04953841,1.184806,NA,NA,NotTracked,Open,
-0.3999023,0.7827148,0.3515625,0.9155273,-0.355957,0.08496094,-5,-2,-4,-4,-3,-2,-1,-6,-1,-1,1,-2,-1,-1,-2,-1,-65.6875,-65.6875,-65.6875,-6.75,-6.75,-6.75,6.950305,5.754661,8.228326,2.914057,3.051951,6.41756,-0.1468827,-0.4659389,1.275327,0.2451887,0.04100469,1.037173,0.07693388,0.3249476,1.408888,-0.1798582,-0.4647363,1.259223,0.2428547,0.07837896,1.06525,0.0729233,-0.1107594,1.39565,0.07132964,-0.4231851,1.364141,-0.1014488,0.05197407,1.393978,-0.01172271,-0.4159061,1.333892,-0.1487705,-0.1890427,1.367338,0.2954833,-0.09520185,1.214677,NA,NA,NotTracked,Open,
-0.1303711,1.010254,0.3974609,0.934082,-0.3461914,0.08544922,8,3,4,5,0,-2,-1,2,-1,-1,1,1,-2,-3,-2,0,-54.8125,-54.8125,-54.8125,-1,-1,-1,6.818321,5.252413,8.092345,2.893207,3.054259,6.433227,-0.1471162,-0.4662666,1.274915,0.2619257,-0.0986931,1.006647,0.07295904,0.3263565,1.412708,-0.1855474,-0.4635046,1.273148,0.2213315,-0.0799605,0.9865834,0.07191561,-0.1118368,1.396018,0.07166684,-0.4256347,1.364405,-0.1034017,0.05150539,1.393161,-0.01095562,-0.4186035,1.333313,-0.1489467,-0.1915177,1.366747,0.2667783,-0.1561353,1.277352,NA,NA,NotTracked,Unknown,
0.2207031,1.079102,0.4794922,0.9477539,-0.34375,0.1098633,-2,-2,0,0,-1,-2,0,5,1,-3,-3,-1,-1,-2,-1,-1,-35.5,-35.5,-35.5,-10.875,-10.875,-10.875,6.73926,4.725908,8.007096,2.849087,3.054827,6.464617,-0.1497216,-0.468248,1.272883,0.2749521,-0.2293784,1.032202,0.06996079,0.3270285,1.414732,-0.1900384,-0.47264,1.273571,0.2483665,-0.2048351,1.0165,0.07186034,-0.1120066,1.395888,0.071721,-0.4264387,1.364583,-0.1059926,0.0511039,1.391999,-0.01072525,-0.4194021,1.332913,-0.1497376,-0.1929385,1.365859,0.2716121,-0.1498408,1.31057,NA,NA,NotTracked,Unknown,
0.7783203,0.8725586,0.4477539,0.9545898,-0.3305664,0.08886719,0,-1,-1,-2,-1,-3,1,2,0,-1,-2,1,0,-2,-2,-3,-30.1875,-30.1875,-30.1875,-12.8125,-12.8125,-12.8125,6.722225,3.9348,7.86708,2.799387,3.056437,6.498822,-0.1519594,-0.4684066,1.271913,0.2845374,-0.3456419,1.076652,0.06830101,0.3276254,1.415955,-0.1923121,-0.4616536,1.269922,0.2715849,-0.321525,1.049354,0.07096811,-0.1121766,1.396067,0.07184619,-0.42737,1.364973,-0.1069588,0.05105798,1.391036,-0.01047214,-0.4200726,1.332745,-0.150678,-0.1940493,1.364248,0.2728426,-0.1503702,1.315245,NA,NA,NotTracked,Unknown,
1.009766,0.4663086,0.3525391,0.934082,-0.2973633,0.07421875,3,4,3,2,2,1,-13,-2,-1,1,0,-1,-1,-1,-2,-1,12,12,12,-6.625,-6.625,-6.625,6.799041,3.521944,7.731551,2.762714,3.059786,6.523641,-0.1550487,-0.4677466,1.269014,0.2918778,-0.4126781,1.15422,0.06754353,0.3277418,1.416428,-0.1821976,-0.4679531,1.240789,0.2826995,-0.3845549,1.120718,0.07075818,-0.112505,1.39594,0.07238236,-0.428761,1.365391,-0.1080572,0.05075144,1.388605,-0.00979998,-0.4211968,1.33255,-0.1515531,-0.1949569,1.361599,0.2750466,-0.1626999,1.320585,NA,NA,NotTracked,Lasso,
1.152832,0.565918,0.1025391,0.9433594,-0.3198242,0.08154297,0,0,1,-2,-3,-1,1,1,-1,0,0,0,-1,-1,0,-2,19.125,19.125,19.125,-5.9375,-5.9375,-5.9375,7.109165,3.20572,7.433202,2.751858,3.062606,6.522918,-0.1558305,-0.4664252,1.263685,0.3003773,-0.4539725,1.221562,0.06724524,0.3278437,1.416484,-0.1853356,-0.4571809,1.234105,0.3374438,-0.4342802,1.217367,0.07081258,-0.1127136,1.39572,0.07291735,-0.429767,1.36569,-0.1080334,0.05126907,1.385152,-0.009135135,-0.4219602,1.332235,-0.1526405,-0.1953568,1.358935,0.276331,-0.1854028,1.329508,NA,NA,NotTracked,Lasso,
1.107422,0.4624023,0.04052734,0.9301758,-0.3144531,0.06982422,-3,1,-2,0,0,-1,-1,-1,0,-2,0,1,0,-2,-1,-3,-24.9375,-24.9375,-24.9375,-4.875,-4.875,-4.875,7.38961,3.01365,7.10225,2.755589,3.063561,6.508821,-0.1564158,-0.4637524,1.260805,0.3016528,-0.4640676,1.27326,0.06722406,0.3279926,1.416449,-0.1953296,-0.4707517,1.234643,0.3437245,-0.4502368,1.245833,0.07129411,-0.1129735,1.395189,0.07332828,-0.4303068,1.365849,-0.1077366,0.05168784,1.383145,-0.008571825,-0.4223655,1.332037,-0.1532845,-0.1953097,1.356531,0.2792346,-0.1993151,1.342317,NA,NA,NotTracked,NotTracked,
1.006836,0.3818359,0.09570313,0.9296875,-0.3129883,0.06201172,-5,-4,-3,-3,-1,1,-3,-6,0,-1,0,0,-1,0,-1,-1,-46.75,-46.75,-46.75,-5.5,-5.5,-5.5,7.54098,2.918295,6.842814,2.762691,3.059829,6.493978,-0.1544583,-0.4631583,1.257575,0.299379,-0.4694557,1.298107,0.06754998,0.3282954,1.415967,-0.1948498,-0.4646397,1.254637,0.3377578,-0.469079,1.29,0.07181261,-0.1131062,1.394623,0.07370985,-0.4306371,1.365994,-0.1069145,0.05188201,1.380291,-0.008055199,-0.4226096,1.331955,-0.1530862,-0.1952852,1.353996,0.2818287,-0.2076378,1.354779,NA,NA,NotTracked,NotTracked,
0.9702148,0.3476563,0.1533203,0.9399414,-0.3251953,0.05566406,-4,-3,-1,-1,0,-7,-8,-4,-1,-1,-1,0,-1,-1,-1,-1,-13.9375,-13.9375,-13.9375,-9.5,-9.5,-9.5,7.476482,2.909668,6.864654,2.758469,3.049875,6.484264,-0.1526892,-0.4636398,1.257171,0.2999417,-0.472567,1.308708,0.06836761,0.3284427,1.41504,-0.1938023,-0.4675891,1.262733,0.3494539,-0.4748232,1.263333,0.07245517,-0.1132317,1.394037,0.07422951,-0.4309249,1.366059,-0.1058692,0.05276639,1.377629,-0.007396025,-0.4227374,1.331834,-0.1525487,-0.1951315,1.351862,0.2857511,-0.2119616,1.368179,NA,NA,NotTracked,NotTracked,
0.9619141,0.3364258,0.1206055,0.9331055,-0.3383789,0.03271484,-1,-1,0,-3,-1,-3,-5,-1,-1,-2,0,-3,-3,-1,-2,-1,-7.375,-7.375,-7.375,-6.6875,-6.6875,-6.6875,7.318572,2.939943,7.007155,2.739585,3.037864,6.480274,-0.1501794,-0.4626636,1.256038,0.3026659,-0.4730365,1.305139,0.06991697,0.328341,1.413662,-0.1891061,-0.456952,1.248819,0.3449792,-0.4607148,1.31125,0.07331359,-0.1135594,1.393005,0.07485732,-0.4313668,1.36574,-0.1049041,0.05308437,1.373788,-0.006562531,-0.4230639,1.331049,-0.1516744,-0.195005,1.349437,0.2874874,-0.2121968,1.373447,NA,NA,NotTracked,NotTracked,
0.9570313,0.2519531,0.1196289,0.9243164,-0.3295898,0.04882813,0,-4,-1,0,-2,7,8,9,-2,-1,-2,-3,-2,0,-1,-3,-4.8125,-4.8125,-4.8125,-3.75,-3.75,-3.75,7.181993,2.971131,7.133622,2.735855,3.037658,6.477139,-0.1487215,-0.4625625,1.256292,0.3034883,-0.4734974,1.299007,0.07117482,0.3284806,1.412544,-0.1889701,-0.4649212,1.259848,0.348376,-0.4640471,1.296807,0.07372373,-0.1135187,1.392484,0.07567646,-0.4314799,1.365566,-0.1034272,0.05366288,1.371156,-0.005515323,-0.4230172,1.330432,-0.151257,-0.1949283,1.348045,0.2886945,-0.2117272,1.376372,NA,NA,NotTracked,NotTracked,
0.8881836,0.2670898,0.09472656,0.9311523,-0.3374023,0.05175781,-1,2,0,0,0,-3,-6,-13,-3,-1,-1,-2,0,-2,-1,1,33,33,33,0.6875,0.6875,0.6875,7.093242,2.996112,7.274618,2.729528,3.043688,6.481573,-0.1485375,-0.4622042,1.254219,0.3020889,-0.4717766,1.290464,0.07258222,0.3288276,1.411551,-0.1903901,-0.4638398,1.255158,0.3508088,-0.4661295,1.29406,0.07458162,-0.113462,1.391729,0.07679762,-0.4315151,1.364981,-0.1024542,0.05415116,1.369591,-0.004202221,-0.4229255,1.329462,-0.1503059,-0.1943587,1.346236,0.2888097,-0.2111662,1.376658,NA,NA,NotTracked,NotTracked,
