ALX,ALY,ALZ,ARX,ARY,ARZ,EMG0L,EMG1L,EMG2L,EMG3L,EMG4L,EMG5L,EMG6L,EMG7L,EMG0R,EMG1R,EMG2R,EMG3R,EMG4R,EMG5R,EMG6R,EMG7R,GLX,GLY,GLZ,GRX,GRY,GRZ,ORL,OPL,OYL,ORR,OPR,OYR,LHNX,LHNY,LHNZ,RHNX,RHNY,RHNZ,HX,HY,HZ,LTX,LTY,LTZ,RTX,RTY,RTZ,SpineMidX,SpineMidY,SpineMidZ,SpineBaseX,SpineBaseY,SpineBaseZ,ShoulderLeftX,ShoulderLeftY,ShoulderLeftZ,ShoulderRightX,ShoulderRightY,ShoulderRightZ,ElbowLeftX,ElbowLeftY,ElbowLeftZ,ElbowRightX,ElbowRightY,ElbowRightZ,Myo_Pose_left,Myo_Pose_Right,Kinect_pose_left,Kinect_pose_right
0.925293,0.2958984,0.05029297,0.9536133,-0.3041992,0.04785156,1,-1,0,-2,0,-2,1,13,0,-2,0,-3,-2,-2,1,0,1.0625,1.0625,1.0625,2.5625,2.5625,2.5625,7.218484,2.998335,8.084971,2.740019,3.012029,6.489658,-0.1338561,-0.4696846,1.307576,0.3146802,-0.4678575,1.289771,0.08010359,0.3243883,1.42487,-0.174119,-0.476014,1.306256,0.2675534,-0.4553366,1.299042,0.08100367,-0.1193586,1.416561,0.08798581,-0.4369977,1.393486,-0.09150586,0.05150484,1.405119,0.006750067,-0.4281531,1.361846,-0.1361159,-0.1978753,1.389176,0.3020427,-0.2116234,1.389713,NA,NA,NotTracked,NotTracked,
0.9262695,0.2880859,0.04589844,0.9536133,-0.3041992,0.04785156,2,0,0,1,-1,-1,0,16,0,-2,0,-3,-2,-2,1,0,-0.125,-0.125,-0.125,2.5625,2.5625,2.5625,7.214564,2.999165,8.08941,2.740019,3.012029,6.489658,-0.1342679,-0.468657,1.306995,0.3131838,-0.4673372,1.288986,0.08011299,0.3243882,1.424868,-0.1743616,-0.4761423,1.307865,0.2712272,-0.451652,1.305385,0.08100266,-0.11938,1.416516,0.08797655,-0.4369997,1.393505,-0.09153534,0.05155675,1.405087,0.006740566,-0.4281577,1.361874,-0.1362672,-0.197683,1.38914,0.3020068,-0.2116153,1.389514,NA,NA,NotTracked,NotTracked,
0.9277344,0.2978516,0.05273438,0.9536133,-0.3041992,0.04785156,-4,-1,-2,-1,2,1,-1,-3,0,-2,0,-3,-2,-2,1,0,0.6875,0.6875,0.6875,2.5625,2.5625,2.5625,7.213976,2.999119,8.090508,2.740019,3.012029,6.489658,-0.1344264,-0.4687283,1.306358,0.3137487,-0.4682073,1.288767,0.08010857,0.3244153,1.424829,-0.1753659,-0.4740827,1.30745,0.2647008,-0.4562478,1.276037,0.08098424,-0.1193177,1.416508,0.08794923,-0.4369472,1.393569,-0.09157447,0.05164114,1.405023,0.00672146,-0.4281076,1.3619,-0.1363284,-0.1976312,1.389079,0.3019917,-0.2115704,1.389352,NA,NA,NotTracked,NotTracked,
0.9267578,0.296875,0.04345703,0.9536133,-0.3041992,0.04785156,-4,0,-2,-2,-1,-2,-3,3,0,-2,0,-3,-2,-2,1,0,0.1875,0.1875,0.1875,2.5625,2.5625,2.5625,7.21508,2.999106,8.089678,2.740019,3.012029,6.489658,-0.1362152,-0.4684653,1.306766,0.3130296,-0.4675217,1.289327,0.08014175,0.3243913,1.42485,-0.175429,-0.4754376,1.306174,0.2666298,-0.460017,1.288523,0.08096696,-0.1192065,1.416621,0.08791237,-0.4368111,1.39371,-0.09153419,0.05183255,1.404985,0.006705865,-0.4279996,1.362005,-0.1364674,-0.1975187,1.389023,0.3020088,-0.2115147,1.389279,NA,NA,NotTracked,NotTracked,
0.9243164,0.2958984,0.04980469,0.9536133,-0.3041992,0.04785156,-1,-1,0,1,0,2,1,-2,0,-2,0,-3,-2,-2,1,0,0.6875,0.6875,0.6875,2.5625,2.5625,2.5625,7.21508,2.999106,8.089678,2.740019,3.012029,6.489658,-0.1354572,-0.4683363,1.306586,0.3135523,-0.466927,1.287505,0.08015376,0.3243869,1.424781,-0.1766328,-0.4709652,1.307839,0.2639982,-0.4479967,1.277645,0.08094352,-0.1191874,1.416544,0.08791135,-0.4368048,1.393712,-0.09153042,0.05186536,1.404908,0.006705613,-0.4279907,1.36201,-0.1366884,-0.1973019,1.388833,0.3019235,-0.2114363,1.388975,NA,NA,NotTracked,NotTracked,
0.9248047,0.2880859,0.05761719,0.9536133,-0.3041992,0.04785156,0,-1,2,0,-3,-3,-4,-1,0,-2,0,-3,-2,-2,1,0,-0.1875,-0.1875,-0.1875,2.5625,2.5625,2.5625,7.214785,2.999081,8.089626,2.740019,3.012029,6.489658,-0.13617,-0.4686738,1.305867,0.3137949,-0.4678104,1.288967,0.08018092,0.3243513,1.424617,-0.1758677,-0.4716055,1.302891,0.2644341,-0.4559004,1.279751,0.08102857,-0.1191747,1.416458,0.08791875,-0.4367662,1.393715,-0.09152089,0.05200549,1.404802,0.006720223,-0.427928,1.361984,-0.1368058,-0.1972152,1.388749,0.3019175,-0.2114086,1.388883,NA,NA,NotTracked,NotTracked,
0.9282227,0.2944336,0.05517578,0.9536133,-0.3041992,0.04785156,0,-3,-2,0,-1,0,-2,-1,0,-2,0,-3,-2,-2,1,0,-0.25,-0.25,-0.25,2.5625,2.5625,2.5625,7.213901,2.99901,8.090672,2.740019,3.012029,6.489658,-0.1351789,-0.4690388,1.306539,0.3144742,-0.4671187,1.289177,0.08027586,0.3243309,1.42451,-0.1748099,-0.4727255,1.306456,0.2697372,-0.453922,1.300111,0.08066042,-0.1192409,1.416582,0.08793045,-0.4367654,1.393717,-0.09144367,0.05207042,1.404721,0.006726977,-0.4279012,1.36195,-0.1369485,-0.1970384,1.388585,0.3019077,-0.2114507,1.388798,NA,NA,NotTracked,NotTracked,
0.9296875,0.2973633,0.05322266,0.9536133,-0.3041992,0.04785156,-2,0,-1,-1,0,-2,-3,-9,0,-2,0,-3,-2,-2,1,0,-0.5625,-0.5625,-0.5625,2.5625,2.5625,2.5625,7.209975,2.996781,8.092526,2.740019,3.012029,6.489658,-0.1353498,-0.4686364,1.305572,0.3129812,-0.4669827,1.288179,0.08026946,0.3243261,1.424458,-0.1757629,-0.4783909,1.307124,0.2684345,-0.4608698,1.289718,0.08069883,-0.1192196,1.416473,0.08792021,-0.4367602,1.393695,-0.09146147,0.05207232,1.404693,0.00671163,-0.427863,1.361843,-0.137017,-0.1970514,1.388541,0.3018622,-0.2115034,1.388718,NA,NA,NotTracked,NotTracked,
0.9282227,0.3041992,0.05957031,0.9536133,-0.3041992,0.04785156,0,1,0,1,0,-4,2,8,0,-2,0,-3,-2,-2,1,0,0,0,0,2.5625,2.5625,2.5625,7.210414,2.996609,8.091759,2.740019,3.012029,6.489658,-0.134991,-0.4685683,1.305584,0.3134818,-0.4674636,1.289136,0.08028851,0.3242976,1.424421,-0.1758049,-0.4844393,1.307,0.2626976,-0.4534014,1.27792,0.08042796,-0.1192792,1.416517,0.0879526,-0.436771,1.393649,-0.09142531,0.05208231,1.404432,0.006740382,-0.4278818,1.361792,-0.1370178,-0.1971542,1.388422,0.3017912,-0.2115726,1.388514,NA,NA,NotTracked,NotTracked,
0.9287109,0.2915039,0.04833984,0.9536133,-0.3041992,0.04785156,0,-1,0,0,1,2,-1,0,0,-2,0,-3,-2,-2,1,0,-0.1875,-0.1875,-0.1875,2.5625,2.5625,2.5625,7.210212,2.996261,8.089987,2.740019,3.012029,6.489658,-0.1355784,-0.4688155,1.30668,0.312699,-0.4678599,1.290859,0.08031498,0.3243109,1.424462,-0.1756721,-0.4691067,1.305643,0.2647684,-0.4557725,1.282773,0.08071256,-0.1192194,1.416464,0.08797394,-0.4367527,1.393658,-0.09143287,0.05211781,1.40447,0.00676274,-0.4278723,1.361762,-0.1370215,-0.1971647,1.388431,0.3017583,-0.2115651,1.388499,NA,NA,NotTracked,NotTracked,
0.9248047,0.2983398,0.05419922,0.9536133,-0.3041992,0.04785156,1,0,-1,0,-1,1,0,0,0,-2,0,-3,-2,-2,1,0,-1.625,-1.625,-1.625,2.5625,2.5625,2.5625,7.209868,2.99612,8.091435,2.740019,3.012029,6.489658,-0.1345428,-0.4688987,1.305794,0.3121863,-0.4683362,1.289064,0.08032015,0.3242919,1.424448,-0.1750846,-0.4722874,1.306113,0.2673473,-0.4591503,1.300292,0.08061549,-0.119256,1.416433,0.08796666,-0.4367604,1.393651,-0.0914806,0.05215466,1.404548,0.006754476,-0.4278796,1.361752,-0.1370341,-0.197204,1.388431,0.3016316,-0.2117674,1.388465,NA,NA,NotTracked,NotTracked,
0.9248047,0.293457,0.0546875,0.9536133,-0.3041992,0.04785156,-1,0,-1,-2,-2,-1,-5,-2,0,-2,0,-3,-2,-2,1,0,0.6875,0.6875,0.6875,2.5625,2.5625,2.5625,7.208453,2.996943,8.09186,2.740019,3.012029,6.489658,-0.1350017,-0.4688435,1.30678,0.3132774,-0.4679126,1.290884,0.08031403,0.3242546,1.424427,-0.1750294,-0.4742716,1.306766,0.262661,-0.4509764,1.28081,0.08103097,-0.1192174,1.41627,0.0879681,-0.4367715,1.393635,-0.09146322,0.05217984,1.404571,0.006753281,-0.4278924,1.361703,-0.1370825,-0.1972872,1.388502,0.3014742,-0.2119667,1.388433,NA,NA,NotTracked,NotTracked,
0.9267578,0.2949219,0.05175781,0.9536133,-0.3041992,0.04785156,-1,1,-2,-3,-1,-1,2,4,0,-2,0,-3,-2,-2,1,0,-0.375,-0.375,-0.375,2.5625,2.5625,2.5625,7.209341,2.997014,8.090809,2.740019,3.012029,6.489658,-0.1349342,-0.4690177,1.306133,0.3127831,-0.4683981,1.290557,0.08032238,0.3242794,1.424372,-0.1750045,-0.469056,1.305453,0.2728454,-0.4550697,1.303333,0.08138403,-0.1191723,1.416132,0.08795378,-0.4367819,1.393628,-0.09144223,0.05213164,1.404544,0.006741043,-0.4279006,1.361696,-0.1370833,-0.1973787,1.388562,0.3013678,-0.211834,1.388392,NA,NA,NotTracked,NotTracked,
0.9238281,0.2924805,0.05419922,0.9536133,-0.3041992,0.04785156,-1,-1,0,-1,-1,1,2,-1,0,-2,0,-3,-2,-2,1,0,0.9375,0.9375,0.9375,2.5625,2.5625,2.5625,7.209341,2.997014,8.090809,2.740019,3.012029,6.489658,-0.134284,-0.4688575,1.307133,0.3128208,-0.4679013,1.289629,0.08031031,0.3243033,1.424379,-0.175033,-0.4740283,1.306533,0.2650597,-0.451918,1.286461,0.08118472,-0.1191749,1.416208,0.08794619,-0.4367862,1.393631,-0.09149376,0.05214222,1.404518,0.00673438,-0.4279039,1.361699,-0.1371163,-0.1974825,1.388612,0.3013094,-0.2117892,1.38834,NA,NA,NotTracked,NotTracked,
0.9291992,0.2963867,0.05419922,0.9536133,-0.3041992,0.04785156,-4,-2,-1,0,0,-2,-1,-6,0,-2,0,-3,-2,-2,1,0,-0.5,-0.5,-0.5,2.5625,2.5625,2.5625,7.210078,2.996873,8.09129,2.740019,3.012029,6.489658,-0.1346793,-0.469442,1.307177,0.3127743,-0.4680754,1.291648,0.08020864,0.3242737,1.424389,-0.1745613,-0.4806126,1.306003,0.2638309,-0.4612729,1.274294,0.08156608,-0.1192443,1.416103,0.08795117,-0.4368049,1.393666,-0.09154645,0.05205174,1.404523,0.006736689,-0.4279505,1.361813,-0.1371044,-0.1974698,1.388644,0.3012871,-0.2118635,1.388286,NA,NA,NotTracked,NotTracked,
0.9453125,0.2973633,0.04785156,0.9536133,-0.3041992,0.04785156,0,-1,-3,-1,0,-1,-1,-8,0,-2,0,-3,-2,-2,1,0,1.0625,1.0625,1.0625,2.5625,2.5625,2.5625,7.210738,2.996623,8.091937,2.740019,3.012029,6.489658,-0.1332622,-0.4685731,1.307244,0.312004,-0.4676152,1.289609,0.08021555,0.324232,1.424364,-0.175223,-0.4726265,1.310485,0.2639808,-0.4624718,1.276523,0.08082852,-0.1193954,1.416289,0.08791955,-0.4368292,1.393651,-0.09159118,0.05203164,1.404526,0.006702431,-0.4279859,1.361794,-0.1370418,-0.1975949,1.388682,0.3012044,-0.2117864,1.388276,NA,NA,NotTracked,NotTracked,
1.04834,0.34375,0.08447266,0.9536133,-0.3041992,0.04785156,0,-1,-2,-3,0,5,0,4,0,-2,0,-3,-2,-2,1,0,7.125,7.125,7.125,2.5625,2.5625,2.5625,7.141232,3.011315,8.169984,2.740019,3.012029,6.489658,-0.1328287,-0.469421,1.306935,0.3110568,-0.4660899,1.286978,0.07995312,0.3241422,1.42433,-0.1745263,-0.4739396,1.306781,0.2640494,-0.4587604,1.281622,0.08071412,-0.1194436,1.416187,0.08788632,-0.4368667,1.393593,-0.09161999,0.05202634,1.404436,0.006669957,-0.4280163,1.361741,-0.1370265,-0.1975212,1.38865,0.301186,-0.211748,1.38827,NA,NA,NotTracked,NotTracked,
1.05127,0.3066406,0.1958008,0.9536133,-0.3041992,0.04785156,-7,-5,-4,-1,-1,3,-2,0,0,-2,0,-3,-2,-2,1,0,47.875,47.875,47.875,2.5625,2.5625,2.5625,6.927999,3.076131,8.440919,2.740019,3.012029,6.489658,-0.1333122,-0.4694451,1.305881,0.3017973,-0.4587331,1.269468,0.07976021,0.3242388,1.424334,-0.174829,-0.4742689,1.306774,0.2696899,-0.4758641,1.240921,0.08120728,-0.1193666,1.415843,0.08788752,-0.4368641,1.393536,-0.09169745,0.0520281,1.404412,0.006681734,-0.4280176,1.36164,-0.1369863,-0.1976463,1.388685,0.3013173,-0.2103516,1.388344,NA,NA,NotTracked,NotTracked,
0.90625,0.5981445,0.3813477,0.9536133,-0.3041992,0.04785156,-1,-5,2,-1,0,0,-4,25,0,-2,0,-3,-2,-2,1,0,87.875,87.875,87.875,2.5625,2.5625,2.5625,6.747299,3.243221,8.793224,2.740019,3.012029,6.489658,-0.1339812,-0.4684868,1.30679,0.2719362,-0.4435222,1.23211,0.07968325,0.3242264,1.424334,-0.1748755,-0.474218,1.306964,0.2465702,-0.4168015,1.20715,0.08117366,-0.1194356,1.415803,0.08794849,-0.4368887,1.393496,-0.09172707,0.05198608,1.404394,0.00671315,-0.42801,1.361562,-0.1369947,-0.1976796,1.38874,0.3007351,-0.2039236,1.38812,NA,NA,NotTracked,NotTracked,
0.7558594,0.671875,0.4370117,0.9536133,-0.3041992,0.04785156,0,1,2,-3,-1,-3,-9,-13,0,-2,0,-3,-2,-2,1,0,27.8125,27.8125,27.8125,2.5625,2.5625,2.5625,6.621209,3.51641,9.030764,2.740019,3.012029,6.489658,-0.1336314,-0.4692043,1.307069,0.2358102,-0.388474,1.184196,0.07945653,0.3241652,1.424138,-0.175328,-0.4778272,1.307717,0.2656628,-0.3746266,1.161976,0.08112288,-0.1193266,1.415354,0.08577231,-0.4365595,1.392431,-0.09177972,0.05190331,1.404361,0.004313095,-0.4273276,1.360419,-0.136829,-0.1977024,1.388745,0.2964661,-0.1882268,1.383169,NA,NA,NotTracked,Unknown,
0.5458984,0.6376953,0.3876953,0.9536133,-0.3041992,0.04785156,-3,-1,-3,-1,-2,2,2,-67,0,-2,0,-3,-2,-2,1,0,46.875,46.875,46.875,2.5625,2.5625,2.5625,6.586503,3.927602,9.186592,2.740019,3.012029,6.489658,-0.1342209,-0.4695568,1.307667,0.2029544,-0.3327201,1.14863,0.07944203,0.3241881,1.424094,-0.1749902,-0.4727679,1.306933,0.2127612,-0.316767,1.110987,0.07909755,-0.1193034,1.415106,0.08108544,-0.4363151,1.391104,-0.09179543,0.05183984,1.404339,-0.0003699384,-0.4262449,1.359412,-0.1365881,-0.1970211,1.38871,0.2901242,-0.1687164,1.375261,NA,NA,NotTracked,Unknown,
0.4863281,0.6347656,0.3891602,0.9536133,-0.3041992,0.04785156,6,2,2,0,-1,33,12,-96,0,-2,0,-3,-2,-2,1,0,37.625,37.625,37.625,2.5625,2.5625,2.5625,6.61174,4.161541,9.256073,2.740019,3.012029,6.489658,-0.1329945,-0.4691461,1.30616,0.1807666,-0.2927386,1.117862,0.07961289,0.3241025,1.424145,-0.1745363,-0.47522,1.306858,0.2093403,-0.284159,1.091182,0.07902242,-0.1193048,1.415023,0.07969178,-0.4362957,1.390787,-0.09176376,0.05182533,1.404381,-0.001569193,-0.4259466,1.35916,-0.1362608,-0.1966766,1.388929,0.2871243,-0.1632512,1.358964,NA,NA,NotTracked,Unknown,
0.4448242,0.7236328,0.3261719,0.9536133,-0.3041992,0.04785156,-5,-2,-3,-2,-4,-20,-30,-18,0,-2,0,-3,-2,-2,1,0,26.9375,26.9375,26.9375,2.5625,2.5625,2.5625,6.654754,4.283811,9.298531,2.740019,3.012029,6.489658,-0.1321283,-0.4680804,1.305148,0.1669553,-0.2732131,1.099184,0.07969268,0.3240348,1.424169,-0.1742627,-0.4750068,1.306962,0.200412,-0.2836207,1.0816,0.07910333,-0.1192894,1.415012,0.07957473,-0.4362972,1.390731,-0.09165549,0.05191425,1.404538,-0.001588997,-0.4259097,1.359159,-0.1361002,-0.1966369,1.388953,0.2848487,-0.1618526,1.340921,NA,NA,NotTracked,Unknown,
0.5209961,0.6831055,0.3886719,0.9536133,-0.3041992,0.04785156,-14,1,3,2,4,16,7,-22,0,-2,0,-3,-2,-2,1,0,19.3125,19.3125,19.3125,2.5625,2.5625,2.5625,6.693113,4.324649,9.320048,2.740019,3.012029,6.489658,-0.1307824,-0.4683013,1.303946,0.1647703,-0.2568665,1.09358,0.07978263,0.3240345,1.424418,-0.1723723,-0.4806195,1.308351,0.192881,-0.264829,1.063214,0.07917285,-0.1193104,1.415076,0.07945094,-0.4363236,1.39079,-0.0915777,0.05195924,1.404938,-0.001619009,-0.4258964,1.359349,-0.135772,-0.196372,1.38913,0.2837817,-0.1581177,1.321529,NA,NA,NotTracked,Unknown,
0.4584961,0.7407227,0.4301758,0.9536133,-0.3041992,0.04785156,14,9,5,5,3,7,52,40,0,-2,0,-3,-2,-2,1,0,20.625,20.625,20.625,2.5625,2.5625,2.5625,6.719571,4.326406,9.329368,2.740019,3.012029,6.489658,-0.1315305,-0.4689907,1.304212,0.1609623,-0.2531149,1.084764,0.07980076,0.3241068,1.425033,-0.1720968,-0.4821793,1.306613,0.1916451,-0.2603155,1.058437,0.07834056,-0.1193362,1.415597,0.07928669,-0.4362896,1.39097,-0.09176224,0.05192259,1.405716,-0.001691533,-0.4257893,1.359875,-0.1356057,-0.1961968,1.389448,0.2812194,-0.1537244,1.305082,NA,NA,NotTracked,Unknown,
0.4296875,0.762207,0.4165039,0.9536133,-0.3041992,0.04785156,-12,-15,-7,-5,-2,30,-2,19,0,-2,0,-3,-2,-2,1,0,0.375,0.375,0.375,2.5625,2.5625,2.5625,6.74001,4.330091,9.329439,2.740019,3.012029,6.489658,-0.1335372,-0.4694212,1.307144,0.1599889,-0.2498596,1.078241,0.07965016,0.3240522,1.425465,-0.1742469,-0.4750515,1.307868,0.1893863,-0.2604495,1.055068,0.07784016,-0.1194086,1.415937,0.07911877,-0.4363153,1.391183,-0.09181286,0.05196523,1.406144,-0.00177049,-0.4258239,1.360647,-0.1355972,-0.1961712,1.389897,0.2778058,-0.1508707,1.294357,NA,NA,NotTracked,Unknown,
0.4633789,0.7460938,0.4169922,0.9536133,-0.3041992,0.04785156,-7,-1,-6,-6,-6,-5,-9,-77,0,-2,0,-3,-2,-2,1,0,4,4,4,2.5625,2.5625,2.5625,6.7381,4.330523,9.325018,2.740019,3.012029,6.489658,-0.1345288,-0.4695398,1.309884,0.1576265,-0.2462693,1.0701,0.07962283,0.3240596,1.425573,-0.1743073,-0.4765991,1.308019,0.1925782,-0.2474417,1.055895,0.07793227,-0.1193775,1.415934,0.07873689,-0.4362329,1.391215,-0.09185308,0.05221197,1.406935,-0.002013793,-0.4256982,1.361021,-0.1358618,-0.1961358,1.390525,0.2752434,-0.1474117,1.283219,NA,NA,NotTracked,Unknown,
0.4628906,0.7958984,0.3862305,0.9536133,-0.3041992,0.04785156,42,-4,-2,-2,0,-7,2,3,0,-2,0,-3,-2,-2,1,0,-6.3125,-6.3125,-6.3125,2.5625,2.5625,2.5625,6.741155,4.337692,9.319882,2.740019,3.012029,6.489658,-0.1356347,-0.4684291,1.312286,0.1548167,-0.2439589,1.063827,0.07933085,0.3241368,1.425977,-0.1755642,-0.477311,1.30851,0.1822124,-0.2542843,1.034624,0.07722362,-0.1192611,1.416173,0.07826604,-0.4360097,1.391357,-0.09205125,0.05248135,1.4076,-0.002345895,-0.4254569,1.361533,-0.1363331,-0.1958088,1.391589,0.2735931,-0.1454205,1.279098,NA,NA,NotTracked,Unknown,
0.4355469,0.5405273,0.4643555,0.9536133,-0.3041992,0.04785156,30,49,31,6,0,-1,-6,-11,0,-2,0,-3,-2,-2,1,0,20.25,20.25,20.25,2.5625,2.5625,2.5625,6.694191,4.333463,9.373667,2.740019,3.012029,6.489658,-0.1370693,-0.4683602,1.315373,0.1480808,-0.2394351,1.051225,0.07904511,0.3242339,1.426174,-0.1795567,-0.4688091,1.311743,0.1750773,-0.2506464,1.0296,0.07724319,-0.119242,1.416196,0.07772176,-0.4358948,1.391588,-0.09242135,0.05264748,1.408515,-0.002824918,-0.4253418,1.362353,-0.1367312,-0.1956417,1.392581,0.2732221,-0.1451779,1.277618,NA,NA,NotTracked,Unknown,
0.2529297,0.8798828,0.3613281,0.9536133,-0.3041992,0.04785156,-54,-40,-13,-2,0,1,-1,-8,0,-2,0,-3,-2,-2,1,0,45.75,45.75,45.75,2.5625,2.5625,2.5625,6.738199,4.294099,9.466574,2.740019,3.012029,6.489658,-0.1383719,-0.4694825,1.31761,0.1495056,-0.2066123,1.034251,0.07860287,0.3240848,1.42633,-0.1768992,-0.4680743,1.308271,0.1797405,-0.2120015,1.026111,0.07725887,-0.1192171,1.416201,0.07732964,-0.4356953,1.391728,-0.09327152,0.05261301,1.409863,-0.003138511,-0.4253373,1.362775,-0.1374325,-0.1953914,1.394065,0.3133254,-0.1393722,1.277754,NA,NA,NotTracked,Unknown,
0.5600586,1.083008,0.4350586,0.9536133,-0.3041992,0.04785156,-19,16,39,12,7,4,5,-7,0,-2,0,-3,-2,-2,1,0,23.8125,23.8125,23.8125,2.5625,2.5625,2.5625,6.790148,4.291293,9.462118,2.740019,3.012029,6.489658,-0.1383607,-0.469358,1.318446,0.145968,-0.1929164,1.075847,0.07762735,0.3242736,1.426638,-0.179552,-0.4690752,1.314868,0.1681989,-0.1891187,1.021444,0.077346,-0.1191348,1.416246,0.07721034,-0.4356311,1.3918,-0.09381665,0.05278844,1.410745,-0.00329397,-0.4254107,1.363073,-0.137927,-0.1954729,1.3953,0.3118424,-0.1458864,1.274879,NA,NA,NotTracked,Unknown,
0.3769531,0.8266602,0.3774414,0.9536133,-0.3041992,0.04785156,-60,109,39,23,7,4,4,15,0,-2,0,-3,-2,-2,1,0,15.5,15.5,15.5,2.5625,2.5625,2.5625,6.782219,4.367553,9.486421,2.740019,3.012029,6.489658,-0.138072,-0.4688488,1.318554,0.149444,-0.1761256,1.092948,0.07675288,0.3243328,1.426639,-0.1789162,-0.4730262,1.313222,0.1685699,-0.1850314,1.048444,0.07736304,-0.1190636,1.416213,0.07694881,-0.4353973,1.391853,-0.09421383,0.05275719,1.411465,-0.003536718,-0.4252609,1.363308,-0.1382334,-0.1956225,1.396341,0.2920302,-0.1452276,1.284297,NA,NA,NotTracked,Unknown,
0.3232422,0.8999023,0.4433594,0.9536133,-0.3041992,0.04785156,-22,-47,-21,-9,-4,-3,-1,-4,0,-2,0,-3,-2,-2,1,0,34.1875,34.1875,34.1875,2.5625,2.5625,2.5625,6.808336,4.418196,9.503669,2.740019,3.012029,6.489658,-0.1396272,-0.4676829,1.318884,0.1456965,-0.1629028,1.100665,0.07650864,0.3242818,1.426699,-0.1829757,-0.4603841,1.315973,0.160267,-0.1460312,1.039,0.07729388,-0.1188966,1.416223,0.07666234,-0.434671,1.391902,-0.09451556,0.05272672,1.411969,-0.003693238,-0.4247695,1.36332,-0.1388505,-0.1959281,1.397297,0.2894329,-0.1435414,1.284058,NA,NA,NotTracked,Open,
0.246582,0.8754883,0.4067383,0.9536133,-0.3041992,0.04785156,45,-48,-45,-14,-6,-4,-4,-12,0,-2,0,-3,-2,-2,1,0,16.25,16.25,16.25,2.5625,2.5625,2.5625,6.846174,4.516727,9.530375,2.740019,3.012029,6.489658,-0.1405318,-0.4689791,1.319024,0.1424315,-0.1505731,1.102234,0.07595746,0.3242792,1.426922,-0.1819758,-0.4690283,1.314726,0.1454529,-0.1103101,1.061025,0.07623131,-0.1186683,1.416561,0.07639056,-0.4343585,1.392048,-0.09488419,0.05280215,1.412604,-0.003895103,-0.424576,1.363566,-0.1395125,-0.1961079,1.397881,0.287496,-0.1430327,1.283636,NA,NA,NotTracked,Unknown,
0.3867188,0.8046875,0.4428711,0.9536133,-0.3041992,0.04785156,15,-34,-5,-5,-4,-3,-4,-10,0,-2,0,-3,-2,-2,1,0,-3.375,-3.375,-3.375,2.5625,2.5625,2.5625,6.85044,4.550801,9.529802,2.740019,3.012029,6.489658,-0.1402627,-0.4687212,1.317928,0.1410237,-0.1426811,1.102367,0.07531459,0.3241695,1.427127,-0.1814318,-0.467086,1.312817,0.1273662,-0.08758684,1.09,0.07628352,-0.1184512,1.416602,0.07605943,-0.4335606,1.392042,-0.09502541,0.05288051,1.412956,-0.004080656,-0.4240701,1.363545,-0.139974,-0.1960454,1.39818,0.2864561,-0.1427722,1.283792,NA,NA,NotTracked,Unknown,
0.6176758,0.9897461,0.2832031,0.9536133,-0.3041992,0.04785156,5,-42,-6,4,2,2,3,-3,0,-2,0,-3,-2,-2,1,0,3.3125,3.3125,3.3125,2.5625,2.5625,2.5625,6.847651,4.550745,9.524779,2.740019,3.012029,6.489658,-0.1407261,-0.4684275,1.316855,0.1406404,-0.1435215,1.101887,0.07510003,0.3240678,1.427212,-0.1832297,-0.4737102,1.31543,0.1112791,-0.1417474,1.112675,0.07626078,-0.1183749,1.416603,0.07578918,-0.4333041,1.392065,-0.09512284,0.05287349,1.41306,-0.004280534,-0.4238982,1.363575,-0.1402475,-0.1961882,1.398378,0.2860474,-0.1433036,1.283522,NA,NA,NotTracked,Open,
0.8637695,1,0.4599609,0.9536133,-0.3041992,0.04785156,30,10,1,-1,-2,-1,-3,-1,0,-2,0,-3,-2,-2,1,0,-5.625,-5.625,-5.625,2.5625,2.5625,2.5625,6.868131,4.53093,9.513563,2.740019,3.012029,6.489658,-0.140712,-0.4680558,1.315585,0.1394076,-0.142309,1.100621,0.07481506,0.3240493,1.427504,-0.1822871,-0.4726563,1.313246,0.1102517,-0.1524851,1.112833,0.07627895,-0.1183192,1.416617,0.07569226,-0.4331009,1.39209,-0.09519441,0.05287862,1.413146,-0.004347837,-0.4237402,1.363603,-0.1403476,-0.1960769,1.398434,0.2855819,-0.1434732,1.283509,NA,NA,NotTracked,Open,
0.3183594,0.8774414,0.3867188,0.9536133,-0.3041992,0.04785156,-39,45,19,7,2,0,-1,-6,0,-2,0,-3,-2,-2,1,0,-3.5,-3.5,-3.5,2.5625,2.5625,2.5625,6.835582,4.501275,9.522413,2.740019,3.012029,6.489658,-0.1406905,-0.468116,1.31476,0.1383786,-0.1469186,1.104156,0.07456738,0.3241358,1.427799,-0.1827398,-0.4642402,1.314252,0.1077998,-0.1554707,1.104875,0.07630689,-0.1181313,1.416703,0.07561084,-0.4326962,1.39221,-0.09536255,0.05298742,1.413421,-0.004380832,-0.423464,1.363659,-0.1404569,-0.1960663,1.398474,0.2849905,-0.1425463,1.283697,NA,NA,NotTracked,Open,
0.3901367,0.875,0.3740234,0.9536133,-0.3041992,0.04785156,-26,0,3,3,3,1,-2,-13,0,-2,0,-3,-2,-2,1,0,-3.375,-3.375,-3.375,2.5625,2.5625,2.5625,6.833015,4.490769,9.525481,2.740019,3.012029,6.489658,-0.1398312,-0.4677164,1.314478,0.1373142,-0.1477835,1.102705,0.07441257,0.3241261,1.427921,-0.1803843,-0.4667414,1.305598,0.1062422,-0.1553829,1.107467,0.07636552,-0.1179966,1.416735,0.07559707,-0.432398,1.392225,-0.09537271,0.05301993,1.413502,-0.004373129,-0.423183,1.36362,-0.1405156,-0.1961184,1.398449,0.2846799,-0.1423449,1.284109,NA,NA,NotTracked,Open,
0.7592773,0.8427734,0.7060547,0.9536133,-0.3041992,0.04785156,-5,-35,-9,-5,1,2,-4,-2,0,-2,0,-3,-2,-2,1,0,-6.625,-6.625,-6.625,2.5625,2.5625,2.5625,6.790009,4.429963,9.535395,2.740019,3.012029,6.489658,-0.1405962,-0.4684502,1.314896,0.1392886,-0.1487968,1.10322,0.07428738,0.3239889,1.42837,-0.1822777,-0.4808088,1.3175,0.1097825,-0.1639311,1.115286,0.07637357,-0.1179625,1.416813,0.07561998,-0.432353,1.392271,-0.095373,0.05306109,1.413599,-0.004343208,-0.4231495,1.363615,-0.1405131,-0.1961169,1.398451,0.2848679,-0.1431938,1.284515,NA,NA,NotTracked,Open,
0.1772461,0.965332,0.09960938,0.9536133,-0.3041992,0.04785156,49,-9,-3,-3,-13,-1,9,-1,0,-2,0,-3,-2,-2,1,0,-2.125,-2.125,-2.125,2.5625,2.5625,2.5625,6.792183,4.443522,9.53336,2.740019,3.012029,6.489658,-0.1401887,-0.468547,1.314802,0.1402147,-0.1519458,1.105321,0.07422568,0.3240038,1.428622,-0.1815691,-0.4798891,1.317203,0.1103591,-0.1469768,1.123833,0.07655345,-0.1178527,1.416898,0.07566924,-0.4322448,1.392398,-0.09536508,0.05311323,1.413683,-0.004285978,-0.4230632,1.363688,-0.1406123,-0.1960339,1.398584,0.2848525,-0.1432925,1.286475,NA,NA,NotTracked,Open,
0.3847656,0.8286133,0.3798828,0.9536133,-0.3041992,0.04785156,25,6,2,-2,-13,-4,3,1,0,-2,0,-3,-2,-2,1,0,-8.4375,-8.4375,-8.4375,2.5625,2.5625,2.5625,6.781207,4.443313,9.530282,2.740019,3.012029,6.489658,-0.1415343,-0.4691643,1.316251,0.1444841,-0.1546387,1.110741,0.07429799,0.3239841,1.428774,-0.1821779,-0.4802552,1.318316,0.1169785,-0.1589883,1.117786,0.07672153,-0.1176815,1.417074,0.07575319,-0.4320827,1.392573,-0.09538529,0.05313292,1.413754,-0.004207767,-0.4229587,1.363757,-0.1406786,-0.1960317,1.398689,0.2849742,-0.1438071,1.289397,NA,NA,NotTracked,Open,
0.3447266,0.8154297,0.3735352,0.9536133,-0.3041992,0.04785156,8,-5,-8,0,0,1,-1,-6,0,-2,0,-3,-2,-2,1,0,-7.75,-7.75,-7.75,2.5625,2.5625,2.5625,6.765813,4.417386,9.523955,2.740019,3.012029,6.489658,-0.1408154,-0.469218,1.316388,0.1492536,-0.1595503,1.116838,0.07429506,0.323981,1.428931,-0.1814075,-0.4751793,1.315014,0.1204958,-0.1669517,1.117555,0.07676123,-0.1176413,1.417108,0.07583674,-0.4320241,1.392747,-0.09528576,0.05314849,1.413695,-0.004129774,-0.422911,1.363862,-0.1406446,-0.1960332,1.398703,0.2857797,-0.1460708,1.295864,NA,NA,NotTracked,Unknown,
0.3896484,0.7719727,0.3847656,0.9536133,-0.3041992,0.04785156,-2,-10,-2,-2,0,4,-5,-9,0,-2,0,-3,-2,-2,1,0,-5.125,-5.125,-5.125,2.5625,2.5625,2.5625,6.760312,4.362513,9.512796,2.740019,3.012029,6.489658,-0.13945,-0.4692182,1.314804,0.1573252,-0.1794848,1.117659,0.07440542,0.3239998,1.428935,-0.1800108,-0.4807034,1.315603,0.1171617,-0.1685649,1.121277,0.07697023,-0.1175761,1.41723,0.0760242,-0.4320318,1.392884,-0.09521934,0.0531671,1.413642,-0.004026383,-0.4229219,1.363898,-0.1405082,-0.1960651,1.398694,0.2895907,-0.1498731,1.311281,NA,NA,NotTracked,Open,
0.387207,0.7216797,0.3681641,0.9536133,-0.3041992,0.04785156,1,1,1,1,-5,-19,-9,20,0,-2,0,-3,-2,-2,1,0,-29.125,-29.125,-29.125,2.5625,2.5625,2.5625,6.738169,4.260725,9.493075,2.740019,3.012029,6.489658,-0.1381775,-0.4683305,1.313728,0.1597911,-0.210851,1.062043,0.0745545,0.3240773,1.428998,-0.1795015,-0.4757425,1.313545,0.150713,-0.2220844,1.0525,0.07701726,-0.1175995,1.417237,0.0761759,-0.4324176,1.392981,-0.09519992,0.05304909,1.413425,-0.003964798,-0.423335,1.363863,-0.1399897,-0.1962995,1.398184,0.3165062,-0.1649832,1.304761,NA,NA,NotTracked,Unknown,
