ALX,ALY,ALZ,ARX,ARY,ARZ,EMG0L,EMG1L,EMG2L,EMG3L,EMG4L,EMG5L,EMG6L,EMG7L,EMG0R,EMG1R,EMG2R,EMG3R,EMG4R,EMG5R,EMG6R,EMG7R,GLX,GLY,GLZ,GRX,GRY,GRZ,ORL,OPL,OYL,ORR,OPR,OYR,LHNX,LHNY,LHNZ,RHNX,RHNY,RHNZ,HX,HY,HZ,LTX,LTY,LTZ,RTX,RTY,RTZ,SpineMidX,SpineMidY,SpineMidZ,SpineBaseX,SpineBaseY,SpineBaseZ,ShoulderLeftX,ShoulderLeftY,ShoulderLeftZ,ShoulderRightX,ShoulderRightY,ShoulderRightZ,ElbowLeftX,ElbowLeftY,ElbowLeftZ,ElbowRightX,ElbowRightY,ElbowRightZ,Myo_Pose_left,Myo_Pose_Right,Kinect_pose_left,Kinect_pose_right
0.9189453,0.3193359,0.07470703,0.9438477,-0.3022461,0.05175781,-2,1,-1,-2,0,0,0,-1,0,-2,-2,-1,0,-1,0,-1,-1.5625,-1.5625,-1.5625,0,0,0,7.258684,3.030375,3.700794,2.713778,3.003569,5.791635,-0.135148,-0.4673251,1.344586,0.3198238,-0.4677393,1.302202,0.09240551,0.3201018,1.4616,-0.08628508,-0.454861,1.330253,0.3614805,-0.4624177,1.28791,0.09081502,-0.1192521,1.440727,0.09013326,-0.4346747,1.410049,-0.08184578,0.05356662,1.442658,0.0092286,-0.4245799,1.376582,-0.1352921,-0.1957782,1.428405,0.3072777,-0.2105118,1.409766,NA,NA,NotTracked,NotTracked,
0.9208984,0.3173828,0.06835938,0.9438477,-0.3022461,0.05175781,1,-1,-1,-1,-1,1,0,-2,0,-2,-2,-1,0,-1,0,-1,-0.4375,-0.4375,-0.4375,0,0,0,7.260256,3.029668,3.696021,2.713778,3.003569,5.791635,-0.1352662,-0.4676282,1.345627,0.3188052,-0.4675088,1.303015,0.09211334,0.3201857,1.461685,-0.08690134,-0.4544286,1.332181,0.3225515,-0.5027035,1.324448,0.09068279,-0.1192756,1.440655,0.09011789,-0.4347361,1.409855,-0.08200052,0.05346647,1.44262,0.009216025,-0.4247131,1.37637,-0.1354619,-0.1960049,1.428179,0.3068359,-0.2103911,1.409535,NA,NA,NotTracked,NotTracked,
0.9228516,0.3066406,0.06591797,0.9438477,-0.3022461,0.05175781,0,-1,0,0,-3,1,-1,-1,0,-2,-2,-1,0,-1,0,-1,-2.1875,-2.1875,-2.1875,0,0,0,7.256509,3.029926,3.695221,2.713778,3.003569,5.791635,-0.1364929,-0.4680469,1.344369,0.3189117,-0.467523,1.302683,0.09186269,0.3201933,1.461796,-0.08660626,-0.4503513,1.331422,0.3571048,-0.4607184,1.28263,0.09038476,-0.1193576,1.44048,0.09004612,-0.4348435,1.409614,-0.08227,0.05334483,1.442527,0.00914341,-0.4248773,1.37604,-0.1356952,-0.1965713,1.427592,0.3065927,-0.2105282,1.409443,NA,NA,NotTracked,NotTracked,
0.9150391,0.3251953,0.07666016,0.9438477,-0.3022461,0.05175781,-2,-1,-3,0,-3,0,-1,1,0,-2,-2,-1,0,-1,0,-1,-0.4375,-0.4375,-0.4375,0,0,0,7.253324,3.030536,3.696929,2.713778,3.003569,5.791635,-0.135373,-0.4677842,1.343078,0.3184568,-0.4676104,1.300916,0.09166251,0.3201439,1.461755,-0.08676355,-0.458581,1.327842,0.3605075,-0.4606918,1.267333,0.09016302,-0.1194777,1.440164,0.09000444,-0.4350408,1.409114,-0.08268502,0.05309365,1.442267,0.009106647,-0.4251722,1.375367,-0.1359305,-0.1969452,1.427276,0.3061973,-0.2107566,1.409272,NA,NA,NotTracked,NotTracked,
0.9213867,0.3139648,0.07470703,0.9438477,-0.3022461,0.05175781,0,0,-1,-3,-1,-2,-2,0,0,-2,-2,-1,0,-1,0,-1,-1.875,-1.875,-1.875,0,0,0,7.251577,3.030532,3.694661,2.713778,3.003569,5.791635,-0.1349245,-0.4674885,1.342953,0.3181791,-0.4679244,1.302659,0.09134574,0.320108,1.461788,-0.08632775,-0.4501116,1.329461,0.3623941,-0.4560684,1.291043,0.08994547,-0.1195322,1.440038,0.08980162,-0.4351301,1.408703,-0.08311655,0.05287007,1.442125,0.008919296,-0.4252349,1.374986,-0.1363773,-0.1973542,1.427012,0.3057224,-0.2106992,1.409135,NA,NA,NotTracked,NotTracked,
0.9194336,0.3149414,0.07910156,0.9438477,-0.3022461,0.05175781,-2,-1,-1,-2,-2,-4,0,-1,0,-2,-2,-1,0,-1,0,-1,-1.0625,-1.0625,-1.0625,0,0,0,7.248219,3.030267,3.694561,2.713778,3.003569,5.791635,-0.1352449,-0.4675796,1.342093,0.3173462,-0.4680618,1.301617,0.09094588,0.320138,1.461757,-0.08695847,-0.45166,1.329684,0.3638838,-0.4632205,1.298278,0.08979807,-0.1195581,1.439906,0.08971326,-0.4351855,1.408389,-0.08344468,0.05265656,1.441949,0.008833847,-0.4253014,1.374637,-0.1363771,-0.1975504,1.426773,0.3054034,-0.2107075,1.409024,NA,NA,NotTracked,NotTracked,
0.9331055,0.3149414,0.07910156,0.9438477,-0.3022461,0.05175781,0,0,-2,-1,-1,-3,-1,1,0,-2,-2,-1,0,-1,0,-1,-0.5625,-0.5625,-0.5625,0,0,0,7.24338,3.029688,3.697138,2.713778,3.003569,5.791635,-0.135861,-0.4677514,1.341758,0.3166314,-0.4678151,1.30109,0.09073405,0.320083,1.461723,-0.08864813,-0.4695095,1.322043,0.3568048,-0.4636227,1.285167,0.08945813,-0.1197462,1.439517,0.08948731,-0.435387,1.407899,-0.08382369,0.05243575,1.441718,0.008608771,-0.4254831,1.374117,-0.1366151,-0.1976992,1.426402,0.3050602,-0.2108899,1.408858,NA,NA,NotTracked,NotTracked,
1.025391,0.34375,0.07275391,0.9438477,-0.3022461,0.05175781,0,3,2,4,9,-1,4,-1,0,-2,-2,-1,0,-1,0,-1,4.5,4.5,4.5,0,0,0,7.173259,3.043645,3.775513,2.713778,3.003569,5.791635,-0.1359718,-0.4675384,1.341641,0.313525,-0.4657451,1.297128,0.09044763,0.3201075,1.461679,-0.08852591,-0.4666783,1.322034,0.3178695,-0.5010742,1.319652,0.08916532,-0.1197926,1.439182,0.0892779,-0.4353812,1.407324,-0.08408312,0.0523393,1.441553,0.008395888,-0.4255024,1.373393,-0.1368138,-0.1978831,1.425901,0.3048791,-0.2109486,1.408789,NA,NA,NotTracked,NotTracked,
1.022461,0.5268555,0.1728516,0.9438477,-0.3022461,0.05175781,-5,-4,-6,-11,-2,2,3,1,0,-2,-2,-1,0,-1,0,-1,-2.0625,-2.0625,-2.0625,0,0,0,6.990576,3.124492,3.976083,2.713778,3.003569,5.791635,-0.1364276,-0.4672759,1.340684,0.3032016,-0.4566782,1.279814,0.0901241,0.3200645,1.46156,-0.08831111,-0.4648112,1.322783,0.302498,-0.4944516,1.310369,0.08882191,-0.1198442,1.438782,0.08911121,-0.4355127,1.406704,-0.08450497,0.05199762,1.440944,0.008218287,-0.4256978,1.372658,-0.1372732,-0.1982459,1.425042,0.3045238,-0.2100348,1.409176,NA,NA,NotTracked,NotTracked,
0.9443359,0.6557617,0.3139648,0.9438477,-0.3022461,0.05175781,-10,-14,-7,-2,27,5,-1,-7,0,-2,-2,-1,0,-1,0,-1,9.5625,9.5625,9.5625,0,0,0,6.781558,3.308616,4.213921,2.713778,3.003569,5.791635,-0.1372839,-0.4665214,1.338403,0.2852224,-0.4191322,1.236142,0.08985278,0.3201106,1.461539,-0.08826993,-0.4610757,1.322533,0.284961,-0.4542309,1.273235,0.08860882,-0.1197575,1.438457,0.08884716,-0.435356,1.406125,-0.08478919,0.05196555,1.440682,0.007907439,-0.4255591,1.371924,-0.1378089,-0.1983441,1.424269,0.3038158,-0.201166,1.409442,NA,NA,NotTracked,NotTracked,
0.8510742,0.9052734,0.6103516,0.9438477,-0.3022461,0.05175781,12,12,3,-8,-7,-1,0,3,0,-2,-2,-1,0,-1,0,-1,5.25,5.25,5.25,0,0,0,6.622336,3.752223,4.447196,2.713778,3.003569,5.791635,-0.1383247,-0.466567,1.33697,0.2653395,-0.3445858,1.171868,0.08951942,0.3200276,1.461324,-0.08801519,-0.4585565,1.323765,0.2324172,-0.4016236,1.2014,0.08780374,-0.1195487,1.437945,0.08712783,-0.4347443,1.404901,-0.08505299,0.05201743,1.440189,0.006006703,-0.4248822,1.370382,-0.1382695,-0.1981703,1.423747,0.3017001,-0.1809461,1.408323,NA,NA,NotTracked,Unknown,
0.722168,0.8945313,0.6899414,0.9438477,-0.3022461,0.05175781,6,-8,-3,-2,-30,-3,-1,0,0,-2,-2,-1,0,-1,0,-1,-18.6875,-18.6875,-18.6875,0,0,0,6.561914,4.062189,4.514046,2.713778,3.003569,5.791635,-0.1395464,-0.4663978,1.334862,0.2589059,-0.2164834,1.12663,0.08934747,0.3200455,1.461288,-0.0882201,-0.4598251,1.323423,0.2375735,-0.2873958,1.144546,0.08675542,-0.1190816,1.437415,0.08534382,-0.4339222,1.403723,-0.08518718,0.05191845,1.439488,0.004215793,-0.4240517,1.369021,-0.1387876,-0.1974978,1.422352,0.3014121,-0.1604548,1.406365,NA,NA,NotTracked,Unknown,
0.1118164,0.9462891,0.644043,0.9438477,-0.3022461,0.05175781,-15,-4,-4,-5,-16,0,1,-1,0,-2,-2,-1,0,-1,0,-1,5.125,5.125,5.125,0,0,0,6.521316,4.808204,4.59094,2.713778,3.003569,5.791635,-0.1403733,-0.4657979,1.331406,0.2473834,-0.08553866,1.111044,0.08940756,0.3200025,1.461267,-0.09307987,-0.4512586,1.332381,0.1954633,-0.09870527,1.12225,0.08598866,-0.1190591,1.437077,0.0843206,-0.4335524,1.402956,-0.08532409,0.05197644,1.439154,0.003258156,-0.4238676,1.368389,-0.1392154,-0.1972113,1.421105,0.2989892,-0.166662,1.302219,NA,NA,NotTracked,Unknown,
-0.2529297,0.8754883,0.6269531,0.9438477,-0.3022461,0.05175781,-8,-4,-3,-4,-15,-2,-4,-5,0,-2,-2,-1,0,-1,0,-1,47.75,47.75,47.75,0,0,0,6.588065,5.385592,4.670062,2.713778,3.003569,5.791635,-0.1406912,-0.4654943,1.329166,0.2357288,0.05604346,1.118788,0.09023574,0.3194557,1.461161,-0.0941963,-0.454882,1.32281,0.1826351,0.06370723,1.157647,0.08515552,-0.1199621,1.436958,0.08388998,-0.4344392,1.402266,-0.08533683,0.05155509,1.438401,0.002719635,-0.424915,1.367458,-0.1397347,-0.1967108,1.419485,0.3337358,-0.1354651,1.292851,NA,NA,NotTracked,Unknown,
-0.4316406,0.6806641,0.5410156,0.9438477,-0.3022461,0.05175781,13,0,-3,-2,-6,-2,-2,1,0,-2,-2,-1,0,-1,0,-1,43.75,43.75,43.75,0,0,0,6.748317,6.027215,4.81306,2.713778,3.003569,5.791635,-0.1410059,-0.4644456,1.326817,0.2123174,0.1719204,1.143045,0.08974069,0.3196384,1.460718,-0.09921638,-0.4540393,1.316982,0.1807465,0.148473,1.2042,0.08423722,-0.1175387,1.434571,0.0807551,-0.4298369,1.401177,-0.08588534,0.05491087,1.430485,-0.002051079,-0.4184359,1.367206,-0.1395404,-0.1905059,1.417877,0.3479649,-0.09697911,1.273579,NA,NA,NotTracked,Unknown,
-0.4921875,0.6362305,0.3984375,0.9438477,-0.3022461,0.05175781,16,4,1,-1,0,-2,-2,0,0,-2,-2,-1,0,-1,0,-1,52.375,52.375,52.375,0,0,0,6.871516,6.267252,4.915819,2.713778,3.003569,5.791635,-0.1408166,-0.4630136,1.325602,0.20002,0.2430075,1.179,0.08885609,0.3189582,1.459074,-0.09591466,-0.4455388,1.335302,0.1974807,0.2132305,1.25325,0.08372609,-0.1154471,1.432501,0.07979212,-0.4262535,1.400675,-0.08418179,0.05648997,1.427266,-0.003393639,-0.4140104,1.367172,-0.1401293,-0.1869662,1.417762,0.3286119,0.03908024,1.191977,NA,NA,NotTracked,Closed,
-0.6591797,0.4873047,0.2104492,0.9438477,-0.3022461,0.05175781,21,-2,-5,-5,-2,-1,5,4,0,-2,-2,-1,0,-1,0,-1,27.6875,27.6875,27.6875,0,0,0,7.240452,6.597528,5.262046,2.713778,3.003569,5.791635,-0.1421562,-0.4629553,1.328002,0.1886171,0.2834862,1.207618,0.08930357,0.3162912,1.457661,-0.09470723,-0.451552,1.328854,0.195077,0.2385323,1.238467,0.08366422,-0.1143666,1.431473,0.07949395,-0.4243087,1.400537,-0.08282492,0.05794743,1.426061,-0.003570707,-0.4122386,1.367894,-0.1405402,-0.1863696,1.417911,0.3330075,0.07186873,1.191073,NA,NA,NotTracked,Closed,
-0.6489258,0.3955078,0.1269531,0.9438477,-0.3022461,0.05175781,23,25,7,0,-3,-1,-2,-7,0,-2,-2,-1,0,-1,0,-1,12.5625,12.5625,12.5625,0,0,0,7.566916,6.724055,5.611759,2.713778,3.003569,5.791635,-0.1422688,-0.4632398,1.332685,0.1509449,0.3305039,1.252031,0.09125706,0.3144037,1.453595,-0.09518795,-0.4499313,1.329174,0.1469142,0.3032174,1.312833,0.08376464,-0.1132033,1.430457,0.07938366,-0.4227058,1.400285,-0.08223356,0.05892125,1.425819,-0.003578409,-0.4107454,1.368832,-0.1412222,-0.1850009,1.418562,0.3325213,0.08927209,1.190401,NA,NA,NotTracked,Closed,
-0.6655273,0.3291016,-0.01806641,0.9438477,-0.3022461,0.05175781,6,-13,-6,-1,-2,1,2,0,0,-2,-2,-1,0,-1,0,-1,-12.125,-12.125,-12.125,0,0,0,7.922208,6.824698,6.032425,2.713778,3.003569,5.791635,-0.1445355,-0.4643402,1.338044,0.1497317,0.3356419,1.273138,0.09244639,0.3139401,1.451251,-0.09474023,-0.4522056,1.32789,0.1594855,0.3021223,1.319037,0.08402777,-0.1119997,1.429563,0.07934522,-0.4208354,1.399772,-0.0817349,0.05979088,1.425732,-0.003562187,-0.4091706,1.369696,-0.1413007,-0.184642,1.419629,0.326661,0.1114617,1.189728,NA,NA,NotTracked,Closed,
-0.7626953,0.2788086,-0.121582,0.9438477,-0.3022461,0.05175781,19,-18,-8,-7,-3,-2,6,5,0,-2,-2,-1,0,-1,0,-1,-23.875,-23.875,-23.875,0,0,0,8.128557,6.874123,6.299823,2.713778,3.003569,5.791635,-0.1441188,-0.4643809,1.342498,0.1498562,0.3366431,1.289315,0.09273383,0.3141644,1.450172,-0.09597676,-0.4471828,1.331767,0.1015465,0.2892388,1.3185,0.08430446,-0.1109775,1.428764,0.07941774,-0.4190379,1.399273,-0.08121817,0.06038019,1.425664,-0.003466651,-0.4078813,1.370273,-0.1417361,-0.183842,1.421865,0.3217585,0.1225699,1.189196,NA,NA,NotTracked,Closed,
-0.8227539,0.3203125,-0.1875,0.9438477,-0.3022461,0.05175781,10,11,2,-3,-3,0,-2,-1,0,-2,-2,-1,0,-1,0,-1,-10.625,-10.625,-10.625,0,0,0,8.31862,6.923417,6.532189,2.713778,3.003569,5.791635,-0.1451978,-0.4642491,1.346021,0.1477213,0.3373176,1.298479,0.09222725,0.3142431,1.449588,-0.09666298,-0.4468806,1.332554,0.1013204,0.2882609,1.317646,0.08403164,-0.1098309,1.427909,0.07797659,-0.4163799,1.398274,-0.08090994,0.0608051,1.425621,-0.005208962,-0.4050049,1.37105,-0.142204,-0.1834252,1.424117,0.3169187,0.1295629,1.187935,NA,NA,NotTracked,Unknown,
-0.8588867,0.3261719,-0.1694336,0.9438477,-0.3022461,0.05175781,1,-22,-7,-4,0,-3,-3,-5,0,-2,-2,-1,0,-1,0,-1,-8.0625,-8.0625,-8.0625,0,0,0,8.339248,6.934734,6.563987,2.713778,3.003569,5.791635,-0.1465986,-0.4639078,1.349016,0.1461821,0.3379442,1.296575,0.09170441,0.3146316,1.448986,-0.09777196,-0.4488717,1.333462,0.158702,0.2981979,1.338222,0.08383963,-0.1085977,1.427186,0.07681863,-0.4138322,1.397713,-0.08069389,0.0609672,1.425621,-0.006561791,-0.401935,1.371426,-0.1428153,-0.1826563,1.426304,0.3136531,0.1327632,1.187246,NA,NA,NotTracked,Unknown,
-0.8745117,0.3154297,-0.1499023,0.9438477,-0.3022461,0.05175781,4,11,2,1,0,1,3,1,0,-2,-2,-1,0,-1,0,-1,-7.8125,-7.8125,-7.8125,0,0,0,8.30158,6.915287,6.539553,2.713778,3.003569,5.791635,-0.1467012,-0.4646701,1.350916,0.1456521,0.3379571,1.294514,0.09146048,0.31479,1.44872,-0.09793391,-0.4506801,1.334363,0.151066,0.2985107,1.339378,0.08365808,-0.1080243,1.426775,0.07631746,-0.4131808,1.39737,-0.08053344,0.06113774,1.42569,-0.007133971,-0.4011157,1.371605,-0.1430695,-0.1826263,1.427995,0.3109002,0.134625,1.186576,NA,NA,NotTracked,Unknown,
-0.9379883,0.3110352,-0.1728516,0.9438477,-0.3022461,0.05175781,-17,9,2,-1,-3,0,1,-3,0,-2,-2,-1,0,-1,0,-1,-5.6875,-5.6875,-5.6875,0,0,0,8.290261,6.907761,6.540021,2.713778,3.003569,5.791635,-0.1468238,-0.464725,1.349371,0.145532,0.3364608,1.293204,0.09093955,0.3147456,1.448367,-0.09736721,-0.4500952,1.332515,0.1500869,0.2976793,1.337525,0.08418438,-0.107352,1.427229,0.07596768,-0.4125995,1.397241,-0.080349,0.06130224,1.425733,-0.007435463,-0.4006198,1.37182,-0.143341,-0.1823497,1.429243,0.3091719,0.135446,1.18601,NA,NA,NotTracked,Closed,
-0.9272461,0.3100586,-0.1787109,0.9438477,-0.3022461,0.05175781,29,13,-2,-3,-2,-1,-9,8,0,-2,-2,-1,0,-1,0,-1,-1.9375,-1.9375,-1.9375,0,0,0,8.27465,6.908475,6.532022,2.713778,3.003569,5.791635,-0.1469971,-0.4643662,1.347849,0.1442699,0.3372228,1.293354,0.09072963,0.3147738,1.448137,-0.09752426,-0.4508139,1.332722,0.1453508,0.2975577,1.337216,0.08395266,-0.107146,1.426816,0.07570914,-0.4124616,1.396999,-0.08021214,0.06143454,1.425783,-0.007648597,-0.4005191,1.371823,-0.1433839,-0.1820389,1.429912,0.3086062,0.1354581,1.185615,NA,NA,NotTracked,Unknown,
-0.8842773,0.2851563,-0.1982422,0.9438477,-0.3022461,0.05175781,-9,-5,-3,-3,0,-5,-2,-2,0,-2,-2,-1,0,-1,0,-1,2.5625,2.5625,2.5625,0,0,0,8.223404,6.91349,6.47448,2.713778,3.003569,5.791635,-0.1469261,-0.4633861,1.34457,0.1453054,0.3369476,1.28955,0.09035483,0.3146402,1.44747,-0.09721311,-0.4497136,1.332925,0.1497156,0.2964004,1.332162,0.08368278,-0.10692,1.42634,0.07531993,-0.4122368,1.396734,-0.08001369,0.06151636,1.425724,-0.008074139,-0.4002267,1.371882,-0.1433604,-0.1819214,1.430082,0.3062297,0.1351879,1.185261,NA,NA,NotTracked,Unknown,
-0.8989258,0.2983398,-0.2709961,0.9438477,-0.3022461,0.05175781,-8,-10,1,-2,-8,1,2,4,0,-2,-2,-1,0,-1,0,-1,8.625,8.625,8.625,0,0,0,8.060061,6.915434,6.283479,2.713778,3.003569,5.791635,-0.1471364,-0.463984,1.343798,0.1561488,0.3383571,1.261215,0.09033927,0.3147356,1.447106,-0.09776422,-0.4496712,1.333603,0.1444023,0.3100853,1.312615,0.08356958,-0.1065809,1.426044,0.07512175,-0.4118878,1.396649,-0.07984487,0.06183009,1.425834,-0.00832979,-0.3998877,1.372043,-0.143411,-0.1817644,1.43012,0.3069695,0.1322953,1.18338,NA,NA,NotTracked,Unknown,
-0.9550781,0.3095703,-0.1835938,0.9438477,-0.3022461,0.05175781,-2,-12,-4,0,19,4,5,4,0,-2,-2,-1,0,-1,0,-1,-1.3125,-1.3125,-1.3125,0,0,0,7.711338,6.880193,5.892118,2.713778,3.003569,5.791635,-0.1467008,-0.465475,1.344161,0.1624106,0.3500728,1.220272,0.09001983,0.3148126,1.447297,-0.09796624,-0.45183,1.334792,0.1395671,0.340735,1.2908,0.08635732,-0.1048619,1.427519,0.07602626,-0.4105363,1.396824,-0.0774385,0.06688761,1.440777,-0.006615444,-0.3990882,1.372911,-0.1433447,-0.1817584,1.430208,0.313525,0.121242,1.178726,NA,NA,NotTracked,Closed,
-0.9794922,0.4365234,0.05126953,0.9438477,-0.3022461,0.05175781,-1,2,-1,-1,9,2,3,-3,0,-2,-2,-1,0,-1,0,-1,12.125,12.125,12.125,0,0,0,7.155601,6.704315,5.268265,2.713778,3.003569,5.791635,-0.1463155,-0.4652209,1.34579,0.2027399,0.3183843,1.148255,0.08920062,0.3151637,1.448857,-0.09832034,-0.4510754,1.335374,0.2092703,0.2759876,1.1898,0.08899868,-0.1032406,1.429351,0.07746759,-0.4085131,1.397406,-0.07694267,0.07025214,1.446154,-0.004084761,-0.397506,1.374743,-0.1431807,-0.1822985,1.430545,0.3159188,0.1112051,1.177078,NA,NA,NotTracked,Closed,
-0.8530273,0.5610352,0.3012695,0.9438477,-0.3022461,0.05175781,-26,2,2,3,-11,1,9,-1,0,-2,-2,-1,0,-1,0,-1,7,7,7,0,0,0,6.825842,6.414458,4.862931,2.713778,3.003569,5.791635,-0.1458912,-0.4652531,1.346488,0.2219785,0.3055951,1.093986,0.08722792,0.3156133,1.452108,-0.09735722,-0.4506686,1.333631,0.2066363,0.2840677,1.131467,0.08771258,-0.1048023,1.428757,0.07831502,-0.4107287,1.39763,-0.08472682,0.06481237,1.437205,-0.003453911,-0.4012674,1.375365,-0.1430862,-0.1834207,1.430859,0.3143069,0.100791,1.176286,NA,NA,NotTracked,Closed,
-0.5893555,0.6977539,0.4287109,0.9438477,-0.3022461,0.05175781,3,-2,0,2,13,0,-4,0,0,-2,-2,-1,0,-1,0,-1,-1.625,-1.625,-1.625,0,0,0,6.684965,6.111402,4.636667,2.713778,3.003569,5.791635,-0.1461138,-0.465525,1.347059,0.2374723,0.2914588,1.045644,0.08552481,0.3164522,1.455234,-0.09765697,-0.4509518,1.334512,0.1904727,0.3082953,1.084875,0.08580609,-0.1071288,1.428376,0.07845296,-0.4149888,1.397875,-0.08616132,0.06305668,1.434641,-0.003645541,-0.406906,1.375695,-0.1431803,-0.1846598,1.431391,0.3153198,0.09508634,1.176166,NA,NA,NotTracked,Closed,
-0.4545898,0.7021484,0.4741211,0.9438477,-0.3022461,0.05175781,3,-5,-5,-1,-10,-1,4,-1,0,-2,-2,-1,0,-1,0,-1,11.6875,11.6875,11.6875,0,0,0,6.626045,5.922934,4.528661,2.713778,3.003569,5.791635,-0.1472936,-0.4652356,1.347073,0.2505252,0.2734624,1.008816,0.08466437,0.3168615,1.457479,-0.09986863,-0.4527332,1.343269,0.204414,0.3005485,1.056,0.08403093,-0.1100599,1.429879,0.07756298,-0.4189768,1.397856,-0.08689412,0.0620738,1.43329,-0.004663751,-0.4117962,1.37556,-0.1431193,-0.1862759,1.431837,0.3156901,0.09220842,1.175727,NA,NA,NotTracked,Closed,
-0.3691406,0.7470703,0.5581055,0.9438477,-0.3022461,0.05175781,4,-6,-3,-3,-16,-3,-1,-3,0,-2,-2,-1,0,-1,0,-1,-5.9375,-5.9375,-5.9375,0,0,0,6.583054,5.787269,4.463179,2.713778,3.003569,5.791635,-0.1476702,-0.4648348,1.346592,0.260095,0.2578875,0.9877623,0.08429775,0.3168993,1.458571,-0.09797042,-0.4518613,1.336208,0.2067688,0.2815641,0.9986667,0.0829043,-0.11215,1.432204,0.07633884,-0.4220885,1.398229,-0.08880731,0.05770336,1.441508,-0.005590567,-0.4148239,1.375797,-0.1432705,-0.186483,1.432139,0.3155624,0.08880244,1.174606,NA,NA,NotTracked,Closed,
-0.4760742,0.8134766,0.5629883,0.9438477,-0.3022461,0.05175781,-5,-3,-2,2,3,1,0,-2,0,-2,-2,-1,0,-1,0,-1,-18.6875,-18.6875,-18.6875,0,0,0,6.546106,5.726997,4.432844,2.713778,3.003569,5.791635,-0.148909,-0.4641488,1.346675,0.2633561,0.2486496,0.9805385,0.08401027,0.3169238,1.459045,-0.09827755,-0.4524085,1.336829,0.2117053,0.2770165,1.003735,0.08249467,-0.1130382,1.433019,0.07569274,-0.4235208,1.398178,-0.0888612,0.05837563,1.437398,-0.006208104,-0.4162022,1.375603,-0.1433714,-0.1868512,1.432423,0.3164372,0.0829053,1.174164,NA,NA,NotTracked,Closed,
-0.4853516,0.7910156,0.5419922,0.9438477,-0.3022461,0.05175781,-1,-4,-1,-2,-1,-1,-3,-1,0,-2,-2,-1,0,-1,0,-1,-4.9375,-4.9375,-4.9375,0,0,0,6.515988,5.706299,4.423467,2.713778,3.003569,5.791635,-0.1489294,-0.4635477,1.347922,0.2653504,0.2425183,0.9776467,0.0841345,0.3170971,1.459687,-0.09810583,-0.4512086,1.335521,0.2103459,0.2751972,0.9969293,0.0823747,-0.1134862,1.433573,0.07511279,-0.4245077,1.398403,-0.08872032,0.05894086,1.435654,-0.006728251,-0.4170809,1.37568,-0.1437351,-0.1871511,1.432951,0.3166873,0.07983685,1.171642,NA,NA,NotTracked,Closed,
-0.4472656,0.7504883,0.5180664,0.9438477,-0.3022461,0.05175781,-5,3,1,-2,7,-1,-1,-1,0,-2,-2,-1,0,-1,0,-1,-4.5625,-4.5625,-4.5625,0,0,0,6.511091,5.7007,4.428623,2.713778,3.003569,5.791635,-0.1501764,-0.4637385,1.349295,0.2660705,0.2385371,0.9767605,0.08430333,0.3171678,1.459934,-0.09925584,-0.4510365,1.339002,0.2146316,0.2649075,0.9962912,0.08257698,-0.1138125,1.433931,0.07503328,-0.4252871,1.398523,-0.08822396,0.05756672,1.43998,-0.006789031,-0.4176508,1.375743,-0.1439254,-0.1869742,1.433304,0.3166179,0.07735617,1.170798,NA,NA,NotTracked,Closed,
-0.4472656,0.7167969,0.4975586,0.9438477,-0.3022461,0.05175781,-9,-5,1,2,9,0,-1,-2,0,-2,-2,-1,0,-1,0,-1,1.3125,1.3125,1.3125,0,0,0,6.515906,5.698644,4.436224,2.713778,3.003569,5.791635,-0.1502671,-0.4627207,1.348504,0.26579,0.2351068,0.9763848,0.08454712,0.3171758,1.460022,-0.09854297,-0.4509009,1.336138,0.2147537,0.2618802,0.9944546,0.08254838,-0.1139817,1.434019,0.07483739,-0.4258051,1.398564,-0.08818618,0.05866513,1.436302,-0.00697395,-0.4180748,1.375743,-0.1441799,-0.1871766,1.433806,0.3171636,0.0739508,1.170135,NA,NA,NotTracked,Closed,
-0.4013672,0.7011719,0.4941406,0.9438477,-0.3022461,0.05175781,3,-2,0,0,3,-1,0,6,0,-2,-2,-1,0,-1,0,-1,0.5625,0.5625,0.5625,0,0,0,6.52152,5.690118,4.442516,2.713778,3.003569,5.791635,-0.1507173,-0.4628321,1.348823,0.2667812,0.2296504,0.9769887,0.08482648,0.317328,1.460184,-0.09980448,-0.4511545,1.33928,0.2138039,0.2623972,0.9999814,0.0825562,-0.1140596,1.434052,0.07465634,-0.4261355,1.398602,-0.08811549,0.05915003,1.434393,-0.007132689,-0.4183267,1.37578,-0.1441789,-0.187219,1.433835,0.3174773,0.0675672,1.171918,NA,NA,NotTracked,Closed,
-0.3193359,0.6621094,0.4550781,0.9438477,-0.3022461,0.05175781,7,-3,-1,3,-5,-2,1,0,0,-2,-2,-1,0,-1,0,-1,7,7,7,0,0,0,6.532862,5.678659,4.451414,2.713778,3.003569,5.791635,-0.1503107,-0.4638098,1.348678,0.26678,0.2210249,0.977434,0.08506447,0.3174958,1.460262,-0.09887946,-0.4509657,1.337549,0.2143776,0.2524542,0.994875,0.08255192,-0.1140934,1.434036,0.07454532,-0.4263896,1.398648,-0.08779625,0.05890918,1.436235,-0.007205361,-0.4185954,1.375858,-0.1439678,-0.1872904,1.433826,0.3195466,0.0551029,1.174567,NA,NA,NotTracked,Closed,
-0.2563477,0.6079102,0.4423828,0.9438477,-0.3022461,0.05175781,-5,-2,-1,-1,-4,-1,-3,-2,0,-2,-2,-1,0,-1,0,-1,1,1,1,0,0,0,6.546354,5.650812,4.471425,2.713778,3.003569,5.791635,-0.1479407,-0.4649306,1.347411,0.2642328,0.2057834,0.9820849,0.08514576,0.3178237,1.460271,-0.09880756,-0.4501725,1.337561,0.2163005,0.2377849,1.0035,0.08205288,-0.1143277,1.432988,0.07443573,-0.4269194,1.398938,-0.08777492,0.05783378,1.440491,-0.007179152,-0.4191673,1.37613,-0.1435311,-0.1874208,1.433729,0.321891,0.04431463,1.175608,NA,NA,NotTracked,Closed,
-0.2739258,0.6210938,0.4370117,0.9438477,-0.3022461,0.05175781,9,1,-1,0,3,-2,2,0,0,-2,-2,-1,0,-1,0,-1,3.25,3.25,3.25,0,0,0,6.551772,5.619335,4.482123,2.713778,3.003569,5.791635,-0.1452848,-0.4652695,1.346609,0.2633966,0.1744815,0.9884405,0.08506249,0.3183702,1.459883,-0.0971862,-0.4426272,1.331674,0.223116,0.1604575,0.9713928,0.08157885,-0.1145791,1.431527,0.0743688,-0.4274419,1.399168,-0.08794349,0.05698351,1.441383,-0.00711367,-0.419584,1.376225,-0.1427266,-0.1883726,1.433489,0.3278528,0.01255177,1.182585,NA,NA,NotTracked,Closed,
-0.2416992,0.6772461,0.4926758,0.9438477,-0.3022461,0.05175781,-1,-1,-5,-2,-1,-3,-3,-6,0,-2,-2,-1,0,-1,0,-1,14,14,14,0,0,0,6.573894,5.482695,4.487027,2.713778,3.003569,5.791635,-0.1432211,-0.4657542,1.34658,0.2636536,0.1140876,0.9911553,0.08459975,0.3188369,1.458937,-0.09865136,-0.449854,1.339807,0.2268929,0.09584853,0.9617143,0.08148437,-0.1146709,1.430987,0.07448719,-0.4277344,1.399305,-0.08805713,0.05633631,1.441344,-0.006852733,-0.4198333,1.376007,-0.1414247,-0.1894064,1.432627,0.3314031,-0.03775554,1.201837,NA,NA,NotTracked,Unknown,
-0.1694336,0.7856445,0.5942383,0.9438477,-0.3022461,0.05175781,10,4,-1,-2,-5,0,-1,1,0,-2,-2,-1,0,-1,0,-1,17.6875,17.6875,17.6875,0,0,0,6.592718,5.31259,4.465022,2.713778,3.003569,5.791635,-0.1417668,-0.4660508,1.347273,0.2642277,0.03542935,0.9947372,0.08434238,0.3194777,1.457358,-0.09730537,-0.4484398,1.335717,0.2660085,0.003682591,0.9706957,0.08165254,-0.115042,1.43086,0.07479195,-0.428678,1.39949,-0.0881132,0.05573659,1.440692,-0.006500669,-0.4203669,1.37563,-0.1406861,-0.1905663,1.431271,0.3224484,-0.08522645,1.232404,NA,NA,NotTracked,Closed,
-0.04833984,0.8632813,0.6098633,0.9438477,-0.3022461,0.05175781,-3,-6,-1,-1,-1,-1,1,-1,0,-2,-2,-1,0,-1,0,-1,-12.6875,-12.6875,-12.6875,0,0,0,6.585141,4.976024,4.466292,2.713778,3.003569,5.791635,-0.1409123,-0.4663049,1.345386,0.2651787,-0.06136235,0.9972807,0.08394438,0.3203632,1.45472,-0.09582157,-0.4464783,1.335779,0.2569354,-0.09015499,0.9715835,0.08151668,-0.1155059,1.429332,0.07513752,-0.4294221,1.399387,-0.08832551,0.05477745,1.438695,-0.005948975,-0.4212107,1.374361,-0.139909,-0.1925638,1.429137,0.2854183,-0.1535475,1.338805,NA,NA,NotTracked,Unknown,
0.1259766,0.8696289,0.6166992,0.9438477,-0.3022461,0.05175781,-17,-3,1,3,0,0,3,-1,0,-2,-2,-1,0,-1,0,-1,15.1875,15.1875,15.1875,0,0,0,6.591988,4.772521,4.466754,2.713778,3.003569,5.791635,-0.1415792,-0.4671962,1.344005,0.2726516,-0.1610853,1.028512,0.08406418,0.3215172,1.451268,-0.09402917,-0.4506238,1.330653,0.2463517,-0.1850909,1.010562,0.08171979,-0.115654,1.428656,0.07550325,-0.4297928,1.399165,-0.08853967,0.05432523,1.436024,-0.005220604,-0.4215328,1.372551,-0.1395478,-0.1937929,1.426874,0.3147608,-0.1402042,1.315978,NA,NA,NotTracked,Unknown,
0.2817383,1.025879,0.4916992,0.9438477,-0.3022461,0.05175781,3,0,1,0,-1,-3,-1,0,0,-2,-2,-1,0,-1,0,-1,13.875,13.875,13.875,0,0,0,6.637592,4.333258,4.485645,2.713778,3.003569,5.791635,-0.1420783,-0.4655392,1.33818,0.2751123,-0.2521802,1.086199,0.08386657,0.3219135,1.447527,-0.09451193,-0.4407369,1.327833,0.2611588,-0.300503,1.117714,0.08193117,-0.1160668,1.427029,0.07602697,-0.4302786,1.398302,-0.08813992,0.05459572,1.4318,-0.004529862,-0.4219321,1.369658,-0.1394985,-0.1947654,1.422777,0.324807,-0.1426235,1.341877,NA,NA,NotTracked,Unknown,
