ALX,ALY,ALZ,ARX,ARY,ARZ,EMG0L,EMG1L,EMG2L,EMG3L,EMG4L,EMG5L,EMG6L,EMG7L,EMG0R,EMG1R,EMG2R,EMG3R,EMG4R,EMG5R,EMG6R,EMG7R,GLX,GLY,GLZ,GRX,GRY,GRZ,ORL,OPL,OYL,ORR,OPR,OYR,LHNX,LHNY,LHNZ,RHNX,RHNY,RHNZ,HX,HY,HZ,LTX,LTY,LTZ,RTX,RTY,RTZ,SpineMidX,SpineMidY,SpineMidZ,SpineBaseX,SpineBaseY,SpineBaseZ,ShoulderLeftX,ShoulderLeftY,ShoulderLeftZ,ShoulderRightX,ShoulderRightY,ShoulderRightZ,ElbowLeftX,ElbowLeftY,ElbowLeftZ,ElbowRightX,ElbowRightY,ElbowRightZ,Myo_Pose_left,Myo_Pose_Right,Kinect_pose_left,Kinect_pose_right
0.9487305,0.2250977,0.02392578,0.9536133,-0.28125,0.03564453,-4,-1,0,0,-13,1,3,-11,1,-1,-2,1,-1,-3,-2,-2,-1.625,-1.625,-1.625,-0.75,-0.75,-0.75,7.345533,2.857632,6.054197,2.662358,2.961697,9.119442,-0.1097278,-0.4838676,1.342378,0.3243456,-0.475654,1.360395,0.1086566,0.3140949,1.460216,-0.06208143,-0.4738294,1.342292,0.2800776,-0.4804363,1.340037,0.1134212,-0.1201893,1.453304,0.1216896,-0.4304303,1.431995,-0.06492146,0.04462757,1.430137,0.04230805,-0.421546,1.395905,-0.1140678,-0.2084667,1.418408,0.3223338,-0.2186427,1.440472,NA,NA,NotTracked,NotTracked,
0.9472656,0.2299805,0.02099609,0.9580078,-0.2802734,0.03662109,2,-1,-2,0,8,2,1,-7,0,-3,-3,-3,-1,-1,-2,0,-2.25,-2.25,-2.25,-2.6875,-2.6875,-2.6875,7.347362,2.856162,6.049241,2.654984,2.958834,9.124403,-0.1089924,-0.4845122,1.342638,0.3240914,-0.4756594,1.359132,0.1086848,0.3140582,1.460176,-0.06243354,-0.474578,1.340529,0.2830779,-0.4655612,1.344867,0.1133532,-0.1201927,1.452947,0.1216755,-0.4304132,1.431676,-0.06512471,0.04445804,1.430029,0.04230466,-0.4215495,1.395586,-0.1139838,-0.2086581,1.418244,0.3226128,-0.2190199,1.440083,NA,NA,NotTracked,NotTracked,
0.9448242,0.2397461,0.02929688,0.9555664,-0.28125,0.03564453,-3,-2,0,1,-5,4,9,0,-1,-1,-1,-1,0,-1,-1,-3,-1.1875,-1.1875,-1.1875,-0.625,-0.625,-0.625,7.34872,2.855814,6.042789,2.649708,2.956439,9.127793,-0.1091984,-0.4843575,1.343045,0.3241811,-0.4758029,1.360212,0.1086329,0.3140466,1.460093,-0.06218154,-0.4724375,1.340065,0.2860506,-0.4958775,1.345533,0.1132259,-0.1201158,1.452557,0.1216222,-0.4303135,1.431249,-0.06527065,0.04433553,1.429835,0.04226719,-0.4214756,1.395192,-0.1141703,-0.2087612,1.417972,0.3225728,-0.2189485,1.439793,NA,NA,NotTracked,NotTracked,
0.9453125,0.2324219,0.02783203,0.9580078,-0.2773438,0.04150391,-1,0,-3,0,0,-2,-7,-2,-2,0,-4,-2,-2,-1,-1,-2,-1.25,-1.25,-1.25,-1.6875,-1.6875,-1.6875,7.351616,2.855506,6.037341,2.649572,2.955725,9.126619,-0.1092978,-0.4844159,1.341719,0.3243543,-0.4757909,1.358803,0.1085065,0.3140257,1.459942,-0.06709155,-0.471379,1.331334,0.2833923,-0.456746,1.346298,0.113158,-0.1201309,1.452098,0.1216514,-0.4303359,1.430821,-0.06558443,0.04412741,1.429537,0.04227439,-0.4215327,1.394741,-0.1140418,-0.2089124,1.417581,0.3226463,-0.2189316,1.439471,NA,NA,NotTracked,NotTracked,
0.9433594,0.2314453,0.02587891,0.9555664,-0.2807617,0.03271484,0,-1,-1,0,-19,-9,-4,-1,-1,-2,-3,-1,-1,-3,-1,-1,-1.3125,-1.3125,-1.3125,-0.375,-0.375,-0.375,7.354906,2.855426,6.032372,2.649951,2.955311,9.125,-0.1089116,-0.4839507,1.341726,0.3243533,-0.4755941,1.359079,0.1084451,0.3140528,1.459535,-0.06530473,-0.474343,1.336046,0.2991001,-0.5097308,1.3566,0.1131296,-0.1200944,1.451746,0.1216613,-0.4302871,1.43045,-0.06576817,0.04403445,1.428938,0.04229746,-0.4214458,1.394292,-0.1139937,-0.208934,1.41742,0.3226261,-0.2186996,1.43906,NA,NA,NotTracked,NotTracked,
0.9487305,0.2236328,0.02880859,0.9868164,-0.2783203,0.0390625,1,1,0,1,0,-11,-4,-1,-1,-2,-1,0,-2,-2,-1,0,0.125,0.125,0.125,-3.5625,-3.5625,-3.5625,7.353979,2.855454,6.032157,2.654881,2.955555,9.117108,-0.1087366,-0.484417,1.340611,0.3237753,-0.4756205,1.358894,0.1083957,0.3140324,1.459144,-0.06636854,-0.4750471,1.333771,0.2813455,-0.4747883,1.340324,0.1130374,-0.12017,1.451271,0.1216874,-0.4303707,1.430109,-0.06588206,0.04407155,1.428502,0.04230226,-0.4215235,1.393894,-0.114109,-0.2092958,1.417218,0.3226272,-0.2187589,1.438777,NA,NA,NotTracked,NotTracked,
0.9516602,0.2236328,0.02294922,1.003906,-0.2734375,0.04833984,10,19,7,-1,-8,-1,-2,-4,0,-2,-1,4,4,0,-54,-6,-0.0625,-0.0625,-0.0625,-4.5625,-4.5625,-4.5625,7.356642,2.855108,6.029895,2.737882,2.964163,9.025778,-0.107734,-0.483971,1.339355,0.3248841,-0.4756721,1.358781,0.10825,0.3141231,1.45883,-0.07339855,-0.4757183,1.320899,0.2836708,-0.471125,1.343301,0.1129081,-0.1201425,1.450679,0.1217122,-0.4304409,1.429698,-0.06603351,0.04403324,1.428064,0.0423142,-0.4215985,1.393399,-0.1139434,-0.2091677,1.4168,0.3225751,-0.2187935,1.438427,NA,NA,NotTracked,NotTracked,
1.063477,0.2255859,-0.01416016,0.9980469,-0.4047852,0.2202148,27,-3,11,9,10,-1,-1,-1,0,-2,-11,-11,-4,-1,21,5,-0.625,-0.625,-0.625,-55.625,-55.625,-55.625,7.320646,2.864803,6.068187,3.000579,3.042256,8.6632,-0.1004265,-0.4789861,1.324087,0.3223807,-0.4748551,1.352051,0.1081265,0.3141176,1.458493,-0.06134972,-0.4653105,1.339921,0.2774007,-0.4906301,1.3346,0.1129254,-0.1200525,1.450209,0.1218489,-0.4303649,1.429122,-0.066186,0.04400422,1.427606,0.0424221,-0.421586,1.392873,-0.1141225,-0.2082209,1.416183,0.3226769,-0.2187873,1.438329,NA,NA,NotTracked,NotTracked,
1.189941,0.4746094,0.1884766,0.9272461,-0.5678711,0.3222656,-1,-16,2,5,-5,-1,1,2,-1,-1,0,12,8,2,-8,1,38.6875,38.6875,38.6875,-42.75,-42.75,-42.75,6.743717,3.052504,6.730204,3.224308,3.206315,8.334937,-0.08163469,-0.4604957,1.28707,0.3067598,-0.4570183,1.31502,0.107993,0.3143766,1.458268,-0.05845417,-0.43466,1.26564,0.2658794,-0.4399155,1.321793,0.1132473,-0.1197876,1.450295,0.1221039,-0.4299755,1.428595,-0.06645831,0.04438175,1.427148,0.04267715,-0.4212436,1.392164,-0.1136321,-0.2024439,1.414696,0.3238341,-0.2145537,1.44042,NA,NA,Unknown,NotTracked,
1.184082,0.7749023,0.565918,0.9326172,-0.7128906,0.5361328,-4,58,23,2,9,1,-5,-14,-6,0,2,9,19,12,43,-3,31,31,31,-41.375,-41.375,-41.375,6.565024,3.286443,6.972169,3.402906,3.461645,8.045506,-0.04292393,-0.41417,1.23682,0.2672656,-0.3754276,1.245368,0.1081672,0.3145854,1.458009,-0.01375809,-0.4101589,1.255167,0.2541576,-0.4007078,1.256316,0.113438,-0.11959,1.449816,0.122404,-0.4295251,1.427414,-0.06612647,0.04538603,1.425277,0.042801,-0.4208862,1.389983,-0.1119017,-0.1919923,1.411092,0.3236976,-0.1914589,1.447381,NA,NA,Unknown,Unknown,
0.4023438,0.777832,0.6103516,0.8134766,-0.6933594,0.6625977,-25,-15,-9,-6,-3,0,-1,1,-7,-12,-5,-6,-6,-2,-4,-7,50.75,50.75,50.75,-10.1875,-10.1875,-10.1875,6.403857,4.023387,7.272121,3.575849,3.795797,7.780593,0.00689125,-0.3381828,1.193452,0.2178723,-0.2319577,1.211994,0.1085425,0.3146333,1.457927,0.03530555,-0.3395823,1.254778,0.1752004,-0.2798455,1.2288,0.1134558,-0.1193788,1.449076,0.1224288,-0.4291369,1.426635,-0.06461333,0.04603742,1.422772,0.04290215,-0.4206155,1.388661,-0.1130744,-0.172931,1.399406,0.3250795,-0.1630116,1.441592,NA,NA,Unknown,Unknown,
0.1821289,0.7260742,0.5541992,0.4892578,-0.6357422,0.6894531,-8,15,-4,-2,-1,-2,0,0,5,7,-4,-12,-10,-11,2,-1,29.25,29.25,29.25,-18.4375,-18.4375,-18.4375,6.409891,4.665622,7.418335,3.690768,4.318878,7.510889,0.04687477,-0.2467776,1.161401,0.1754193,-0.09330232,1.19636,0.1095389,0.3145142,1.457873,0.06056806,-0.2359307,1.231167,0.1340188,-0.1173534,1.254833,0.1133024,-0.1188678,1.449253,0.1217786,-0.4268579,1.427365,-0.05077392,0.05021723,1.425334,0.04274806,-0.4172638,1.388971,-0.1153221,-0.1602925,1.375567,0.3685983,-0.1689472,1.383041,NA,NA,Unknown,Unknown,
-0.1625977,0.7207031,0.5922852,0.3930664,-0.5664063,0.6010742,7,-1,-4,-2,-2,0,-1,-2,1,8,2,2,2,5,22,0,67.625,67.625,67.625,-17.125,-17.125,-17.125,6.527885,5.455226,7.597063,3.704145,4.665368,7.385791,0.07856457,-0.1635922,1.141574,0.1553393,0.03327703,1.22372,0.1124226,0.3140337,1.458206,0.1045931,-0.1876313,1.158,0.1249298,0.0206442,1.2824,0.1131936,-0.1189242,1.449624,0.1213945,-0.4269722,1.427534,-0.04587543,0.05154195,1.425188,0.04219311,-0.4171194,1.389001,-0.1311065,-0.1566029,1.34298,0.3436424,-0.1593443,1.358556,NA,NA,Unknown,Closed,
-0.3129883,0.6728516,0.4555664,0.2578125,-0.534668,0.5405273,-40,0,2,10,3,-3,-9,-6,2,2,1,-2,1,0,-14,5,36.5625,36.5625,36.5625,-21.375,-21.375,-21.375,6.667484,5.88381,7.756852,3.681938,4.907592,7.295099,0.1068273,-0.1012144,1.131113,0.1728308,0.08742207,1.262841,0.1128585,0.3154166,1.458759,0.1112636,-0.1289686,1.14625,0.153162,0.05064253,1.299833,0.1128222,-0.1197307,1.450175,0.1202611,-0.428663,1.427554,-0.04426854,0.05338657,1.425068,0.04048303,-0.4186153,1.390911,-0.1212601,-0.1509436,1.30717,0.3337966,-0.1537201,1.34378,NA,NA,Unknown,Unknown,
-0.3876953,0.6235352,0.3540039,0.08447266,-0.5546875,0.5771484,-19,-9,-6,-4,-3,-1,0,2,1,-19,-10,-5,-3,-3,2,5,24.3125,24.3125,24.3125,-17.9375,-17.9375,-17.9375,6.84058,6.138296,7.963457,3.639714,5.057268,7.199454,0.1193011,-0.06763937,1.128068,0.1531639,0.1504768,1.287099,0.1130474,0.3165836,1.458719,0.1348361,-0.09153593,1.138118,0.1255396,0.1188708,1.292529,0.110896,-0.1209278,1.449291,0.119598,-0.4293319,1.4275,-0.04592463,0.05674879,1.42009,0.03918393,-0.419325,1.392878,-0.1131074,-0.1340128,1.289808,0.3325335,-0.1437878,1.344314,NA,NA,Unknown,Unknown,
-0.3876953,0.6235352,0.3540039,0.02001953,-0.6254883,0.5761719,6,-6,-5,-9,-12,0,1,-1,0,3,-3,-12,-1,2,6,-3,24.3125,24.3125,24.3125,-9.0625,-9.0625,-9.0625,6.84058,6.138296,7.963457,3.622391,5.088295,7.152878,0.1302801,-0.05343682,1.125646,0.1577924,0.1630038,1.312309,0.1144774,0.3150461,1.457261,0.1332603,-0.08329035,1.139933,0.1277419,0.1322286,1.321421,0.111116,-0.1213876,1.449931,0.1192861,-0.4296148,1.42759,-0.04406068,0.05737475,1.420734,0.03863975,-0.4192784,1.39443,-0.1274961,-0.1299199,1.318084,0.32515,-0.1329492,1.295128,NA,NA,Unknown,NotTracked,
-0.5292969,0.6220703,0.1967773,-0.03173828,-0.6879883,0.6474609,16,23,12,10,5,-1,2,1,-6,-5,-5,4,3,0,-1,-3,-1.6875,-1.6875,-1.6875,-2.3125,-2.3125,-2.3125,7.117712,6.357469,8.337864,3.623014,5.09033,7.133224,0.1372664,-0.05008078,1.127217,0.1557575,0.1685818,1.318442,0.1167542,0.311965,1.455172,0.1443771,-0.0790243,1.1412,0.1289228,0.1313207,1.336692,0.1108999,-0.1217235,1.449495,0.1190909,-0.4295394,1.427496,-0.04468536,0.05820842,1.415926,0.03842393,-0.4189713,1.394995,-0.1235403,-0.1335111,1.308012,0.32469,-0.1328188,1.291733,NA,NA,Unknown,NotTracked,
-0.4384766,0.621582,0.3271484,-0.01269531,-0.824707,0.6884766,-19,-3,-2,3,-2,-3,-2,-5,4,4,4,11,7,4,8,9,-23.1875,-23.1875,-23.1875,-4.1875,-4.1875,-4.1875,7.048082,6.301128,8.287896,3.611701,5.086432,7.126695,0.1430639,-0.04807277,1.128988,0.1491416,0.1704924,1.306298,0.1173099,0.3117665,1.454781,0.1471205,-0.07807249,1.141421,0.1212867,0.1357198,1.327213,0.1111354,-0.1216765,1.449903,0.1190048,-0.4293472,1.427473,-0.0469816,0.05943508,1.411671,0.03839619,-0.418607,1.395405,-0.124023,-0.1332767,1.310588,0.324063,-0.1333042,1.292047,NA,NA,Unknown,NotTracked,
-0.4384766,0.621582,0.3271484,-0.06054688,-0.7871094,0.6762695,-20,-31,-19,-10,-6,-3,-6,-8,-2,-2,-12,-17,-10,-4,7,-6,-23.1875,-23.1875,-23.1875,3.5,3.5,3.5,7.048082,6.301128,8.287896,3.619979,5.101388,7.123824,0.1458551,-0.04385525,1.133665,0.1454019,0.154827,1.27633,0.1177012,0.313287,1.455164,0.1509662,-0.07539663,1.14955,0.1316389,0.1142898,1.2949,0.1102622,-0.1213642,1.448982,0.1189065,-0.4291774,1.427426,-0.04611773,0.0600659,1.413112,0.03836958,-0.4184709,1.395445,-0.1239237,-0.1330598,1.313119,0.3199971,-0.1390999,1.309146,NA,NA,Unknown,NotTracked,
-0.5478516,0.6713867,0.3081055,-0.06347656,-0.7875977,0.6791992,31,-4,-3,-3,-5,-5,-4,-1,2,7,3,11,5,2,-1,0,-68.875,-68.875,-68.875,9.875,9.875,9.875,6.641569,6.035406,7.992326,3.632369,5.129888,7.120226,0.1453643,-0.03713058,1.137632,0.1441456,0.1040268,1.226307,0.1182976,0.3153343,1.456133,0.1557472,-0.06742439,1.155933,0.1161676,0.09874669,1.205657,0.1105747,-0.1212089,1.449433,0.1188089,-0.4294038,1.427424,-0.04356789,0.05995241,1.417091,0.03833631,-0.4185475,1.395386,-0.12398,-0.1321839,1.31728,0.3135979,-0.1497571,1.321964,NA,NA,NotTracked,NotTracked,
-0.4350586,0.7617188,0.5307617,-0.1298828,-0.7412109,0.7016602,-16,-4,-1,-2,-15,-3,0,-3,-5,-3,-1,-9,-1,-2,-15,-11,-40.75,-40.75,-40.75,20.25,20.25,20.25,6.377298,5.579499,7.776976,3.669334,5.186893,7.086897,0.1436631,-0.01982068,1.152987,0.1334856,0.06026885,1.168252,0.1202102,0.3142175,1.457858,0.1209173,0.02762139,1.163049,0.1117437,0.0366479,1.158263,0.1114345,-0.120628,1.450122,0.1191381,-0.4289293,1.42759,-0.04556152,0.06006769,1.41348,0.03924235,-0.4178444,1.394128,-0.1231718,-0.1359405,1.320417,0.3099759,-0.1438116,1.329857,NA,NA,NotTracked,NotTracked,
0.222168,1.221191,1.356445,-0.2387695,-0.6118164,-0.2939453,3,-1,5,15,13,7,-1,1,-2,6,1,-1,2,5,36,1,-37.375,-37.375,-37.375,-3.5625,-3.5625,-3.5625,6.286357,5.298108,7.725534,3.641486,5.172815,7.080075,0.1461791,-0.02484543,1.144344,0.1384528,0.02419299,1.145191,0.1218501,0.3136375,1.459009,0.1306672,0.02191751,1.122917,0.1131843,0.01129769,1.145733,0.1132382,-0.1199036,1.451253,0.1197985,-0.4275019,1.427931,-0.042339,0.0586856,1.417018,0.04072606,-0.4154786,1.391524,-0.1029772,-0.1329587,1.305447,0.3045566,-0.1427113,1.330587,NA,NA,NotTracked,NotTracked,
-0.5375977,0.9902344,0.8417969,0.09716797,-0.4882813,0.6064453,-7,-1,-4,-2,-4,-9,-5,45,-3,-35,15,44,13,4,-4,-2,-28.875,-28.875,-28.875,-2.3125,-2.3125,-2.3125,6.282857,5.348495,7.686451,3.667339,5.071752,7.095428,0.1407817,-0.04564453,1.145181,0.1423606,0.02803106,1.147501,0.1226003,0.3132935,1.459458,0.1286633,0.01121606,1.134722,0.1212576,0.005482076,1.146636,0.1145162,-0.1186469,1.452037,0.1209961,-0.423687,1.42859,-0.04375003,0.05781394,1.412993,0.04280349,-0.4114897,1.389248,-0.1004996,-0.1371564,1.305679,0.3000495,-0.1370576,1.328175,NA,NA,NotTracked,NotTracked,
-0.5224609,0.9804688,0.6201172,0.1801758,-0.9580078,0.7124023,-39,-7,1,-4,-16,-22,-31,24,0,5,20,21,11,7,19,3,97.1875,97.1875,97.1875,-148.4375,-148.4375,-148.4375,6.39827,5.460328,7.645281,3.42479,4.956072,7.173042,0.1619946,-0.07937643,1.142292,0.1331454,0.05647928,1.148226,0.1231546,0.3131101,1.459889,0.1758644,-0.01576165,1.172513,0.1112802,0.03307913,1.1401,0.1154444,-0.1183375,1.453083,0.121189,-0.4234965,1.428834,-0.04103292,0.05772272,1.416949,0.04292603,-0.4114029,1.389286,-0.1003688,-0.1348965,1.30649,0.2856675,-0.1130611,1.28805,NA,NA,NotTracked,NotTracked,
-0.5473633,0.925293,0.4799805,0.05810547,-0.887207,0.5302734,3,-1,2,9,30,22,-19,33,-1,-2,2,7,1,3,4,-6,148.25,148.25,148.25,-95.9375,-95.9375,-95.9375,6.685534,5.702612,7.534348,3.248303,4.919322,7.169885,0.1475195,-0.1170492,1.146887,0.09575617,-0.1165009,1.168127,0.1233316,0.3130406,1.460076,0.1405052,-0.07955584,1.160286,0.118051,-0.1316398,1.126567,0.1158238,-0.1184187,1.453738,0.1211965,-0.4235699,1.428966,-0.04006239,0.05755667,1.418547,0.04288625,-0.4116465,1.389918,-0.1005823,-0.1341205,1.306985,0.2921409,-0.1100349,1.278753,NA,NA,NotTracked,NotTracked,
-0.4750977,0.6235352,0.3769531,0.08691406,-0.9702148,0.2924805,-1,-1,-3,-10,10,-24,15,23,-4,0,11,31,-6,-2,16,-5,96.0625,96.0625,96.0625,-121.75,-121.75,-121.75,6.858638,5.836802,7.509965,3.060103,4.864776,7.101499,0.1409021,-0.1362724,1.153199,0.1853889,-0.1402702,1.14214,0.1234308,0.313015,1.460428,0.1483838,-0.1084744,1.170786,0.2198246,-0.1567851,1.105572,0.1161642,-0.1184163,1.454189,0.1213148,-0.4236265,1.429066,-0.03923385,0.05740414,1.419573,0.04301925,-0.4118497,1.390561,-0.1095542,-0.1282191,1.303131,0.2631879,-0.1168707,1.217312,NA,NA,NotTracked,NotTracked,
-0.3505859,0.4555664,0.3125,0.09570313,-1.130371,0.2089844,-15,-3,-5,-3,-7,20,38,-16,-1,-6,-3,-8,1,3,11,8,72.375,72.375,72.375,-80.375,-80.375,-80.375,6.987305,5.793911,7.572028,2.840658,4.792953,7.005193,0.1543285,-0.1485214,1.157096,0.1624561,-0.147516,1.156181,0.1234992,0.3131963,1.460897,0.153153,-0.1274492,1.168857,0.1996727,-0.1588684,1.115975,0.1163529,-0.1181836,1.454408,0.1216179,-0.423097,1.429417,-0.04068057,0.05656089,1.417626,0.04325237,-0.4114834,1.390719,-0.1087444,-0.1313171,1.303759,0.3185548,-0.09180433,1.263094,NA,NA,NotTracked,NotTracked,
-0.3310547,0.5732422,0.175293,0.03759766,-1.071289,0.171875,-33,-8,-6,-3,2,27,-2,-5,4,9,22,8,3,8,20,5,60.5,60.5,60.5,-40.75,-40.75,-40.75,7.145098,5.588025,7.675908,2.769706,4.768512,6.934091,0.1468769,-0.127747,1.14463,0.1284461,-0.06687891,1.111661,0.1232668,0.3132872,1.461421,0.1314301,-0.1663392,1.165,0.1238404,-0.1106584,1.081667,0.1169848,-0.1169824,1.455256,0.1226451,-0.4203591,1.430016,-0.03937221,0.0562081,1.419393,0.0445045,-0.4089129,1.390068,-0.1096266,-0.1303817,1.304669,0.3226032,-0.09028762,1.263615,NA,NA,NotTracked,NotTracked,
-0.1079102,0.7592773,0.2084961,0.1044922,-1.009766,0.1308594,21,-2,-3,-5,-4,1,13,29,1,2,8,3,2,-2,-18,-2,41.625,41.625,41.625,-38.1875,-38.1875,-38.1875,7.2652,5.131685,7.747449,2.716256,4.761429,6.880175,0.1486421,-0.1521448,1.139683,0.1542726,-0.1147446,1.116008,0.1225902,0.3136183,1.462756,0.1948388,-0.1463134,1.1655,0.1735489,-0.1591071,1.116167,0.1174945,-0.1159663,1.455734,0.1234228,-0.418605,1.430151,-0.03993313,0.05600742,1.419065,0.04546073,-0.4072802,1.389496,-0.1107813,-0.1304449,1.304507,0.3100982,-0.08766648,1.257679,NA,NA,NotTracked,NotTracked,
-0.0009765625,1.055176,0.237793,0.2016602,-0.9389648,0.1225586,-11,5,2,0,4,25,6,-3,-2,-3,-9,-4,0,2,9,2,-6.375,-6.375,-6.375,-7.625,-7.625,-7.625,7.31303,4.715778,7.710379,2.671489,4.736032,6.846642,0.1450783,-0.1487286,1.16375,0.1594176,-0.1481092,1.11198,0.1218408,0.3137307,1.464053,0.193712,-0.14147,1.146333,0.1675069,-0.2057108,1.08675,0.1176727,-0.1156928,1.456076,0.123864,-0.4183171,1.430128,-0.03938545,0.05593396,1.420672,0.04596715,-0.4070689,1.389439,-0.1118241,-0.1289912,1.304485,0.3087227,-0.08851576,1.256413,NA,NA,NotTracked,NotTracked,
0.0004882813,1.15918,-0.04199219,0.230957,-0.9033203,0.1206055,1,-3,-5,-2,0,-3,-4,-23,1,-2,-3,0,-3,-6,-4,0,-58.75,-58.75,-58.75,19.6875,19.6875,19.6875,7.256939,4.6452,7.634892,2.690172,4.700597,6.872635,0.1446956,-0.1512535,1.159898,0.1606114,-0.1671369,1.105035,0.1212947,0.3137696,1.464732,0.221377,-0.1588431,1.138727,0.1778489,-0.1929482,1.076333,0.1176989,-0.1156826,1.45616,0.1240706,-0.4184163,1.430103,-0.03914934,0.05584661,1.421872,0.04626328,-0.4072442,1.389592,-0.1133205,-0.128037,1.305079,0.3050247,-0.09787242,1.263147,NA,NA,NotTracked,NotTracked,
0.418457,0.8769531,0.1523438,0.2504883,-0.9306641,0.2124023,3,0,-2,-2,-2,-4,0,17,1,2,-3,-6,-4,-3,1,1,-81.4375,-81.4375,-81.4375,30.125,30.125,30.125,7.160265,4.656464,7.564803,2.724315,4.648385,6.906584,0.1318475,-0.1665181,1.16369,0.1600482,-0.1705046,1.097005,0.1208444,0.3138305,1.464917,0.2211695,-0.1866571,1.14,0.1826089,-0.1787801,1.069512,0.1177574,-0.1156645,1.456189,0.1243868,-0.4185733,1.430048,-0.04356713,0.05445954,1.418102,0.04665306,-0.407507,1.389799,-0.1159937,-0.1317327,1.30423,0.3089092,-0.1037243,1.269241,NA,NA,NotTracked,NotTracked,
0.3740234,0.7890625,0.1689453,0.2509766,-0.7231445,0.3125,2,-1,-3,0,0,-1,0,7,0,-1,1,0,0,0,-4,0,-84.75,-84.75,-84.75,115.4375,115.4375,115.4375,7.120074,4.670339,7.536272,2.858537,4.57423,6.986763,0.1752523,-0.1633718,1.095219,0.1706119,-0.1715619,1.091447,0.1205354,0.3139662,1.464718,0.1992471,-0.1231329,1.105385,0.1980755,-0.18761,1.066222,0.1177801,-0.115595,1.456117,0.1244025,-0.4186476,1.429947,-0.04604544,0.05360101,1.416298,0.04665714,-0.4076121,1.389851,-0.1194952,-0.1349148,1.30763,0.3190533,-0.1131796,1.282942,NA,NA,NotTracked,NotTracked,
0.2768555,0.6298828,0.4243164,0.2597656,-0.7167969,0.2890625,-3,-2,-3,-1,-1,0,-1,-4,-5,-1,-1,0,6,3,1,-22,-112.1875,-112.1875,-112.1875,165.5,165.5,165.5,6.814549,4.610853,7.296844,3.114892,4.401895,7.269218,0.1954051,-0.1998988,1.096168,0.2045205,-0.1927069,1.097105,0.1200423,0.3143695,1.463967,0.2089871,-0.1556241,1.093429,0.2324898,-0.1945485,1.07471,0.1176518,-0.1155804,1.455472,0.1240575,-0.4193687,1.429426,-0.04564437,0.05335492,1.417477,0.04636971,-0.408161,1.389779,-0.1213304,-0.143366,1.329491,0.3312512,-0.1404877,1.335436,NA,NA,NotTracked,NotTracked,
0.2133789,0.7172852,0.3989258,0.5200195,-0.9067383,0.3393555,-15,-2,-1,1,1,-1,-3,-15,0,-1,-1,-2,-6,-1,8,-7,-107.3125,-107.3125,-107.3125,210.25,210.25,210.25,6.662717,4.385041,7.159157,3.290103,4.161576,7.58806,0.08111499,-0.3005789,1.177887,0.2534126,-0.2545178,1.120745,0.1197193,0.3146559,1.462663,0.11437,-0.2804881,1.24348,0.27499,-0.2420629,1.093333,0.1173279,-0.1158295,1.454763,0.1227094,-0.4208915,1.428759,-0.04325993,0.05363141,1.420909,0.04505255,-0.409301,1.389633,-0.108101,-0.1530178,1.352431,0.3558161,-0.1482834,1.392942,NA,NA,NotTracked,NotTracked,
0.6049805,0.9238281,0.487793,0.7612305,-0.6845703,0.3486328,35,-3,-3,-1,0,1,-3,10,1,0,-1,-1,-4,-15,-6,-5,-25.8125,-25.8125,-25.8125,168.375,168.375,168.375,6.629848,3.901597,6.966938,3.416328,3.870012,7.93412,0.015938,-0.3677883,1.189983,0.2985915,-0.3461936,1.170472,0.1194416,0.3145936,1.460537,0.06930321,-0.3972074,1.234072,0.301962,-0.3178102,1.144,0.1187308,-0.1169617,1.453962,0.1266166,-0.4245627,1.426419,-0.04540574,0.0508653,1.420347,0.04823824,-0.4157422,1.387484,-0.1007513,-0.163066,1.375754,0.332571,-0.1672795,1.408456,NA,NA,Unknown,Lasso,
0.8681641,0.6264648,0.5307617,0.8969727,-0.640625,0.1918945,3,3,2,0,1,1,0,22,2,0,0,0,-1,-2,-11,27,-27.3125,-27.3125,-27.3125,-4.875,-4.875,-4.875,6.674878,3.547829,6.84066,3.248338,3.470586,8.328443,-0.05427658,-0.4209472,1.21883,0.3291318,-0.4081915,1.234144,0.1192245,0.31482,1.458418,-0.01656864,-0.4351737,1.23325,0.3011438,-0.4116322,1.19146,0.1213327,-0.118073,1.452237,0.1329211,-0.4268125,1.422925,-0.04900376,0.04905702,1.419444,0.05319004,-0.419505,1.384566,-0.1005835,-0.1764889,1.392886,0.3311352,-0.1776925,1.416878,NA,NA,Unknown,Lasso,
0.8505859,0.6298828,0.4594727,0.9296875,-0.5947266,0.3071289,17,0,0,1,-1,-2,-2,1,-1,-1,-1,-1,-4,-5,3,-7,29.125,29.125,29.125,2.9375,2.9375,2.9375,6.836143,3.261667,6.677332,2.903349,3.22826,8.695281,-0.1025369,-0.461975,1.266199,0.3532379,-0.4470738,1.27951,0.1195142,0.3150842,1.456991,-0.06654467,-0.4664087,1.281182,0.3259885,-0.459691,1.242771,0.1211413,-0.1184674,1.451986,0.1302958,-0.4282001,1.422962,-0.05143184,0.04731188,1.419111,0.0508125,-0.4202831,1.385185,-0.1043817,-0.186907,1.398919,0.3343672,-0.1913659,1.425356,NA,NA,Unknown,Unknown,
0.9272461,0.5136719,0.2016602,1.040527,-0.3310547,0.1030273,15,-4,1,0,2,27,1,-21,-3,-3,-2,0,-3,-6,-20,-6,-75.875,-75.875,-75.875,108.0625,108.0625,108.0625,7.197033,3.026159,6.197817,2.378484,3.049842,9.465364,-0.137889,-0.4727674,1.312707,0.3680195,-0.4651787,1.312361,0.1198861,0.3153661,1.455057,-0.1218583,-0.487648,1.2456,0.340295,-0.5009962,1.318667,0.1204769,-0.1183202,1.449776,0.128665,-0.4281646,1.422811,-0.05223012,0.04725546,1.41894,0.04902053,-0.4197171,1.385299,-0.1120436,-0.1931997,1.403002,0.3367817,-0.2031273,1.430052,NA,NA,NotTracked,Lasso,
1.041504,0.3232422,0.06835938,1.02002,-0.2089844,-0.0004882813,-10,-5,-4,-3,0,19,-7,0,0,0,0,0,1,2,0,-3,-65.5625,-65.5625,-65.5625,57.375,57.375,57.375,7.47686,2.948167,5.770967,2.041446,2.999129,9.961887,-0.1635209,-0.478264,1.346704,0.3790618,-0.479293,1.337922,0.1207588,0.3158073,1.453316,-0.1224369,-0.4927023,1.302875,0.3338143,-0.4759155,1.305222,0.1203272,-0.118043,1.446701,0.1281627,-0.4280205,1.422516,-0.05224798,0.04755221,1.418519,0.04831648,-0.4191306,1.38489,-0.1179515,-0.1971296,1.406519,0.3371451,-0.2094535,1.431314,NA,NA,Lasso,NotTracked,
0.9887695,0.262207,-0.05419922,0.9614258,-0.2558594,0.03125,1,-2,-1,-1,0,-6,-1,5,-2,-2,-3,-2,-2,3,43,-4,7.875,7.875,7.875,12.1875,12.1875,12.1875,8.013128,2.883557,5.155189,1.867173,2.976731,0.1896144,-0.176009,-0.4770555,1.369288,0.381961,-0.4905666,1.357089,0.1210664,0.3158541,1.452429,-0.1415784,-0.4789006,1.352542,0.3367131,-0.4771691,1.329044,0.1204141,-0.117908,1.44522,0.128034,-0.4279765,1.422203,-0.05234817,0.04783092,1.418381,0.04809684,-0.4188543,1.384465,-0.1211556,-0.1978383,1.409744,0.3376155,-0.2156515,1.431373,NA,NA,Unknown,NotTracked,
1,0.1826172,-0.1464844,0.9589844,-0.3251953,0.0004882813,-3,0,1,-1,-3,10,11,-17,0,-1,-2,-1,1,5,25,0,-27.5625,-27.5625,-27.5625,24.625,24.625,24.625,8.324859,2.875755,4.80283,1.867423,2.964432,0.2246385,-0.1766628,-0.4806768,1.378446,0.386192,-0.4936694,1.367831,0.1216235,0.3156777,1.451577,-0.1396645,-0.4693459,1.374064,0.3394206,-0.485243,1.320466,0.1204748,-0.1179041,1.444508,0.127849,-0.4279391,1.421974,-0.05242116,0.04794069,1.418411,0.04790199,-0.4186304,1.384311,-0.123336,-0.1989505,1.413492,0.3375765,-0.2178658,1.43086,NA,NA,Lasso,NotTracked,
0.9941406,0.2314453,-0.07470703,0.953125,-0.2675781,-0.08300781,1,-1,0,-1,0,-1,0,-5,0,-1,-1,-1,-2,-1,3,7,13.6875,13.6875,13.6875,23.6875,23.6875,23.6875,8.420936,2.871573,4.703906,2.000931,2.952788,0.1581869,-0.1723868,-0.4838353,1.377861,0.385315,-0.4947129,1.368502,0.1218405,0.3157412,1.451118,-0.1338054,-0.471117,1.375632,0.3335423,-0.4707255,1.33435,0.120677,-0.1180552,1.444348,0.1276366,-0.4279695,1.421523,-0.05242492,0.04794389,1.41841,0.04765382,-0.4185135,1.384012,-0.1234444,-0.1997809,1.414955,0.3376575,-0.2194407,1.430043,NA,NA,Lasso,NotTracked,
0.9355469,0.2246094,-0.06591797,0.9501953,-0.284668,-0.0859375,-7,0,-1,-2,0,-2,3,-11,-3,0,-1,0,-2,-3,-7,-3,3.5625,3.5625,3.5625,-4.875,-4.875,-4.875,8.326246,2.867989,4.808842,2.090187,2.948103,0.07043694,-0.1646275,-0.486147,1.372996,0.3831598,-0.4959754,1.365817,0.1218479,0.3158261,1.450796,-0.1267595,-0.4857946,1.363483,0.3390509,-0.4928753,1.331889,0.120632,-0.1179162,1.443726,0.127312,-0.4278494,1.42117,-0.05248879,0.04797496,1.418514,0.04729347,-0.418233,1.383722,-0.1224912,-0.2006224,1.416434,0.3377649,-0.2201173,1.429604,NA,NA,Unknown,NotTracked,
0.9487305,0.1870117,-0.08154297,0.9599609,-0.3105469,-0.09716797,-1,-2,-1,-1,0,-4,-1,-3,-1,0,0,-2,-1,0,-2,-1,8.8125,8.8125,8.8125,-9.1875,-9.1875,-9.1875,8.183983,2.863666,4.968171,2.160302,2.951374,9.97977,-0.1575986,-0.4862885,1.36538,0.3796158,-0.4963541,1.358966,0.1218686,0.315782,1.450476,-0.1202052,-0.4816954,1.354558,0.3356419,-0.4924063,1.319875,0.1206018,-0.1178563,1.443116,0.1269309,-0.4278076,1.420659,-0.05271395,0.04801983,1.418785,0.04693673,-0.4180762,1.383397,-0.1213178,-0.2017565,1.416673,0.3377247,-0.2208256,1.428512,NA,NA,Lasso,NotTracked,
