ALX,ALY,ALZ,ARX,ARY,ARZ,EMG0L,EMG1L,EMG2L,EMG3L,EMG4L,EMG5L,EMG6L,EMG7L,EMG0R,EMG1R,EMG2R,EMG3R,EMG4R,EMG5R,EMG6R,EMG7R,GLX,GLY,GLZ,GRX,GRY,GRZ,ORL,OPL,OYL,ORR,OPR,OYR,LHNX,LHNY,LHNZ,RHNX,RHNY,RHNZ,HX,HY,HZ,LTX,LTY,LTZ,RTX,RTY,RTZ,SpineMidX,SpineMidY,SpineMidZ,SpineBaseX,SpineBaseY,SpineBaseZ,ShoulderLeftX,ShoulderLeftY,ShoulderLeftZ,ShoulderRightX,ShoulderRightY,ShoulderRightZ,ElbowLeftX,ElbowLeftY,ElbowLeftZ,ElbowRightX,ElbowRightY,ElbowRightZ,Myo_Pose_left,Myo_Pose_Right,Kinect_pose_left,Kinect_pose_right
0.9160156,0.3354492,0.08544922,0.9438477,-0.3022461,0.05175781,0,-1,0,-1,-1,-2,1,-1,0,-2,-2,-1,0,-1,0,-1,-3.0625,-3.0625,-3.0625,0,0,0,7.269647,3.065158,0.01602139,2.713778,3.003569,5.791635,-0.1117339,-0.4706498,1.350216,0.3267775,-0.4673392,1.30298,0.1101308,0.3176338,1.473168,-0.06354411,-0.4557891,1.337223,0.3673972,-0.4683766,1.29404,0.1066451,-0.1222562,1.449513,0.1097363,-0.4394432,1.416873,-0.06599109,0.04868013,1.449769,0.02847598,-0.4293303,1.382664,-0.1135165,-0.1980184,1.43203,0.3225099,-0.2101019,1.417415,NA,NA,NotTracked,NotTracked,
0.9116211,0.3339844,0.07324219,0.9438477,-0.3022461,0.05175781,-2,1,-3,1,0,-1,-1,-2,0,-2,-2,-1,0,-1,0,-1,-0.0625,-0.0625,-0.0625,0,0,0,7.267946,3.064045,0.01489951,2.713778,3.003569,5.791635,-0.111251,-0.4706292,1.349285,0.3261439,-0.4656458,1.302062,0.1101061,0.3176697,1.47321,-0.0637501,-0.4548578,1.338088,0.3686836,-0.4633295,1.300182,0.1066857,-0.1222643,1.449516,0.1097267,-0.439467,1.416949,-0.06561787,0.04871451,1.4494,0.02846577,-0.4293517,1.382744,-0.1135254,-0.1980386,1.432045,0.3223312,-0.2100512,1.41788,NA,NA,NotTracked,NotTracked,
0.9121094,0.3310547,0.07714844,0.9438477,-0.3022461,0.05175781,-1,-1,-3,-2,0,-3,-1,0,0,-2,-2,-1,0,-1,0,-1,-1.1875,-1.1875,-1.1875,0,0,0,7.258821,3.063155,0.02118845,2.713778,3.003569,5.791635,-0.1105574,-0.4705417,1.348699,0.325213,-0.4663942,1.303767,0.1100707,0.3176536,1.47324,-0.06546701,-0.4707627,1.335352,0.3684474,-0.4585572,1.304941,0.1065258,-0.1222956,1.449663,0.1097542,-0.439481,1.417043,-0.06526164,0.04863192,1.449208,0.02849788,-0.4293947,1.382852,-0.1135484,-0.1980479,1.432062,0.3220647,-0.209888,1.418138,NA,NA,NotTracked,NotTracked,
0.9116211,0.3374023,0.07519531,0.9438477,-0.3022461,0.05175781,1,0,1,-3,-2,-1,-2,-1,0,-2,-2,-1,0,-1,0,-1,-1.375,-1.375,-1.375,0,0,0,7.254958,3.063364,0.02294624,2.713778,3.003569,5.791635,-0.1099507,-0.4707997,1.347865,0.3245111,-0.4670339,1.301979,0.1097877,0.3176743,1.473472,-0.0640363,-0.458639,1.337035,0.3665693,-0.4607553,1.300867,0.106219,-0.1223299,1.449908,0.1098114,-0.4395379,1.41714,-0.06513642,0.04864141,1.449165,0.02853316,-0.4294628,1.38292,-0.1135964,-0.1980528,1.432016,0.321712,-0.2099363,1.418447,NA,NA,NotTracked,NotTracked,
0.9116211,0.340332,0.07470703,0.9438477,-0.3022461,0.05175781,-1,-1,0,-1,-1,-2,-1,-2,0,-2,-2,-1,0,-1,0,-1,-1.375,-1.375,-1.375,0,0,0,7.252313,3.063653,0.02296514,2.713778,3.003569,5.791635,-0.1098411,-0.4705529,1.348494,0.3247361,-0.4666607,1.303296,0.1095316,0.3176686,1.473674,-0.06432322,-0.4554241,1.339254,0.3698116,-0.4637275,1.308818,0.1058242,-0.1223571,1.450162,0.1097866,-0.4395667,1.417189,-0.06507524,0.04858043,1.44919,0.02850698,-0.4295097,1.382981,-0.1135442,-0.1980818,1.431973,0.3215892,-0.209721,1.418929,NA,NA,NotTracked,NotTracked,
0.9194336,0.3417969,0.0703125,0.9438477,-0.3022461,0.05175781,1,-6,-9,-1,-9,0,0,0,0,-2,-2,-1,0,-1,0,-1,-0.6875,-0.6875,-0.6875,0,0,0,7.251194,3.065034,0.02109227,2.713778,3.003569,5.791635,-0.1095318,-0.4710757,1.348284,0.3246266,-0.4668558,1.303991,0.1092837,0.3177585,1.473901,-0.06401036,-0.4585018,1.337151,0.3712668,-0.4508854,1.304857,0.1054341,-0.1223851,1.4504,0.1097331,-0.4396309,1.417272,-0.0650588,0.04848603,1.449206,0.02844869,-0.4296082,1.383055,-0.1135294,-0.1981351,1.432051,0.3215169,-0.2097499,1.419165,NA,NA,NotTracked,NotTracked,
1.071777,0.3598633,0.06738281,0.9438477,-0.3022461,0.05175781,-1,-7,-11,-5,-7,-4,3,0,0,-2,-2,-1,0,-1,0,-1,-1.25,-1.25,-1.25,0,0,0,7.195044,3.081002,0.07928112,2.713778,3.003569,5.791635,-0.1096787,-0.4705364,1.348343,0.322073,-0.4664901,1.301063,0.1087078,0.3178774,1.474366,-0.06208367,-0.450465,1.336509,0.3262806,-0.5035284,1.325509,0.1054009,-0.1223875,1.450519,0.1097505,-0.4396414,1.41736,-0.06509731,0.04836669,1.449242,0.02846055,-0.4296708,1.383131,-0.1134709,-0.1982095,1.432097,0.3213052,-0.2095269,1.419889,NA,NA,NotTracked,NotTracked,
1.074707,0.3388672,0.128418,0.9438477,-0.3022461,0.05175781,-4,-8,-17,-12,-6,-12,-23,-2,0,-2,-2,-1,0,-1,0,-1,39.5,39.5,39.5,0,0,0,7.011322,3.148222,0.3088111,2.713778,3.003569,5.791635,-0.1089506,-0.470274,1.34769,0.31139,-0.4589379,1.286439,0.1084542,0.3180169,1.474746,-0.06286053,-0.4546561,1.336132,0.3103109,-0.487083,1.3191,0.1055045,-0.1223647,1.450555,0.1097504,-0.4396255,1.417403,-0.0651034,0.04836575,1.44925,0.02846401,-0.4296526,1.383113,-0.1134804,-0.1982229,1.432106,0.3215931,-0.2075069,1.42259,NA,NA,NotTracked,NotTracked,
1.067871,0.6220703,0.2480469,0.9438477,-0.3022461,0.05175781,0,3,0,-4,-29,-5,-13,-2,0,-2,-2,-1,0,-1,0,-1,45.125,45.125,45.125,0,0,0,6.83094,3.322111,0.6110067,2.713778,3.003569,5.791635,-0.1102346,-0.4709896,1.34909,0.2804078,-0.4065192,1.266253,0.1081154,0.3181081,1.475171,-0.06297184,-0.4557852,1.336225,0.2667629,-0.4402814,1.28452,0.1052848,-0.1223003,1.450631,0.1089097,-0.4394788,1.417362,-0.06510326,0.04833259,1.449295,0.02747608,-0.4294472,1.383028,-0.113509,-0.1981794,1.43224,0.3226665,-0.1976517,1.43126,NA,NA,NotTracked,NotTracked,
0.8754883,0.6943359,0.4912109,0.9438477,-0.3022461,0.05175781,2,-10,-9,14,76,-9,-13,0,0,-2,-2,-1,0,-1,0,-1,40.625,40.625,40.625,0,0,0,6.684996,3.611821,0.8629904,2.713778,3.003569,5.791635,-0.1110391,-0.4711242,1.346746,0.2356715,-0.3453181,1.261093,0.1078823,0.318138,1.475478,-0.06367598,-0.4544092,1.337071,0.2185357,-0.40716,1.287657,0.1045339,-0.1220791,1.450397,0.1053413,-0.4384675,1.4166,-0.06511215,0.04832746,1.449287,0.02371936,-0.4281164,1.382114,-0.113556,-0.1981346,1.432282,0.3229229,-0.1829703,1.437354,NA,NA,NotTracked,Unknown,
0.4575195,0.8222656,0.5131836,0.9438477,-0.3022461,0.05175781,4,0,5,7,-4,1,-4,2,0,-2,-2,-1,0,-1,0,-1,28,28,28,0,0,0,6.623068,4.121765,1.062659,2.713778,3.003569,5.791635,-0.1119983,-0.4717791,1.346931,0.2167016,-0.2421317,1.236387,0.1077926,0.3181225,1.475777,-0.06366016,-0.45681,1.336501,0.1861413,-0.2967454,1.265778,0.1040844,-0.1217527,1.450255,0.1036754,-0.4375796,1.415967,-0.0650916,0.04834888,1.449281,0.02236179,-0.4274645,1.381368,-0.1137507,-0.1981809,1.432244,0.3275298,-0.1604052,1.43927,NA,NA,NotTracked,Unknown,
0.1352539,0.8901367,0.5,0.9438477,-0.3022461,0.05175781,-2,-5,-6,-6,-20,1,1,0,0,-2,-2,-1,0,-1,0,-1,31.5625,31.5625,31.5625,0,0,0,6.635571,4.589113,1.148909,2.713778,3.003569,5.791635,-0.1111856,-0.472288,1.345503,0.1918832,-0.1428096,1.229836,0.107656,0.3179979,1.476501,-0.06382501,-0.4532025,1.337895,0.1531798,-0.1163035,1.269618,0.1040528,-0.121743,1.450276,0.1033155,-0.4372883,1.416017,-0.0650571,0.04835996,1.449268,0.02210326,-0.427262,1.381329,-0.1137634,-0.1981961,1.43197,0.3453131,-0.1541632,1.411073,NA,NA,NotTracked,Unknown,
-0.3056641,0.9301758,0.4101563,0.9438477,-0.3022461,0.05175781,-9,-28,-9,-3,-8,-7,-39,-4,0,-2,-2,-1,0,-1,0,-1,55.5,55.5,55.5,0,0,0,6.703146,5.091339,1.212052,2.713778,3.003569,5.791635,-0.110907,-0.4720837,1.34394,0.1899392,-0.03822482,1.228087,0.1078724,0.3179167,1.477474,-0.06360041,-0.455569,1.337119,0.1534734,-0.06260162,1.291625,0.1039493,-0.1219068,1.450422,0.1031651,-0.4372823,1.416073,-0.06488148,0.04833257,1.449118,0.02189649,-0.4273651,1.3815,-0.1140375,-0.1982553,1.431509,0.3361177,-0.1400591,1.35718,NA,NA,NotTracked,Unknown,
-0.4594727,0.9672852,0.3291016,0.9438477,-0.3022461,0.05175781,1,6,-1,1,0,-2,-2,-2,0,-2,-2,-1,0,-1,0,-1,112.8125,112.8125,112.8125,0,0,0,6.950473,5.68499,1.343035,2.713778,3.003569,5.791635,-0.1089998,-0.4710932,1.342695,0.1935162,0.04811244,1.24665,0.1082458,0.3176838,1.478415,-0.06434776,-0.4570117,1.33537,0.1831963,0.01447944,1.311222,0.1036991,-0.1225589,1.450823,0.103063,-0.4384637,1.416201,-0.06500905,0.04831928,1.449041,0.02130841,-0.4297206,1.383223,-0.1140238,-0.1980393,1.430972,0.3465729,-0.1248913,1.335537,NA,NA,NotTracked,Unknown,
-0.4165039,0.8056641,0.3398438,0.9438477,-0.3022461,0.05175781,6,3,4,2,3,2,11,1,0,-2,-2,-1,0,-1,0,-1,105.8125,105.8125,105.8125,0,0,0,7.194401,6.002799,1.473111,2.713778,3.003569,5.791635,-0.1086725,-0.469164,1.339007,0.1967281,0.1135663,1.255769,0.1079657,0.3178307,1.478674,-0.06826501,-0.4638066,1.325746,0.2578121,0.1244792,1.295167,0.1018521,-0.1232843,1.450544,0.1020985,-0.4402749,1.416341,-0.0653281,0.04846406,1.449007,0.01955953,-0.4319703,1.385432,-0.1139376,-0.1974417,1.429746,0.3844319,-0.1128515,1.342872,NA,NA,NotTracked,Unknown,
-0.4794922,0.6523438,0.1938477,0.9438477,-0.3022461,0.05175781,3,-1,1,-2,-5,-2,-4,-2,0,-2,-2,-1,0,-1,0,-1,74.75,74.75,74.75,0,0,0,7.438861,6.213157,1.630419,2.713778,3.003569,5.791635,-0.1090932,-0.4685296,1.334867,0.2018954,0.153999,1.267166,0.1072324,0.3194702,1.478462,-0.06923204,-0.4700955,1.322583,0.2830978,0.1464423,1.31925,0.1007307,-0.1229201,1.450856,0.1005559,-0.4398377,1.416743,-0.06497867,0.04901063,1.448852,0.01707646,-0.4305798,1.386721,-0.1141628,-0.194262,1.428731,0.3998974,-0.0829778,1.311917,NA,NA,NotTracked,Unknown,
-0.5996094,0.5078125,0.01367188,0.9438477,-0.3022461,0.05175781,1,6,2,-1,-1,0,-5,-4,0,-2,-2,-1,0,-1,0,-1,47.1875,47.1875,47.1875,0,0,0,7.687324,6.371167,1.810148,2.713778,3.003569,5.791635,-0.1099556,-0.4685572,1.332186,0.1915251,0.1837958,1.279134,0.1069722,0.3209096,1.478011,-0.07002068,-0.4615475,1.325033,0.1835124,0.158732,1.3271,0.09999394,-0.1220856,1.451283,0.09948795,-0.4380168,1.417076,-0.06603897,0.04904495,1.449918,0.01577466,-0.4280612,1.386803,-0.1139443,-0.190383,1.428118,0.3955666,-0.02021231,1.25942,NA,NA,NotTracked,Unknown,
-0.6977539,0.4726563,-0.02685547,0.9438477,-0.3022461,0.05175781,-2,5,1,-1,-2,-2,-3,3,0,-2,-2,-1,0,-1,0,-1,25.5625,25.5625,25.5625,0,0,0,7.804713,6.444376,1.895709,2.713778,3.003569,5.791635,-0.1117019,-0.4689907,1.332113,0.1773057,0.2020012,1.285477,0.1064922,0.3215486,1.477825,-0.06862546,-0.4676194,1.327953,0.1955929,0.1631185,1.3335,0.09980076,-0.1213146,1.451598,0.09858228,-0.4361758,1.417426,-0.06634569,0.0490401,1.45067,0.01482918,-0.4260474,1.387013,-0.1142146,-0.187725,1.427992,0.3950868,-0.005796651,1.253987,NA,NA,NotTracked,Unknown,
-0.7636719,0.5151367,-0.1108398,0.9438477,-0.3022461,0.05175781,5,-8,-7,-6,-2,1,2,-7,0,-2,-2,-1,0,-1,0,-1,0.75,0.75,0.75,0,0,0,7.880153,6.488872,1.963195,2.713778,3.003569,5.791635,-0.1115427,-0.4698828,1.334375,0.1345482,0.2375998,1.328058,0.1061918,0.322074,1.477227,-0.07104106,-0.4646444,1.324275,0.1596085,0.2794313,1.368286,0.0996457,-0.1207967,1.451736,0.09819247,-0.4347461,1.417333,-0.0677782,0.04874761,1.45181,0.01448436,-0.4246908,1.386993,-0.114096,-0.1861265,1.427981,0.3937127,0.006116025,1.249563,NA,NA,NotTracked,Unknown,
-0.7670898,0.5424805,-0.1352539,0.9438477,-0.3022461,0.05175781,4,-5,-2,-2,-2,-5,3,-5,0,-2,-2,-1,0,-1,0,-1,-0.75,-0.75,-0.75,0,0,0,7.903488,6.50531,1.99192,2.713778,3.003569,5.791635,-0.1111988,-0.4704807,1.339962,0.1520494,0.232672,1.301364,0.1058066,0.322284,1.477087,-0.07101407,-0.4671829,1.326291,0.1432843,0.205057,1.318125,0.09948691,-0.1202933,1.451892,0.09785151,-0.4335658,1.417281,-0.06864821,0.04850382,1.45261,0.0142109,-0.4235541,1.387042,-0.1136717,-0.1846681,1.428523,0.3918321,0.01388846,1.24633,NA,NA,NotTracked,Unknown,
-0.7832031,0.5419922,-0.1806641,0.9438477,-0.3022461,0.05175781,-2,-2,-2,-9,-8,3,-1,2,0,-2,-2,-1,0,-1,0,-1,1.3125,1.3125,1.3125,0,0,0,7.931714,6.525124,2.023638,2.713778,3.003569,5.791635,-0.1091096,-0.4704132,1.34335,0.1490742,0.2351957,1.296631,0.1053355,0.3223305,1.476789,-0.06680433,-0.4645218,1.332966,0.1745251,0.2570204,1.2905,0.09940265,-0.1197692,1.451862,0.09772388,-0.4324926,1.417003,-0.06919737,0.04829082,1.453081,0.01414293,-0.4227346,1.386866,-0.1129522,-0.1842894,1.429189,0.3906159,0.01755817,1.244715,NA,NA,NotTracked,Unknown,
-0.7539063,0.53125,-0.1538086,0.9438477,-0.3022461,0.05175781,8,-3,-2,-3,-1,-2,-7,-4,0,-2,-2,-1,0,-1,0,-1,9.0625,9.0625,9.0625,0,0,0,7.915576,6.52511,1.986012,2.713778,3.003569,5.791635,-0.1081273,-0.4717721,1.346438,0.1387174,0.2331169,1.316012,0.1050219,0.3225403,1.47683,-0.06177226,-0.4554369,1.33519,0.1052787,0.2123845,1.352243,0.09912126,-0.1194198,1.451846,0.09766228,-0.4318848,1.416747,-0.06957486,0.04817448,1.453403,0.01410133,-0.4221951,1.386776,-0.1126077,-0.1840988,1.429575,0.3903305,0.01921584,1.244186,NA,NA,NotTracked,Unknown,
-0.8666992,0.5458984,-0.1103516,0.9438477,-0.3022461,0.05175781,-24,-7,1,2,-1,0,2,-7,0,-2,-2,-1,0,-1,0,-1,-3.5,-3.5,-3.5,0,0,0,7.8864,6.529154,1.954782,2.713778,3.003569,5.791635,-0.1071584,-0.4721257,1.34787,0.1407719,0.2333721,1.32332,0.1048896,0.3226966,1.476881,-0.06175105,-0.4584898,1.33354,0.10983,0.2121663,1.3552,0.09890017,-0.1189775,1.451789,0.09774257,-0.4312167,1.416505,-0.06977809,0.04807239,1.453625,0.01420191,-0.4216014,1.386646,-0.1116496,-0.1840792,1.430244,0.3901032,0.02040813,1.243703,NA,NA,NotTracked,Unknown,
-0.8886719,0.4873047,-0.1694336,0.9438477,-0.3022461,0.05175781,5,-2,-2,-2,-2,-2,7,15,0,-2,-2,-1,0,-1,0,-1,-5.6875,-5.6875,-5.6875,0,0,0,7.905589,6.566446,1.987477,2.713778,3.003569,5.791635,-0.1074927,-0.4710893,1.346447,0.1417355,0.2388538,1.328319,0.1047494,0.3226726,1.476951,-0.06102917,-0.4557924,1.333418,0.1171857,0.2092362,1.361875,0.09879296,-0.1186588,1.451692,0.09784216,-0.4306186,1.416189,-0.06992535,0.0480024,1.453698,0.01428055,-0.4209533,1.386371,-0.1114391,-0.1840739,1.430305,0.3901149,0.02177936,1.243256,NA,NA,NotTracked,Unknown,
-0.8041992,0.4711914,-0.1875,0.9438477,-0.3022461,0.05175781,7,0,-2,-2,-7,-1,7,6,0,-2,-2,-1,0,-1,0,-1,7.8125,7.8125,7.8125,0,0,0,7.9005,6.593149,1.962592,2.713778,3.003569,5.791635,-0.1075631,-0.4703476,1.343161,0.1424201,0.2412837,1.325253,0.1047623,0.3226814,1.476856,-0.06238542,-0.4565516,1.334215,0.1107693,0.2097036,1.36085,0.09905978,-0.118393,1.451573,0.09804285,-0.4300556,1.415909,-0.06995893,0.04793087,1.453699,0.0144968,-0.4204274,1.386109,-0.1110916,-0.1835535,1.430251,0.3902152,0.02231975,1.242999,NA,NA,NotTracked,Unknown,
-0.7587891,0.5620117,-0.1044922,0.9438477,-0.3022461,0.05175781,4,-35,-10,-4,-3,-2,-3,2,0,-2,-2,-1,0,-1,0,-1,2.375,2.375,2.375,0,0,0,7.849817,6.570861,1.890218,2.713778,3.003569,5.791635,-0.106871,-0.4695114,1.338888,0.1418426,0.2393735,1.324107,0.1049461,0.3226346,1.476822,-0.06411341,-0.465205,1.32913,0.1101972,0.2107989,1.358541,0.09904978,-0.1181528,1.451453,0.09827939,-0.4296182,1.415565,-0.06997459,0.0478995,1.453701,0.01476407,-0.419946,1.385606,-0.1108448,-0.1834498,1.429981,0.3903629,0.02233112,1.242838,NA,NA,NotTracked,Unknown,
-0.8515625,0.5493164,-0.06298828,0.9438477,-0.3022461,0.05175781,3,0,1,2,0,0,-6,8,0,-2,-2,-1,0,-1,0,-1,-2.5625,-2.5625,-2.5625,0,0,0,7.803836,6.585943,1.839919,2.713778,3.003569,5.791635,-0.1052281,-0.469138,1.333542,0.190734,0.2141059,1.295929,0.1051421,0.3225827,1.476671,-0.06830139,-0.461587,1.319979,0.2129524,0.1726353,1.352833,0.09913193,-0.1178554,1.451239,0.09854262,-0.4291114,1.415137,-0.06997188,0.04788918,1.45364,0.01504163,-0.4193907,1.385131,-0.1101806,-0.1827671,1.428808,0.3912435,0.02080862,1.243512,NA,NA,NotTracked,Unknown,
-0.8544922,0.4858398,-0.1171875,0.9438477,-0.3022461,0.05175781,4,10,3,2,2,0,-1,-8,0,-2,-2,-1,0,-1,0,-1,-6.9375,-6.9375,-6.9375,0,0,0,7.777982,6.606743,1.817846,2.713778,3.003569,5.791635,-0.1043606,-0.4685039,1.331485,0.1944282,0.2166773,1.296976,0.1059304,0.3221023,1.475924,-0.06875371,-0.461143,1.316326,0.2308799,0.1625987,1.348053,0.09935278,-0.1175096,1.450938,0.0989745,-0.4285898,1.414665,-0.06992513,0.0478701,1.453553,0.01547742,-0.4188229,1.384575,-0.1090586,-0.1822765,1.427657,0.3928669,0.01789615,1.24512,NA,NA,NotTracked,Unknown,
-0.6669922,0.4614258,-0.07958984,0.9438477,-0.3022461,0.05175781,3,2,-1,-1,-1,-4,-5,1,0,-2,-2,-1,0,-1,0,-1,-5.8125,-5.8125,-5.8125,0,0,0,7.701048,6.596651,1.73289,2.713778,3.003569,5.791635,-0.1031625,-0.468475,1.330927,0.2006938,0.2080165,1.277572,0.1066186,0.321804,1.475503,-0.06419137,-0.461699,1.320455,0.2207839,0.1605136,1.344119,0.0996787,-0.1173475,1.450656,0.09946728,-0.4284101,1.414207,-0.06989815,0.04782454,1.453473,0.01593367,-0.4186342,1.384051,-0.1081015,-0.1820048,1.426675,0.3958983,0.006467187,1.25019,NA,NA,NotTracked,Unknown,
-0.4882813,0.4785156,0.1206055,0.9438477,-0.3022461,0.05175781,0,0,0,0,-4,-16,-10,-3,0,-2,-2,-1,0,-1,0,-1,-41.625,-41.625,-41.625,0,0,0,7.406656,6.382831,1.457124,2.713778,3.003569,5.791635,-0.1018837,-0.4689435,1.330426,0.1982501,0.1832442,1.250315,0.1067013,0.3218792,1.475447,-0.06370875,-0.4609503,1.320127,0.1803862,0.1582389,1.281333,0.1000046,-0.1172591,1.450277,0.09995548,-0.4287065,1.413664,-0.06528442,0.04769519,1.449408,0.01633004,-0.4188718,1.383539,-0.1074197,-0.1820555,1.426314,0.3982798,-0.0299131,1.266258,NA,NA,NotTracked,Unknown,
-0.5063477,0.6230469,0.2070313,0.9438477,-0.3022461,0.05175781,-2,-2,-2,-3,-1,3,4,-1,0,-2,-2,-1,0,-1,0,-1,-57,-57,-57,0,0,0,7.220008,6.124817,1.319863,2.713778,3.003569,5.791635,-0.0999023,-0.4693302,1.332464,0.1988853,0.1281606,1.22149,0.1068591,0.321811,1.475651,-0.06186699,-0.4621519,1.32163,0.1627984,0.1407796,1.258,0.1015293,-0.1185136,1.448481,0.1007225,-0.4333662,1.412143,-0.06341746,0.04811894,1.447951,0.01706663,-0.4235427,1.38361,-0.1069792,-0.1851664,1.425384,0.397089,-0.08383471,1.295989,NA,NA,NotTracked,Unknown,
-0.5268555,0.8081055,0.3334961,0.9438477,-0.3022461,0.05175781,2,1,-1,-1,-1,-1,-1,2,0,-2,-2,-1,0,-1,0,-1,-85.1875,-85.1875,-85.1875,0,0,0,6.954569,5.633899,1.178891,2.713778,3.003569,5.791635,-0.09951162,-0.470087,1.335124,0.2171854,0.02665241,1.199625,0.1088135,0.3202777,1.476512,-0.06327628,-0.4607346,1.321216,0.1738065,0.01985655,1.257625,0.1033017,-0.1213227,1.447124,0.1040546,-0.4401184,1.410172,-0.06195778,0.04773825,1.446282,0.02109711,-0.431192,1.38252,-0.1063415,-0.1910268,1.424587,0.3767738,-0.1028709,1.306576,NA,NA,NotTracked,Unknown,
-0.3598633,0.8876953,0.4160156,0.9438477,-0.3022461,0.05175781,6,4,0,-3,-3,0,0,1,0,-2,-2,-1,0,-1,0,-1,-102.9375,-102.9375,-102.9375,0,0,0,6.756961,5.20492,1.063345,2.713778,3.003569,5.791635,-0.09968311,-0.4705516,1.337576,0.2234849,-0.06525267,1.18283,0.1097846,0.3199634,1.477064,-0.06041579,-0.4643528,1.32359,0.1736527,-0.0375169,1.221652,0.1047416,-0.1214189,1.446891,0.1050749,-0.4396146,1.410175,-0.06064558,0.04773784,1.445034,0.02285573,-0.430581,1.381657,-0.1061089,-0.1923192,1.424345,0.3618397,-0.1159365,1.325569,NA,NA,NotTracked,Unknown,
-0.06152344,0.9824219,0.5170898,0.9438477,-0.3022461,0.05175781,-8,3,1,2,3,-1,-2,-2,0,-2,-2,-1,0,-1,0,-1,-90,-90,-90,0,0,0,6.613062,4.778103,0.9411524,2.713778,3.003569,5.791635,-0.1011541,-0.4703522,1.33923,0.2436652,-0.1629754,1.160038,0.1100863,0.3198638,1.477033,-0.05410115,-0.4539651,1.329333,0.1907706,-0.1730856,1.1929,0.1060785,-0.1211753,1.446126,0.1057722,-0.4388394,1.409687,-0.05989506,0.04806024,1.444123,0.02411921,-0.4293955,1.379841,-0.1058789,-0.1932651,1.424287,0.3614899,-0.1382599,1.391021,NA,NA,NotTracked,Unknown,
0.4311523,0.7802734,0.5522461,0.9438477,-0.3022461,0.05175781,-11,0,0,1,0,-2,1,-5,0,-2,-2,-1,0,-1,0,-1,-36.125,-36.125,-36.125,0,0,0,6.49111,4.244386,0.8066991,2.713778,3.003569,5.791635,-0.1030667,-0.4710315,1.341032,0.2697318,-0.25462,1.165856,0.111211,0.3197571,1.476874,-0.06017992,-0.4589797,1.32712,0.2227555,-0.3118054,1.19525,0.106012,-0.1211277,1.446117,0.1063448,-0.43853,1.409484,-0.05920398,0.04829044,1.443514,0.02502248,-0.4288286,1.378289,-0.1060408,-0.1936021,1.424131,0.3752508,-0.1376221,1.418611,NA,NA,NotTracked,Unknown,
0.7631836,0.765625,0.4970703,0.9438477,-0.3022461,0.05175781,0,0,-1,0,-3,2,0,-4,0,-2,-2,-1,0,-1,0,-1,-6.25,-6.25,-6.25,0,0,0,6.500988,3.882253,0.7565085,2.713778,3.003569,5.791635,-0.1053133,-0.4703425,1.339539,0.2841872,-0.3473521,1.186643,0.1128042,0.3192395,1.47623,-0.05836261,-0.453067,1.336143,0.2543154,-0.4092785,1.214429,0.106968,-0.1208114,1.445686,0.1077355,-0.4379711,1.409319,-0.05839149,0.04878394,1.442434,0.02656852,-0.4278978,1.376996,-0.1064151,-0.1945453,1.423635,0.3278723,-0.1693808,1.41881,NA,NA,NotTracked,Lasso,
0.855957,0.4951172,0.3061523,0.9438477,-0.3022461,0.05175781,16,14,3,1,-2,1,-2,5,0,-2,-2,-1,0,-1,0,-1,66.3125,66.3125,66.3125,0,0,0,6.612707,3.461271,0.7192066,2.713778,3.003569,5.791635,-0.1067426,-0.4697165,1.337529,0.2951193,-0.4059109,1.221688,0.1141946,0.3187003,1.475119,-0.0609887,-0.4542136,1.341313,0.327002,-0.4189823,1.214,0.1084858,-0.1210941,1.445181,0.1107165,-0.4383281,1.409113,-0.05767957,0.04908063,1.441336,0.02936375,-0.4279971,1.375524,-0.1075668,-0.1958707,1.42224,0.3275557,-0.1790995,1.415651,NA,NA,NotTracked,Lasso,
1.041016,0.4194336,0.2695313,0.9438477,-0.3022461,0.05175781,4,4,1,-1,-3,-11,-6,0,0,-2,-2,-1,0,-1,0,-1,62.6875,62.6875,62.6875,0,0,0,6.791188,3.17761,0.636773,2.713778,3.003569,5.791635,-0.1062656,-0.468791,1.332832,0.3081604,-0.4481196,1.266735,0.1151723,0.3184728,1.474145,-0.06043786,-0.4554688,1.337519,0.3476345,-0.4434218,1.2675,0.110422,-0.1213167,1.444784,0.1134598,-0.438865,1.409276,-0.05734954,0.04940978,1.440353,0.03199713,-0.4283997,1.374965,-0.1075603,-0.1956218,1.421088,0.3285205,-0.1930656,1.412356,NA,NA,NotTracked,Unknown,
1.163574,0.4921875,0.07763672,0.9438477,-0.3022461,0.05175781,-2,4,1,-1,-3,-1,3,-1,0,-2,-2,-1,0,-1,0,-1,24.3125,24.3125,24.3125,0,0,0,7.111789,2.974414,0.3734869,2.713778,3.003569,5.791635,-0.1033866,-0.4677347,1.328488,0.3177489,-0.4690612,1.304335,0.116147,0.3181934,1.473191,-0.06643484,-0.4578926,1.316639,0.3474659,-0.46012,1.242,0.1125003,-0.1216524,1.444273,0.1160278,-0.4395272,1.409111,-0.05688972,0.04946976,1.439543,0.03445808,-0.4291195,1.374401,-0.1072112,-0.1952809,1.419961,0.3289889,-0.2013621,1.411505,NA,NA,NotTracked,NotTracked,
1.076172,0.402832,-0.05810547,0.9438477,-0.3022461,0.05175781,6,2,-1,-3,-1,-9,-4,-2,0,-2,-2,-1,0,-1,0,-1,-44.6875,-44.6875,-44.6875,0,0,0,7.387346,2.882531,0.04654341,2.713778,3.003569,5.791635,-0.09914751,-0.4663737,1.326326,0.3224527,-0.4768291,1.324248,0.1172465,0.3181705,1.472224,-0.05972754,-0.4620293,1.313754,0.362854,-0.4708614,1.311571,0.1138618,-0.1218766,1.443771,0.1177761,-0.4400095,1.409046,-0.05659203,0.04971838,1.439071,0.03618502,-0.4296445,1.374156,-0.1070197,-0.195299,1.419537,0.3297122,-0.2120743,1.413593,NA,NA,NotTracked,NotTracked,
0.9638672,0.3291016,0.1035156,0.9438477,-0.3022461,0.05175781,12,-5,-3,-2,-2,0,-1,-8,0,-2,-2,-1,0,-1,0,-1,-10.25,-10.25,-10.25,0,0,0,7.378466,2.866457,9.975164,2.713778,3.003569,5.791635,-0.09773681,-0.4664303,1.327427,0.3226818,-0.4790228,1.329908,0.1183932,0.318188,1.471069,-0.06078723,-0.4569514,1.316045,0.3659748,-0.4690057,1.321222,0.1150723,-0.1220373,1.443286,0.1184029,-0.4401673,1.409091,-0.05597397,0.0500713,1.438383,0.03679198,-0.4297948,1.374197,-0.106796,-0.1952146,1.419481,0.3310847,-0.2155455,1.416158,NA,NA,NotTracked,NotTracked,
0.9057617,0.3457031,0.1425781,0.9438477,-0.3022461,0.05175781,0,1,-1,-1,0,-1,-2,1,0,-2,-2,-1,0,-1,0,-1,-12.5,-12.5,-12.5,0,0,0,7.280174,2.897672,0.05824892,2.713778,3.003569,5.791635,-0.09858674,-0.4668981,1.332613,0.3237173,-0.477765,1.327041,0.1196209,0.3180868,1.469672,-0.053952,-0.4569312,1.323411,0.3618778,-0.4659164,1.293877,0.1159467,-0.122121,1.442582,0.1187014,-0.4402699,1.408992,-0.05514184,0.05033772,1.437292,0.0370614,-0.4298641,1.374127,-0.1062824,-0.1951756,1.419429,0.3325476,-0.217127,1.418504,NA,NA,NotTracked,NotTracked,
0.8876953,0.3276367,0.1333008,0.9438477,-0.3022461,0.05175781,-2,1,1,1,-2,-3,-6,6,0,-2,-2,-1,0,-1,0,-1,-29.5,-29.5,-29.5,0,0,0,7.212535,2.93852,0.08456849,2.713778,3.003569,5.791635,-0.1006258,-0.4668366,1.336331,0.3255321,-0.4779905,1.31954,0.1204161,0.3180687,1.468385,-0.05316089,-0.4523073,1.327265,0.3549334,-0.4911823,1.2745,0.1163676,-0.1219187,1.44213,0.1188079,-0.4402347,1.40893,-0.05414241,0.05085306,1.43603,0.03716028,-0.4298215,1.374089,-0.1057109,-0.1951413,1.418984,0.3329274,-0.217124,1.418862,NA,NA,NotTracked,NotTracked,
0.9506836,0.2944336,0.06738281,0.9438477,-0.3022461,0.05175781,0,2,0,0,0,0,-2,1,0,-2,-2,-1,0,-1,0,-1,-35.9375,-35.9375,-35.9375,0,0,0,7.15761,2.990006,0.05843865,2.713778,3.003569,5.791635,-0.1026565,-0.4677302,1.339535,0.3303788,-0.479142,1.308293,0.1209291,0.3181298,1.467681,-0.05595785,-0.4520836,1.333945,0.362195,-0.474409,1.274202,0.1166434,-0.1218831,1.441766,0.1189457,-0.4402413,1.408894,-0.05378493,0.05090332,1.435328,0.03728082,-0.4298089,1.374087,-0.1056355,-0.1957028,1.418677,0.333489,-0.2177983,1.418016,NA,NA,NotTracked,NotTracked,
0.9536133,0.2578125,0.06640625,0.9438477,-0.3022461,0.05175781,-3,-1,-1,0,-2,0,2,-3,0,-2,-2,-1,0,-1,0,-1,-19.3125,-19.3125,-19.3125,0,0,0,7.103435,3.023225,0.06756724,2.713778,3.003569,5.791635,-0.1047664,-0.4675431,1.340564,0.3344397,-0.4770662,1.295277,0.1212886,0.3181272,1.466946,-0.05688125,-0.4525231,1.332946,0.353864,-0.4671644,1.259294,0.116969,-0.1219494,1.441478,0.1190424,-0.4403062,1.408854,-0.05350734,0.05105202,1.434939,0.03737063,-0.4298471,1.374077,-0.1056415,-0.195717,1.418657,0.333908,-0.2186124,1.415519,NA,NA,NotTracked,NotTracked,
