ALX,ALY,ALZ,ARX,ARY,ARZ,EMG0L,EMG1L,EMG2L,EMG3L,EMG4L,EMG5L,EMG6L,EMG7L,EMG0R,EMG1R,EMG2R,EMG3R,EMG4R,EMG5R,EMG6R,EMG7R,GLX,GLY,GLZ,GRX,GRY,GRZ,ORL,OPL,OYL,ORR,OPR,OYR,LHNX,LHNY,LHNZ,RHNX,RHNY,RHNZ,HX,HY,HZ,LTX,LTY,LTZ,RTX,RTY,RTZ,SpineMidX,SpineMidY,SpineMidZ,SpineBaseX,SpineBaseY,SpineBaseZ,ShoulderLeftX,ShoulderLeftY,ShoulderLeftZ,ShoulderRightX,ShoulderRightY,ShoulderRightZ,ElbowLeftX,ElbowLeftY,ElbowLeftZ,ElbowRightX,ElbowRightY,ElbowRightZ,Myo_Pose_left,Myo_Pose_Right,Kinect_pose_left,Kinect_pose_right
0.9160156,-0.4238281,-0.05859375,-0.2280273,0.9360352,0.05078125,-1,-1,0,-2,-2,-1,2,-1,0,3,1,7,-3,-4,-1,-6,-3.6875,-3.6875,-3.6875,40.875,40.875,40.875,2.271979,3.215003,4.728359,7.412205,5.54839,7.405486,-0.2075524,-0.414653,1.513725,-0.001440101,0.1294896,1.349396,0.02025183,0.3988362,1.603179,-0.1713102,-0.4222166,1.490417,0.007915098,0.156023,1.31675,0.02637127,-0.06441737,1.63193,0.02848494,-0.3889306,1.61974,-0.1442103,0.1093173,1.613155,-0.05396434,-0.3822091,1.584065,-0.2034143,-0.1145163,1.633103,0.2329363,0.0004071188,1.433402,NA,NA,Unknown,Closed,
0.9082031,-0.4243164,-0.06152344,-0.2807617,0.9677734,0.1298828,-1,-1,0,-2,1,1,0,-2,0,21,5,-6,-7,0,0,-3,-2.375,-2.375,-2.375,59.6875,59.6875,59.6875,2.28831,3.228412,4.707196,7.427318,5.576895,7.282547,-0.2082399,-0.4137147,1.509028,0.0201435,0.1336265,1.346133,0.01919606,0.3986311,1.603596,-0.174462,-0.413144,1.483714,0.04045837,0.1532618,1.314875,0.02595623,-0.06453327,1.632071,0.02824862,-0.3892958,1.619418,-0.1447374,0.1114375,1.613693,-0.05428399,-0.3824604,1.583836,-0.2044072,-0.1148914,1.631637,0.23741,0.002106473,1.433062,NA,NA,Unknown,Unknown,
0.8999023,-0.4140625,-0.06201172,-0.3276367,0.9150391,0.1591797,-1,-2,-1,0,-1,-2,0,-1,-2,-2,3,14,17,0,0,2,-1.6875,-1.6875,-1.6875,55.6875,55.6875,55.6875,2.296736,3.23475,4.696743,7.440726,5.610614,7.143322,-0.2090778,-0.411579,1.504189,0.05609825,0.1335625,1.345947,0.01810707,0.3987263,1.603728,-0.1741031,-0.4118357,1.4795,0.06095744,0.1596556,1.310063,0.02472304,-0.06453755,1.632242,0.02789026,-0.3894103,1.6192,-0.15226,0.1213204,1.618292,-0.05470394,-0.3824734,1.583744,-0.206029,-0.1163037,1.629337,0.2594308,0.001796938,1.439845,NA,NA,Unknown,Unknown,
0.8886719,-0.4077148,-0.0546875,-0.4267578,0.862793,0.1928711,-3,-2,-1,-1,-2,-2,-2,0,1,-21,-9,-1,18,-3,-1,6,-1.4375,-1.4375,-1.4375,62.25,62.25,62.25,2.311277,3.245969,4.678479,7.438487,5.644824,6.982969,-0.2089343,-0.4106851,1.502074,0.08324235,0.1370788,1.345313,0.01675192,0.3988788,1.604266,-0.1729973,-0.4142564,1.478188,0.08692382,0.1680609,1.321556,0.02372563,-0.06452814,1.632436,0.02759752,-0.389535,1.619012,-0.1534663,0.1226003,1.618764,-0.05501445,-0.3824913,1.583665,-0.2075535,-0.1178412,1.627743,0.2789719,0.0001546056,1.448797,NA,NA,Unknown,Closed,
0.8925781,-0.4121094,-0.05078125,-0.4580078,0.8891602,0.2841797,-1,0,-1,0,-2,-1,0,-1,2,13,5,6,5,5,-1,7,-1.125,-1.125,-1.125,63.9375,63.9375,63.9375,2.316678,3.25059,4.671782,7.436335,5.681729,6.807125,-0.2094898,-0.4089374,1.498485,0.1144125,0.1382066,1.34407,0.0158426,0.3991422,1.604428,-0.1749097,-0.4111308,1.473379,0.1231302,0.1672102,1.317267,0.02358529,-0.06493907,1.630886,0.02694224,-0.3896652,1.618688,-0.1539132,0.1231358,1.61866,-0.05556081,-0.3824418,1.583494,-0.2090751,-0.1187799,1.625874,0.3042656,-0.003738501,1.464951,NA,NA,NotTracked,Closed,
0.8896484,-0.4135742,-0.05224609,-0.5151367,0.7636719,0.3198242,0,0,-2,-1,-2,-1,-1,0,12,10,7,9,-6,-3,1,7,2.9375,2.9375,2.9375,57.875,57.875,57.875,2.323055,3.258555,4.66776,7.418583,5.717875,6.625196,-0.2105872,-0.4097334,1.497138,0.1448263,0.1414351,1.345195,0.0153894,0.3992918,1.604481,-0.1729958,-0.4168102,1.479049,0.1545827,0.1722328,1.320357,0.02275197,-0.06478043,1.631174,0.02610187,-0.3897949,1.618165,-0.1541333,0.1239278,1.618561,-0.05649565,-0.3823099,1.582819,-0.2109322,-0.1194934,1.624202,0.3245037,-0.00815865,1.47326,NA,NA,NotTracked,Closed,
0.8989258,-0.4111328,-0.04980469,-0.5507813,0.7158203,0.3144531,-1,-1,-1,-1,-2,-1,0,0,-4,7,5,3,-4,2,-1,-12,4.9375,4.9375,4.9375,63.3125,63.3125,63.3125,2.319344,3.2582,4.677794,7.410653,5.73668,6.532933,-0.2124644,-0.4092638,1.496107,0.1769912,0.1452764,1.349291,0.01514214,0.3994244,1.604517,-0.1774864,-0.4105358,1.470759,0.1868195,0.1777414,1.323857,0.0220165,-0.06451239,1.631501,0.02570514,-0.3896781,1.617877,-0.154388,0.1245746,1.618365,-0.05705503,-0.3818662,1.581828,-0.212053,-0.1197255,1.622437,0.3809269,-0.02938144,1.542525,NA,NA,NotTracked,Closed,
0.8964844,-0.4052734,-0.05517578,-0.6269531,0.7446289,0.3359375,-2,0,0,-1,-2,-2,-1,0,6,2,-3,-1,5,1,-1,2,5.375,5.375,5.375,69.4375,69.4375,69.4375,2.315444,3.25657,4.685269,7.399419,5.769561,6.352691,-0.2130205,-0.409365,1.495693,0.204349,0.1471929,1.35329,0.014964,0.3995823,1.604481,-0.1727483,-0.426714,1.472316,0.2251486,0.1733131,1.335133,0.02133845,-0.06403298,1.63168,0.02518242,-0.38912,1.61759,-0.1547613,0.1248755,1.61822,-0.05758082,-0.3810104,1.580756,-0.2128895,-0.1201792,1.621471,0.3821668,-0.02951989,1.545357,NA,NA,NotTracked,Closed,
0.9213867,-0.4155273,-0.04882813,-0.6987305,0.7416992,0.3139648,-2,-2,-1,0,-1,-1,-1,-1,3,-2,-2,9,-10,-1,2,10,4.8125,4.8125,4.8125,63.0625,63.0625,63.0625,2.308164,3.251838,4.699433,7.394755,5.793856,6.194809,-0.214479,-0.4089528,1.495395,0.2289073,0.1477575,1.358395,0.01470079,0.3998416,1.604439,-0.1790411,-0.4112785,1.47249,0.252499,0.1719439,1.340214,0.02080452,-0.06321884,1.631735,0.02461934,-0.3877294,1.617134,-0.1548704,0.12578,1.617758,-0.05794896,-0.3793666,1.579597,-0.2133563,-0.1202501,1.620861,0.3851295,-0.02983429,1.554454,NA,NA,NotTracked,Closed,
0.9199219,-0.4169922,-0.05371094,-0.7304688,0.7172852,0.3066406,2,0,0,-2,-2,-2,-1,-1,17,10,5,3,2,2,2,13,4.125,4.125,4.125,45.25,45.25,45.25,2.303852,3.248684,4.707053,7.37302,5.820302,6.056414,-0.2152318,-0.408532,1.496263,0.2546529,0.1479013,1.367317,0.01434733,0.4001008,1.604256,-0.1809797,-0.411458,1.469667,0.2728946,0.1758409,1.3474,0.02032124,-0.06246056,1.631681,0.02413917,-0.3865046,1.616854,-0.1550551,0.1263475,1.617554,-0.05831847,-0.3780232,1.57878,-0.2139198,-0.1200761,1.619934,0.360398,-0.01990886,1.581809,NA,NA,NotTracked,Closed,
0.8876953,-0.4257813,-0.05126953,-0.7128906,0.7143555,0.3129883,-2,-1,-1,-2,-2,0,0,1,3,12,11,4,-12,-2,-2,2,-3.875,-3.875,-3.875,40.3125,40.3125,40.3125,2.285354,3.236253,4.725976,7.355728,5.836473,5.99286,-0.2154593,-0.4088283,1.497454,0.2707103,0.1445145,1.372844,0.01413287,0.4003887,1.604059,-0.1796642,-0.412257,1.473259,0.2970461,0.1738884,1.358222,0.01998682,-0.06173231,1.631621,0.02381165,-0.3852133,1.616578,-0.1552346,0.1268832,1.617264,-0.05848224,-0.3766164,1.577981,-0.2142034,-0.1201332,1.619483,0.3597714,-0.01985492,1.588247,NA,NA,NotTracked,Closed,
0.878418,-0.4282227,-0.05615234,-0.7250977,0.7558594,0.2744141,-2,-1,-1,0,-1,-1,-2,-1,-14,-10,-4,3,6,1,-3,-4,-4.8125,-4.8125,-4.8125,18.625,18.625,18.625,2.270425,3.228978,4.737341,7.319012,5.864063,5.890646,-0.2160417,-0.4084442,1.49813,0.2859831,0.1447992,1.378254,0.01388813,0.40069,1.603706,-0.213057,-0.3970447,1.459373,0.3217107,0.1697717,1.373667,0.01987495,-0.06113591,1.631401,0.02358466,-0.3841904,1.6162,-0.1552566,0.1275544,1.616855,-0.05863965,-0.3754608,1.577264,-0.2144182,-0.1198607,1.619311,0.3592459,-0.02014826,1.597993,NA,NA,NotTracked,Closed,
0.8774414,-0.4394531,-0.04833984,-0.6977539,0.7192383,0.2851563,-2,-1,0,-1,-2,-2,-2,-1,3,-6,-1,-8,-4,-2,-1,6,-5.75,-5.75,-5.75,7.0625,7.0625,7.0625,2.262188,3.226056,4.743156,7.274159,5.890004,5.813149,-0.2168588,-0.4085878,1.499943,0.303949,0.1434713,1.387861,0.01361461,0.400997,1.602354,-0.253482,-0.4112771,1.499909,0.3405907,0.172081,1.380263,0.01983462,-0.0602409,1.630964,0.02342472,-0.3829098,1.615782,-0.1548363,0.1287759,1.615664,-0.05863459,-0.3742163,1.576451,-0.2145277,-0.1194757,1.618805,0.3966477,-0.05699974,1.641938,NA,NA,NotTracked,Closed,
0.8964844,-0.4604492,-0.05175781,-0.684082,0.7646484,0.246582,2,-1,-2,0,-3,-2,0,-2,6,14,4,-6,-5,-4,-1,1,-1.75,-1.75,-1.75,-1.8125,-1.8125,-1.8125,2.247936,3.22185,4.755945,7.2402,5.91552,5.761798,-0.217079,-0.4091291,1.502234,0.3095657,0.1445499,1.392002,0.01369745,0.4012659,1.60193,-0.2121709,-0.4552874,1.518445,0.3375673,0.12531,1.373585,0.0198792,-0.06007151,1.630883,0.02344748,-0.3827482,1.615789,-0.1545483,0.129003,1.615147,-0.0585745,-0.3740357,1.576326,-0.2145462,-0.1194102,1.618586,0.3934679,-0.05877,1.646367,NA,NA,NotTracked,Closed,
0.8969727,-0.4467773,-0.05712891,-0.6591797,0.7304688,0.2290039,-1,0,-1,-2,-1,0,-1,-1,-3,-12,-4,-13,3,4,-4,-3,1.125,1.125,1.125,-10.0625,-10.0625,-10.0625,2.243348,3.219816,4.762174,7.20671,5.935975,5.733333,-0.2169191,-0.4094096,1.502979,0.312628,0.1461437,1.39418,0.01390892,0.4013774,1.60151,-0.2518872,-0.3920952,1.504115,0.3483552,0.1698507,1.379519,0.01992579,-0.05991134,1.630829,0.02343696,-0.3824696,1.615773,-0.1543282,0.1293664,1.614827,-0.05855551,-0.3737789,1.576209,-0.2145896,-0.1191449,1.618326,0.3911985,-0.0597574,1.647967,NA,NA,NotTracked,Unknown,
0.9086914,-0.4306641,-0.06738281,-0.6337891,0.7485352,0.2084961,-1,-1,-2,0,0,-2,-2,1,17,18,6,6,-1,-4,0,11,-5.9375,-5.9375,-5.9375,-5.25,-5.25,-5.25,2.229388,3.213826,4.773254,7.197403,5.943452,5.725293,-0.2162902,-0.4089049,1.502982,0.3141122,0.1453544,1.394195,0.01423832,0.401286,1.60087,-0.2539968,-0.404379,1.508,0.3395235,0.122326,1.374618,0.02004049,-0.05980786,1.6307,0.02354266,-0.382264,1.615661,-0.1538481,0.1296729,1.614028,-0.05836536,-0.3735277,1.575951,-0.2145279,-0.1191182,1.618162,0.3896342,-0.06119671,1.649224,NA,NA,NotTracked,Unknown,
0.9086914,-0.4306641,-0.06738281,-0.5957031,0.8139648,0.2016602,-2,-1,0,-1,-1,-3,-1,-1,-4,-4,-2,-2,14,-1,-1,5,-5.9375,-5.9375,-5.9375,-11.5625,-11.5625,-11.5625,2.229388,3.213826,4.773254,7.180321,5.950765,5.716024,-0.2158773,-0.4081743,1.503066,0.3137704,0.1447456,1.395384,0.01465627,0.4012206,1.600234,-0.2532434,-0.3947116,1.509716,0.2533629,0.1576944,1.4735,0.02011053,-0.05970509,1.630627,0.02359861,-0.3821328,1.615585,-0.1536043,0.1298648,1.61376,-0.05820779,-0.3733053,1.57569,-0.2144683,-0.1189546,1.617867,0.3886359,-0.0624258,1.649113,NA,NA,NotTracked,Closed,
0.9023438,-0.4453125,-0.07080078,-0.5859375,0.7871094,0.1865234,-2,-1,-2,-2,-1,-3,-2,0,-6,12,-2,1,2,1,2,-10,-1.5625,-1.5625,-1.5625,-11.25,-11.25,-11.25,2.228807,3.21413,4.766084,7.163835,5.953701,5.714334,-0.2153761,-0.4082745,1.50235,0.3127997,0.1453639,1.394009,0.01518485,0.4011664,1.599894,-0.2519129,-0.3963882,1.505095,0.2568981,0.1673317,1.4596,0.0202255,-0.0596217,1.630577,0.02365548,-0.382039,1.615561,-0.1533064,0.1300475,1.613391,-0.05809811,-0.3731555,1.575555,-0.214379,-0.118831,1.617791,0.3880001,-0.06328225,1.648893,NA,NA,NotTracked,Closed,
0.8955078,-0.4379883,-0.08007813,-0.5844727,0.8217773,0.1777344,-1,-1,-1,0,0,0,-1,-1,3,2,4,2,-2,-1,1,8,1.4375,1.4375,1.4375,-7.75,-7.75,-7.75,2.238095,3.219492,4.757192,7.153633,5.955261,5.713751,-0.2147327,-0.4078345,1.50221,0.3128969,0.1449423,1.39416,0.01578497,0.4011157,1.599446,-0.251756,-0.3955916,1.50758,0.2669227,0.1385514,1.462923,0.0203136,-0.05954252,1.630518,0.02374655,-0.3818881,1.615495,-0.1532011,0.1301348,1.613243,-0.05799343,-0.3730166,1.575429,-0.2143062,-0.118697,1.617776,0.3876188,-0.0643096,1.648904,NA,NA,NotTracked,Closed,
0.8955078,-0.4326172,-0.07910156,-0.5834961,0.8105469,0.2124023,0,-1,0,-1,0,-1,0,-1,-9,-11,-3,2,2,-1,-4,-2,3.3125,3.3125,3.3125,-7.5625,-7.5625,-7.5625,2.245594,3.225033,4.752713,7.143022,5.955095,5.713405,-0.2139552,-0.4074863,1.500651,0.3122104,0.1445579,1.391903,0.01638255,0.4011345,1.598993,-0.2513652,-0.393104,1.509625,0.2567995,0.155088,1.474,0.02045486,-0.05941504,1.630405,0.0238838,-0.3817205,1.615411,-0.1526637,0.1304738,1.612861,-0.05776466,-0.3728124,1.575158,-0.2142494,-0.1186122,1.617651,0.3865395,-0.06487126,1.64771,NA,NA,NotTracked,Closed,
0.8979492,-0.4243164,-0.08007813,-0.5751953,0.828125,0.2011719,-1,0,0,-2,0,0,-2,-3,7,8,8,13,11,2,1,5,2.5,2.5,2.5,-5.8125,-5.8125,-5.8125,2.248444,3.227086,4.750855,7.137011,5.953162,5.715367,-0.2139429,-0.4059667,1.500692,0.3125381,0.1440966,1.39021,0.01715041,0.4011862,1.598561,-0.2513539,-0.3925693,1.507805,0.2604726,0.1375529,1.366095,0.02052364,-0.05931394,1.630326,0.02391155,-0.3814705,1.615345,-0.1523664,0.130607,1.61271,-0.05774164,-0.3725721,1.575049,-0.2142276,-0.1185522,1.61755,0.3859172,-0.06579533,1.64772,NA,NA,NotTracked,Closed,
0.8876953,-0.4243164,-0.08056641,-0.5742188,0.8095703,0.2167969,-1,-1,0,1,0,-2,-1,-2,8,1,-2,3,-1,-1,0,3,1.125,1.125,1.125,-2.9375,-2.9375,-2.9375,2.250782,3.231172,4.749684,7.12961,5.95384,5.713975,-0.2144101,-0.4054586,1.500505,0.3103807,0.1449374,1.391683,0.0176434,0.4011953,1.598256,-0.2519877,-0.3949408,1.506235,0.2592867,0.1483862,1.457917,0.02063254,-0.05922036,1.630254,0.02392324,-0.3813875,1.615319,-0.1522549,0.1307164,1.612671,-0.05770531,-0.3724585,1.574959,-0.2140891,-0.1183983,1.617548,0.385618,-0.06638139,1.647629,NA,NA,NotTracked,Closed,
0.8828125,-0.4282227,-0.08203125,-0.5883789,0.8076172,0.2143555,-1,-2,0,0,1,0,-2,1,-7,2,-1,4,0,-1,-1,-21,1.5625,1.5625,1.5625,-1.4375,-1.4375,-1.4375,2.250708,3.233084,4.750191,7.126415,5.955943,5.712664,-0.214481,-0.4052426,1.499929,0.3111334,0.1433585,1.388531,0.01865802,0.4011958,1.598042,-0.2523078,-0.3946462,1.508147,0.2565784,0.1383798,1.372416,0.02079215,-0.05906463,1.630168,0.02399762,-0.3812341,1.615227,-0.1519568,0.1308665,1.612602,-0.05761424,-0.372277,1.574753,-0.2139301,-0.1183275,1.6174,0.3476086,-0.02827544,1.61724,NA,NA,NotTracked,Closed,
0.8857422,-0.425293,-0.07763672,-0.5932617,0.7915039,0.2021484,-2,-2,-1,-1,2,-3,-3,-1,4,3,-1,-4,-11,-3,-1,5,2.0625,2.0625,2.0625,-5.625,-5.625,-5.625,2.246666,3.235805,4.758087,7.118918,5.959167,5.708569,-0.2147372,-0.4047714,1.499021,0.309868,0.1430447,1.388441,0.01895959,0.4011697,1.597845,-0.2495977,-0.396547,1.495759,0.2549524,0.1388818,1.380762,0.02104775,-0.05888727,1.630056,0.02405313,-0.3810855,1.615166,-0.1517657,0.1310767,1.612481,-0.0575418,-0.3721278,1.57463,-0.2140193,-0.1183619,1.6171,0.3821659,-0.0755889,1.644881,NA,NA,NotTracked,Closed,
0.8916016,-0.4272461,-0.07714844,-0.578125,0.7856445,0.222168,-3,-3,-2,-3,-2,0,-2,-1,-3,-4,1,0,-3,2,-1,-10,1.25,1.25,1.25,-1.6875,-1.6875,-1.6875,2.239481,3.235013,4.767908,7.114744,5.960265,5.704468,-0.2151539,-0.4051417,1.498794,0.3106565,0.1424131,1.389047,0.01944274,0.4012324,1.597624,-0.2529489,-0.3999539,1.503921,0.257199,0.1376419,1.367386,0.02124055,-0.05875886,1.62989,0.02413895,-0.3809606,1.615051,-0.1514867,0.1312401,1.612364,-0.05743169,-0.3720222,1.574492,-0.2138884,-0.1179792,1.617051,0.3822543,-0.07557634,1.644815,NA,NA,NotTracked,Closed,
0.8945313,-0.4296875,-0.06884766,-0.5756836,0.7919922,0.2358398,-3,-2,1,-2,0,-1,-1,-1,4,2,0,-3,0,0,1,2,0.4375,0.4375,0.4375,-2.4375,-2.4375,-2.4375,2.236259,3.234172,4.771911,7.104398,5.96202,5.693925,-0.2157802,-0.4050896,1.499543,0.3106487,0.1428276,1.387669,0.01983174,0.401189,1.597447,-0.2519207,-0.3956249,1.503997,0.2574375,0.1371229,1.372005,0.02134973,-0.05869795,1.629786,0.02414361,-0.3808936,1.614927,-0.151207,0.131423,1.612255,-0.05741561,-0.3719286,1.574225,-0.2139351,-0.1178928,1.616906,0.3822992,-0.07560075,1.644772,NA,NA,NotTracked,Closed,
0.8964844,-0.4335938,-0.07714844,-0.5415039,0.7744141,0.2548828,-1,1,-1,0,-1,-1,-1,-2,7,-3,-7,-3,-4,-1,-2,0,-0.0625,-0.0625,-0.0625,-2.375,-2.375,-2.375,2.229335,3.232327,4.779829,7.089941,5.962731,5.678049,-0.2160647,-0.405672,1.500811,0.3115487,0.1423392,1.389507,0.02021184,0.4012636,1.597333,-0.2563804,-0.4044994,1.508833,0.2729934,0.1328475,1.430188,0.02150426,-0.05862805,1.629722,0.0241893,-0.3807773,1.614821,-0.150943,0.1316198,1.612157,-0.05736886,-0.3717764,1.574053,-0.2139751,-0.1178445,1.616852,0.3824413,-0.07559868,1.644468,NA,NA,NotTracked,Closed,
0.8891602,-0.4355469,-0.07324219,-0.512207,0.7138672,0.2836914,-1,-2,-2,0,-2,-1,-1,1,5,-3,0,2,-1,8,2,0,-0.8125,-0.8125,-0.8125,-2.25,-2.25,-2.25,2.226232,3.231353,4.782765,7.073391,5.956918,5.661293,-0.216762,-0.4051359,1.500462,0.3125144,0.1434189,1.387286,0.02048957,0.4013167,1.59716,-0.2545759,-0.3937522,1.509714,0.2619801,0.1380702,1.3614,0.02171954,-0.05851433,1.629544,0.02424571,-0.3806228,1.614658,-0.1506463,0.1319294,1.611957,-0.05729274,-0.3716434,1.573891,-0.213972,-0.1176351,1.616688,0.3821569,-0.07558126,1.644306,NA,NA,NotTracked,Closed,
0.8959961,-0.4423828,-0.06152344,-0.4399414,0.6870117,0.3208008,0,-1,0,0,-1,-2,-1,0,-4,2,1,1,-2,3,-1,-2,-1.1875,-1.1875,-1.1875,-2.3125,-2.3125,-2.3125,2.220209,3.227958,4.787836,7.052729,5.934752,5.64118,-0.2167885,-0.4051077,1.501041,0.3134048,0.1430015,1.385341,0.02079124,0.4013326,1.597082,-0.253444,-0.3985736,1.50408,0.2576741,0.1416084,1.368675,0.02190836,-0.05841208,1.629463,0.02430215,-0.3805408,1.614592,-0.150483,0.1320515,1.611898,-0.05720106,-0.3715184,1.57377,-0.2138643,-0.117543,1.616681,0.381899,-0.07570046,1.644037,NA,NA,NotTracked,Closed,
0.8959961,-0.4423828,-0.06152344,-0.3476563,0.6865234,0.3173828,0,-2,-1,-1,-1,1,-1,-3,17,-6,-2,-2,2,8,-5,-15,-1.1875,-1.1875,-1.1875,-38.8125,-38.8125,-38.8125,2.220209,3.227958,4.787836,7.013874,5.871488,5.636278,-0.2167927,-0.405528,1.500936,0.3137338,0.1361841,1.380247,0.02144455,0.401508,1.596679,-0.2375828,-0.4078066,1.467291,0.2626698,0.1343147,1.371023,0.02224956,-0.05816182,1.62911,0.02442528,-0.3802719,1.614282,-0.1501129,0.1323901,1.611461,-0.05701144,-0.3712288,1.573352,-0.2138326,-0.117267,1.616668,0.3772385,-0.07585087,1.640241,NA,NA,NotTracked,Closed,
0.8959961,-0.4423828,-0.06152344,-0.284668,0.53125,0.3671875,-1,-1,-1,-1,-1,0,0,-1,11,1,-2,1,-2,2,-4,-1,-1.1875,-1.1875,-1.1875,-17.125,-17.125,-17.125,2.220209,3.227958,4.787836,6.986603,5.764851,5.655384,-0.2172533,-0.4054978,1.502204,0.3118729,0.1257368,1.373775,0.02176335,0.4015656,1.596511,-0.2534507,-0.3954023,1.50675,0.2998256,0.09861919,1.351317,0.02231363,-0.05805934,1.629008,0.02448603,-0.3800841,1.614037,-0.1500892,0.1324355,1.611408,-0.0569769,-0.3710643,1.573078,-0.2137537,-0.1171263,1.616661,0.3717247,-0.07596927,1.637178,NA,NA,NotTracked,Closed,
0.8964844,-0.4287109,-0.06005859,-0.2783203,0.6337891,0.2075195,0,1,-3,-2,0,1,0,0,21,0,0,-1,-3,-1,1,6,3.125,3.125,3.125,16.9375,16.9375,16.9375,2.222398,3.222687,4.787977,7.010021,5.619144,5.684865,-0.2166675,-0.4060996,1.501158,0.3082604,0.1077274,1.363253,0.0219844,0.4016271,1.596289,-0.2524261,-0.3904464,1.506105,0.2591646,0.1100212,1.334833,0.02250079,-0.05796772,1.628754,0.02452228,-0.3800162,1.613867,-0.1499784,0.1325566,1.611328,-0.05693627,-0.370994,1.572914,-0.2137016,-0.1170953,1.616467,0.3658321,-0.07639606,1.632835,NA,NA,NotTracked,Closed,
0.8964844,-0.4287109,-0.06005859,-0.2958984,0.7446289,0.1972656,-2,-2,-1,0,-1,1,-1,0,-25,-5,-3,-2,-1,11,-1,-10,3.125,3.125,3.125,-5.0625,-5.0625,-5.0625,2.222398,3.222687,4.787977,7.014487,5.521755,5.704592,-0.2155626,-0.4057563,1.500276,0.3048366,0.08024489,1.352468,0.02214537,0.4017123,1.596053,-0.2524554,-0.3932751,1.50703,0.2614909,0.08672899,1.328333,0.02262417,-0.0579014,1.628378,0.02467482,-0.380028,1.613482,-0.1498165,0.1325583,1.611083,-0.05681996,-0.3710368,1.572622,-0.2135596,-0.11705,1.616267,0.3565783,-0.07867746,1.631865,NA,NA,NotTracked,Closed,
0.9047852,-0.421875,-0.06054688,-0.2290039,0.7670898,0.2714844,-1,-1,-2,1,-2,1,-1,-1,5,-3,-1,0,-4,-3,-3,-5,9.1875,9.1875,9.1875,-39.75,-39.75,-39.75,2.237847,3.221675,4.783937,6.987184,5.28296,5.748919,-0.2147901,-0.406559,1.500946,0.3011375,0.04257001,1.351313,0.0222571,0.401765,1.59598,-0.2514616,-0.3840417,1.515214,0.2602537,0.0593379,1.334,0.0227569,-0.05783528,1.628053,0.02474972,-0.3800287,1.613297,-0.1497573,0.1325438,1.610898,-0.05678505,-0.3710578,1.572565,-0.2132605,-0.1170664,1.616214,0.3433177,-0.08676434,1.639213,NA,NA,NotTracked,Closed,
0.9116211,-0.4194336,-0.06640625,-0.1010742,0.7089844,0.2304688,0,0,-1,-1,-3,-1,-1,-1,-19,-3,-1,-1,-3,0,-6,-6,4.9375,4.9375,4.9375,-2.875,-2.875,-2.875,2.257809,3.218385,4.776346,6.975493,5.013849,5.794707,-0.2139886,-0.4067103,1.499884,0.2941895,-0.002666612,1.348439,0.0224276,0.4018077,1.595779,-0.2519737,-0.4119198,1.509,0.2608365,-0.01315574,1.318583,0.02301123,-0.05772217,1.627635,0.0248683,-0.3799492,1.613073,-0.1495437,0.1325023,1.610565,-0.05668973,-0.3710352,1.572439,-0.2130086,-0.1169275,1.61588,0.2945153,-0.05787772,1.653523,NA,NA,NotTracked,Unknown,
0.9013672,-0.4194336,-0.08642578,0.02099609,1.007813,0.1474609,-2,0,0,-1,0,-2,-1,-1,-6,3,-1,1,-1,-3,1,-6,3.375,3.375,3.375,25.25,25.25,25.25,2.266609,3.216187,4.770038,6.998092,4.742561,5.835958,-0.2121143,-0.4063652,1.500002,0.2861031,-0.04932459,1.347644,0.02253355,0.4018612,1.595505,-0.2482079,-0.3994082,1.503206,0.263973,-0.07226722,1.316437,0.0230945,-0.05765305,1.627368,0.02490304,-0.3798673,1.612941,-0.1493922,0.1325184,1.610297,-0.05666484,-0.3710042,1.572403,-0.2124029,-0.1173056,1.615604,0.28984,-0.05436365,1.671505,NA,NA,NotTracked,Unknown,
0.890625,-0.4301758,-0.07080078,0.3330078,0.9833984,0.3178711,0,-1,-1,-2,-3,0,-2,-1,7,3,5,0,-1,-2,0,-1,2.875,2.875,2.875,30.9375,30.9375,30.9375,2.27146,3.21544,4.766484,7.024811,4.480128,5.861359,-0.2094436,-0.4070271,1.500873,0.2734077,-0.1466294,1.370619,0.02263373,0.4019337,1.594793,-0.205806,-0.4485419,1.5235,0.2467446,-0.1627653,1.391375,0.02333019,-0.05752601,1.626719,0.02497571,-0.3797695,1.612488,-0.1493415,0.1324652,1.610101,-0.05660268,-0.3709786,1.572179,-0.2116465,-0.1173092,1.615529,0.3061668,-0.04582542,1.668007,NA,NA,NotTracked,Closed,
0.9018555,-0.4326172,-0.08154297,0.4189453,0.9990234,0.1625977,0,-1,1,-1,-2,0,-1,-1,-12,-3,-5,-2,0,-1,0,-2,2.875,2.875,2.875,46.4375,46.4375,46.4375,2.278788,3.213315,4.761506,7.070176,4.23276,5.872595,-0.2089101,-0.4069597,1.501819,0.269823,-0.1902968,1.387391,0.0226725,0.4019356,1.5947,-0.2480961,-0.4054312,1.512692,0.2512156,-0.2123627,1.415214,0.02344676,-0.05750217,1.626526,0.02501633,-0.3797545,1.61244,-0.149316,0.1324873,1.610071,-0.05656756,-0.3709849,1.572178,-0.2110442,-0.1171843,1.615315,0.3081697,-0.04501848,1.666209,NA,NA,NotTracked,Unknown,
0.9038086,-0.4326172,-0.078125,0.6948242,1.124023,0.2270508,0,-2,-1,-1,-1,0,-2,-1,-6,-4,5,3,0,0,-1,0,0.4375,0.4375,0.4375,44.5625,44.5625,44.5625,2.280011,3.212025,4.759805,7.124186,4.012353,5.865186,-0.2075568,-0.406707,1.500868,0.2641873,-0.2328923,1.400501,0.02278537,0.4020946,1.594183,-0.2503508,-0.3996436,1.52375,0.25374,-0.2490773,1.434125,0.02355662,-0.05747693,1.626012,0.02505846,-0.3797576,1.612253,-0.1492658,0.1324777,1.609893,-0.05650878,-0.3710243,1.572067,-0.2102876,-0.1171479,1.615107,0.3034075,-0.0485069,1.663072,NA,NA,NotTracked,Unknown,
0.8955078,-0.4399414,-0.078125,0.7416992,0.7910156,0.1459961,-1,-3,-2,-1,-2,0,-2,-1,-11,5,0,1,-1,1,-2,-7,-0.625,-0.625,-0.625,-6.0625,-6.0625,-6.0625,2.278057,3.210657,4.760246,7.152556,3.824438,5.833854,-0.207418,-0.4070156,1.501735,0.2628309,-0.2672044,1.419599,0.02277476,0.4021947,1.593782,-0.2433903,-0.3859575,1.515471,0.2437114,-0.2672831,1.455619,0.0236714,-0.05748039,1.625761,0.02512673,-0.3797685,1.612108,-0.1492082,0.1323875,1.609717,-0.05644412,-0.3710482,1.571983,-0.2099088,-0.1172234,1.615064,0.2965607,-0.05314051,1.658549,NA,NA,NotTracked,Unknown,
0.8979492,-0.4428711,-0.06884766,0.7705078,0.7578125,0.1484375,-1,-1,-2,-1,-1,-1,0,-1,7,-1,-1,-3,-2,0,-2,2,-2.125,-2.125,-2.125,19.1875,19.1875,19.1875,2.274379,3.210922,4.761779,7.204693,3.671158,5.772943,-0.207214,-0.4075093,1.501281,0.2638417,-0.2956169,1.434476,0.02295366,0.4022047,1.593346,-0.2468598,-0.3985614,1.516798,0.2327704,-0.2839758,1.4794,0.02382661,-0.05750565,1.625441,0.0251562,-0.3797749,1.612037,-0.1491669,0.1324332,1.609649,-0.05640796,-0.3710576,1.571945,-0.2096185,-0.1172365,1.614952,0.2920795,-0.06124986,1.655891,NA,NA,NotTracked,Unknown,
0.8974609,-0.4365234,-0.07275391,0.8188477,0.8632813,0.09863281,0,-1,-2,-2,-1,0,-1,-1,0,-1,-1,-2,-1,0,0,1,-1.3125,-1.3125,-1.3125,16.9375,16.9375,16.9375,2.270984,3.211326,4.764338,7.294076,3.537133,5.688377,-0.2067948,-0.4066552,1.500204,0.2606028,-0.319295,1.452987,0.02305453,0.4021487,1.592825,-0.2415808,-0.4059427,1.49613,0.1904793,-0.3234973,1.536625,0.02399374,-0.05759791,1.624915,0.02526356,-0.3798454,1.611733,-0.1490959,0.1323286,1.609382,-0.05629962,-0.3711455,1.571769,-0.2093165,-0.1172785,1.614848,0.2883262,-0.07070528,1.650575,NA,NA,NotTracked,Unknown,
0.890625,-0.4228516,-0.06640625,0.8779297,0.7431641,0.05371094,-1,0,2,0,0,-1,0,-1,4,1,0,0,-1,-3,-1,0,-2,-2,-2,-13.0625,-13.0625,-13.0625,2.265704,3.212826,4.769482,7.327574,3.47112,5.638529,-0.2075962,-0.4071588,1.500592,0.2581643,-0.339732,1.469241,0.02323512,0.4020982,1.592294,-0.2455098,-0.4065032,1.506311,0.1917208,-0.3443478,1.532,0.02417291,-0.05769826,1.62459,0.02532255,-0.3799267,1.611625,-0.14898,0.1323016,1.609151,-0.05622445,-0.3712399,1.571687,-0.2089485,-0.1175326,1.614732,0.2841813,-0.07923508,1.647553,NA,NA,NotTracked,Unknown,
0.890625,-0.4228516,-0.06640625,0.9296875,0.4648438,0.04248047,-2,0,0,-2,-1,-1,-2,-1,2,-1,0,-1,-2,0,0,-1,-2,-2,-2,-5.6875,-5.6875,-5.6875,2.265704,3.212826,4.769482,7.402227,3.348689,5.525399,-0.2068804,-0.4070434,1.498959,0.2683853,-0.3532269,1.469714,0.02348584,0.4021786,1.591545,-0.1972924,-0.4543996,1.5248,0.2393216,-0.3604493,1.483167,0.02438135,-0.05784467,1.623984,0.02546345,-0.3800464,1.611307,-0.1488881,0.1323356,1.608824,-0.05605522,-0.3713639,1.57147,-0.2084957,-0.1173846,1.614407,0.280677,-0.08656402,1.644355,NA,NA,NotTracked,NotTracked,
0.9008789,-0.4262695,-0.05517578,1.034668,0.5424805,-0.03710938,-1,0,-1,0,-1,0,-2,-2,-4,-2,-2,2,0,-1,1,1,-6.9375,-6.9375,-6.9375,32.8125,32.8125,32.8125,2.255675,3.211543,4.769179,7.552525,3.255677,5.389568,-0.2073727,-0.4077637,1.499074,0.2705837,-0.3662367,1.48305,0.02382308,0.4020436,1.590926,-0.2431854,-0.4012142,1.498955,0.2363409,-0.3575704,1.491279,0.02448762,-0.05788504,1.62374,0.02558699,-0.380114,1.611131,-0.1486065,0.1324819,1.608473,-0.05594075,-0.3714479,1.571361,-0.2082671,-0.117335,1.614074,0.2765043,-0.09498376,1.641061,NA,NA,NotTracked,NotTracked,
0.9008789,-0.4262695,-0.05517578,1.034668,0.5424805,-0.03710938,-1,0,-1,0,-1,0,-2,-2,-4,-2,-2,2,0,-1,1,1,-6.9375,-6.9375,-6.9375,32.8125,32.8125,32.8125,2.255675,3.211543,4.769179,7.552525,3.255677,5.389568,-0.2074949,-0.407387,1.499838,0.2721494,-0.3799888,1.493887,0.02409445,0.4019617,1.590593,-0.1975245,-0.4549269,1.5266,0.2380993,-0.3756361,1.489475,0.02456233,-0.05791233,1.623685,0.02565265,-0.3801497,1.611099,-0.1484952,0.1325029,1.608337,-0.05583626,-0.3715045,1.571359,-0.2080626,-0.1174392,1.613892,0.27362,-0.101209,1.637958,NA,NA,NotTracked,NotTracked,
0.9135742,-0.434082,-0.06201172,1.000977,0.5039063,-0.08837891,0,-1,0,-1,0,0,-1,-1,1,0,-1,0,-2,0,-4,0,-2.8125,-2.8125,-2.8125,11.3125,11.3125,11.3125,2.251821,3.211935,4.769187,7.687741,3.19453,5.263414,-0.2076143,-0.4066261,1.498143,0.2728582,-0.3895899,1.501201,0.02448138,0.4019046,1.590131,-0.246878,-0.4065089,1.509,0.2381339,-0.3828043,1.500931,0.0248062,-0.05798195,1.623447,0.02585375,-0.38026,1.610941,-0.1481825,0.1326164,1.607911,-0.05557705,-0.371631,1.571245,-0.2077665,-0.1173551,1.6136,0.2707996,-0.105316,1.635692,NA,NA,NotTracked,NotTracked,
0.9165039,-0.4287109,-0.06396484,1.025391,0.4257813,-0.1450195,-2,-1,-1,-2,-1,-1,0,0,-1,-3,-2,0,-2,0,-1,-1,-1.5625,-1.5625,-1.5625,-2.125,-2.125,-2.125,2.25097,3.212604,4.769495,7.777611,3.157294,5.165655,-0.2072493,-0.4074646,1.498883,0.2735591,-0.3985552,1.509352,0.02484528,0.4020307,1.589737,-0.2462685,-0.4052953,1.505367,0.2391346,-0.3894673,1.501923,0.02503556,-0.05804169,1.623346,0.02602073,-0.3803525,1.610907,-0.1480293,0.1326057,1.607722,-0.05533726,-0.37176,1.571286,-0.2075582,-0.1171887,1.613452,0.2685995,-0.1083473,1.633475,NA,NA,NotTracked,NotTracked,
0.9160156,-0.4140625,-0.06835938,0.9838867,0.4169922,-0.1533203,-1,-1,-2,0,1,-1,-2,-1,26,-3,-3,0,-3,1,2,8,1.5625,1.5625,1.5625,-1,-1,-1,2.257386,3.216045,4.764442,7.804582,3.148208,5.137078,-0.2071739,-0.4064195,1.497168,0.2737433,-0.4024473,1.514425,0.02514282,0.4019665,1.589483,-0.2455619,-0.4030628,1.501052,0.2400947,-0.3984473,1.50502,0.02529484,-0.05810237,1.623219,0.02633048,-0.3804287,1.610811,-0.147749,0.1325384,1.607255,-0.05501257,-0.3718619,1.571273,-0.2074257,-0.1171304,1.613347,0.2671004,-0.1107282,1.632151,NA,NA,NotTracked,NotTracked,
0.8945313,-0.4174805,-0.06347656,0.9243164,0.4135742,-0.09570313,0,-1,0,0,-2,0,0,-1,2,0,-1,-2,-1,0,-2,-2,0.6875,0.6875,0.6875,4.75,4.75,4.75,2.260911,3.218364,4.76052,7.815633,3.141988,5.129129,-0.2067777,-0.4067843,1.496481,0.273237,-0.4041293,1.518036,0.0254453,0.4019188,1.5892,-0.1991472,-0.452136,1.52,0.2410674,-0.4007941,1.503071,0.02568075,-0.05817948,1.622994,0.02643989,-0.3805038,1.610705,-0.147599,0.1325983,1.60703,-0.05487702,-0.3719254,1.571196,-0.2072644,-0.1171369,1.61305,0.2661104,-0.1131188,1.63145,NA,NA,NotTracked,NotTracked,
0.8984375,-0.4013672,-0.07080078,0.8881836,0.440918,-0.04882813,-2,-3,-3,-2,0,-2,-1,-2,1,-4,0,-2,-2,-1,2,-1,0.875,0.875,0.875,12.6875,12.6875,12.6875,2.26283,3.218888,4.75973,7.803976,3.145605,5.154674,-0.2068385,-0.4063812,1.496456,0.2721366,-0.4062206,1.518013,0.02574583,0.4019231,1.588893,-0.2422979,-0.4049018,1.4935,0.2381877,-0.3994968,1.508,0.02589316,-0.05829162,1.622824,0.02667819,-0.3806551,1.610558,-0.1473904,0.1325077,1.606807,-0.05461209,-0.3720948,1.571084,-0.2070656,-0.1171531,1.612778,0.2656575,-0.1138815,1.631129,NA,NA,NotTracked,NotTracked,
0.8837891,-0.4077148,-0.06787109,0.8491211,0.4384766,-0.04980469,-4,-1,-2,0,-1,-1,-1,1,18,4,0,1,0,-3,0,5,-4.5,-4.5,-4.5,15.125,15.125,15.125,2.258084,3.217613,4.760612,7.802642,3.153697,5.173771,-0.2064442,-0.4057724,1.495948,0.2719636,-0.4066114,1.518611,0.02610795,0.4019023,1.588544,-0.2423546,-0.4049452,1.493411,0.2401578,-0.3982685,1.502802,0.02608481,-0.0583665,1.622687,0.02681516,-0.3807609,1.610463,-0.1472563,0.1324884,1.606638,-0.05441297,-0.3722025,1.570975,-0.2068098,-0.117276,1.612695,0.2656026,-0.1140581,1.631063,NA,NA,NotTracked,NotTracked,
0.8920898,-0.418457,-0.07324219,0.8613281,0.3974609,-0.05371094,-2,0,0,-1,-1,0,-1,-1,-2,-3,-1,-1,-1,0,0,-1,-6,-6,-6,9.0625,9.0625,9.0625,2.248293,3.214639,4.764273,7.809424,3.157884,5.177976,-0.2064989,-0.4055463,1.495999,0.2719306,-0.4064633,1.518609,0.02655918,0.4018264,1.588146,-0.2459132,-0.3969691,1.508555,0.2385965,-0.3944354,1.504618,0.02636162,-0.0584552,1.622437,0.02692227,-0.3808256,1.610302,-0.1470425,0.1325831,1.606453,-0.05432193,-0.3722205,1.570864,-0.2066662,-0.1172604,1.612574,0.2655532,-0.1142313,1.631062,NA,NA,NotTracked,NotTracked,
0.8969727,-0.4326172,-0.0703125,0.8676758,0.3950195,-0.05517578,-1,-2,-3,-3,-3,-1,0,0,0,-2,-1,-1,0,1,-1,-2,-5.1875,-5.1875,-5.1875,7.5625,7.5625,7.5625,2.242765,3.213611,4.767385,7.81549,3.159505,5.17542,-0.2066928,-0.4062438,1.497492,0.2725563,-0.4045144,1.519935,0.02694087,0.4017787,1.587882,-0.2440657,-0.3878981,1.510333,0.2391751,-0.3956028,1.505283,0.02649032,-0.0584803,1.622361,0.02699225,-0.3808618,1.610266,-0.1466455,0.1327539,1.606122,-0.05422673,-0.3722454,1.57082,-0.2066194,-0.1172689,1.612493,0.2655585,-0.1142622,1.631062,NA,NA,NotTracked,NotTracked,
0.9106445,-0.4282227,-0.06689453,0.8891602,0.3974609,-0.05175781,-2,-1,-2,-2,-2,-1,0,-3,5,2,0,-2,-1,0,-1,0,-1.125,-1.125,-1.125,0.6875,0.6875,0.6875,2.235284,3.211229,4.77352,7.825927,3.163457,5.166531,-0.2072498,-0.406428,1.4978,0.2730656,-0.4042144,1.519263,0.02729828,0.4017866,1.587538,-0.2448288,-0.4016358,1.503937,0.2379414,-0.3873941,1.514593,0.02665063,-0.05852865,1.622277,0.02706475,-0.3809213,1.61022,-0.1465198,0.13273,1.606012,-0.05415499,-0.3722871,1.570773,-0.2063776,-0.1172783,1.612362,0.2656168,-0.1146037,1.63106,NA,NA,NotTracked,NotTracked,
0.9169922,-0.4228516,-0.05957031,0.8886719,0.3754883,-0.05419922,-2,-1,-1,-2,-1,-1,-1,-1,-1,-3,-2,-1,-1,-3,1,-2,-0.125,-0.125,-0.125,-8,-8,-8,2.233512,3.209738,4.775429,7.825789,3.166163,5.157686,-0.2072431,-0.4060091,1.498116,0.2743077,-0.4063111,1.518112,0.02778859,0.4018502,1.587197,-0.247902,-0.3947313,1.515125,0.2419969,-0.3991548,1.502975,0.02688066,-0.0585779,1.622144,0.02722984,-0.3809566,1.610161,-0.1462714,0.1326592,1.605666,-0.05400221,-0.3723247,1.570742,-0.2061648,-0.1173345,1.612247,0.2656257,-0.1147613,1.631002,NA,NA,NotTracked,NotTracked,
0.8911133,-0.425293,-0.07128906,0.8984375,0.387207,-0.05419922,-2,-3,-1,-1,1,-1,-1,-2,7,1,-3,-1,-2,-1,-1,1,0.75,0.75,0.75,0.0625,0.0625,0.0625,2.232526,3.20891,4.776799,7.825386,3.170312,5.14811,-0.2068643,-0.4066818,1.501242,0.2760684,-0.4077618,1.517184,0.02899891,0.4015836,1.586742,-0.2430921,-0.3997522,1.502836,0.242057,-0.3964387,1.505124,0.02728281,-0.05861336,1.622055,0.02753215,-0.3810311,1.61012,-0.1458182,0.1327492,1.605446,-0.0537282,-0.3723551,1.570723,-0.2057089,-0.1168724,1.612086,0.2660407,-0.1156222,1.630882,NA,NA,NotTracked,NotTracked,
0.8911133,-0.4277344,-0.06787109,0.8930664,0.3842773,-0.05761719,-1,-2,-2,-1,-1,-2,-1,-3,2,0,1,-1,-2,0,-1,-3,0.6875,0.6875,0.6875,-0.4375,-0.4375,-0.4375,2.231992,3.209011,4.777218,7.821865,3.171771,5.148349,-0.2072075,-0.4063062,1.499331,0.2758684,-0.4077946,1.51501,0.02924225,0.4014367,1.586552,-0.2449214,-0.3992973,1.507424,0.2443873,-0.4004319,1.49773,0.02754176,-0.05868414,1.621915,0.02760701,-0.3810717,1.610059,-0.1456812,0.1327752,1.605379,-0.0536584,-0.372385,1.570683,-0.205572,-0.1166117,1.611781,0.2661613,-0.1158392,1.630656,NA,NA,NotTracked,NotTracked,
0.8969727,-0.4272461,-0.07128906,0.8916016,0.3857422,-0.0625,0,-1,0,0,-2,-2,-3,-3,1,-6,1,0,-1,-3,-1,0,1.25,1.25,1.25,0.5,0.5,0.5,2.232468,3.20948,4.777609,7.818254,3.172251,5.152818,-0.2070117,-0.4061554,1.499715,0.2759976,-0.4076912,1.514215,0.02943964,0.401395,1.58644,-0.2445745,-0.3973766,1.507035,0.245712,-0.4004684,1.496645,0.02760121,-0.0587156,1.621898,0.02762592,-0.3811007,1.610064,-0.1454945,0.1327973,1.605234,-0.05363496,-0.3724022,1.570685,-0.2054294,-0.1166646,1.611776,0.2661201,-0.1160219,1.630554,NA,NA,NotTracked,NotTracked,
0.9038086,-0.4257813,-0.07226563,0.8920898,0.3886719,-0.06152344,-2,2,-1,-3,0,-2,-1,-2,9,-2,-2,0,0,-1,0,2,0.5,0.5,0.5,0.25,0.25,0.25,2.231713,3.209853,4.779337,7.814907,3.173218,5.155944,-0.207447,-0.4068761,1.500429,0.275448,-0.4072665,1.514517,0.02969529,0.4013323,1.586324,-0.2395422,-0.4282848,1.484555,0.2420176,-0.3963986,1.50298,0.02775289,-0.05875026,1.621874,0.02767565,-0.3811184,1.61007,-0.1454106,0.1328198,1.605232,-0.05357758,-0.3724232,1.570689,-0.2053102,-0.1166318,1.611821,0.2661149,-0.1161481,1.630475,NA,NA,NotTracked,NotTracked,
0.8999023,-0.4248047,-0.07519531,0.8852539,0.3823242,-0.06738281,-2,-2,-1,-3,-2,-1,-1,-2,2,0,0,0,-2,-1,-1,0,0.8125,0.8125,0.8125,1.5625,1.5625,1.5625,2.23263,3.21055,4.778682,7.810605,3.174031,5.161958,-0.2072265,-0.4061475,1.499497,0.2743641,-0.408574,1.512853,0.02988023,0.4012992,1.586232,-0.2473236,-0.4085093,1.506333,0.2404323,-0.3863422,1.5169,0.0279105,-0.05879306,1.621805,0.02779686,-0.3811657,1.610052,-0.145269,0.1327984,1.605112,-0.05344694,-0.3724725,1.570689,-0.2053053,-0.1165646,1.611718,0.2661079,-0.1161881,1.630099,NA,NA,NotTracked,NotTracked,
0.8964844,-0.4223633,-0.06494141,0.8916016,0.3974609,-0.05761719,-2,-1,-1,-1,0,0,-1,-1,0,-5,-1,-2,-2,0,0,-1,1.25,1.25,1.25,2.9375,2.9375,2.9375,2.234538,3.211214,4.778063,7.80646,3.175671,5.169214,-0.2074499,-0.4061268,1.50034,0.2741087,-0.4079913,1.512492,0.03002623,0.401285,1.586035,-0.2469363,-0.3918536,1.515,0.241318,-0.391174,1.507636,0.02803617,-0.05883113,1.621761,0.02796454,-0.3812253,1.610004,-0.1452017,0.1327701,1.605077,-0.0532698,-0.3725291,1.570631,-0.2052586,-0.1165201,1.611754,0.2661828,-0.1161665,1.62978,NA,NA,NotTracked,NotTracked,
0.8959961,-0.4194336,-0.07421875,0.8974609,0.3979492,-0.06005859,0,-2,-2,-1,-3,0,-1,0,-1,-2,-1,-1,0,-1,-1,-1,0.0625,0.0625,0.0625,-0.125,-0.125,-0.125,2.234917,3.211213,4.77808,7.797668,3.177806,5.179177,-0.2071407,-0.4066612,1.500504,0.2740375,-0.4067695,1.512327,0.03022519,0.4012871,1.585993,-0.2468045,-0.3966176,1.5184,0.2419221,-0.3972785,1.497,0.0282231,-0.05885819,1.621743,0.0280766,-0.3812708,1.610016,-0.1451037,0.1327967,1.605038,-0.05315015,-0.3725842,1.570637,-0.205147,-0.1163692,1.611811,0.266126,-0.1162612,1.629613,NA,NA,NotTracked,NotTracked,
0.8969727,-0.4243164,-0.07275391,0.8891602,0.3935547,-0.05224609,-1,-2,-1,-1,0,-1,-3,-1,2,-1,-2,-2,0,1,-1,-2,0.0625,0.0625,0.0625,0,0,0,2.234917,3.211213,4.77808,7.790777,3.179221,5.186382,-0.2070995,-0.406102,1.499282,0.2728286,-0.4073204,1.511415,0.03038685,0.4012828,1.585815,-0.2445198,-0.3904899,1.509848,0.2410875,-0.3945023,1.501583,0.02832722,-0.05885001,1.621678,0.02816083,-0.381284,1.609924,-0.1450408,0.1327989,1.604957,-0.05308131,-0.3725947,1.570544,-0.2050034,-0.116344,1.611805,0.2661373,-0.1163356,1.629363,NA,NA,NotTracked,NotTracked,
0.9018555,-0.4199219,-0.06835938,0.8867188,0.3920898,-0.05566406,-1,-3,-2,-2,-2,0,-1,-1,-4,-3,-1,0,-1,-2,-1,2,0.3125,0.3125,0.3125,0.875,0.875,0.875,2.234895,3.210913,4.777795,7.779438,3.182137,5.19915,-0.2073142,-0.406624,1.501066,0.2726279,-0.4067478,1.511139,0.03050606,0.4013357,1.585815,-0.2449768,-0.3953001,1.512821,0.2414525,-0.3982164,1.495372,0.02836887,-0.05885076,1.621673,0.0281728,-0.381283,1.609932,-0.1449559,0.1328592,1.604923,-0.05305487,-0.3725857,1.570552,-0.2049281,-0.1162844,1.611844,0.2661192,-0.1162729,1.629249,NA,NA,NotTracked,NotTracked,
0.9101563,-0.4248047,-0.06640625,0.8740234,0.3979492,-0.05322266,0,0,-1,1,-1,-1,1,-1,1,-1,-1,-1,-1,-2,-1,-1,-0.1875,-0.1875,-0.1875,0.9375,0.9375,0.9375,2.235499,3.210978,4.777464,7.770416,3.185389,5.209715,-0.2071371,-0.4070277,1.499871,0.2715776,-0.4050353,1.509761,0.0306476,0.4013065,1.585734,-0.2433106,-0.4014118,1.501337,0.2398318,-0.3952551,1.496314,0.02842262,-0.05888137,1.621581,0.02823041,-0.3813131,1.609821,-0.1448821,0.1328536,1.604896,-0.05300833,-0.3726251,1.570436,-0.2048924,-0.1164042,1.611836,0.2660232,-0.116369,1.629027,NA,NA,NotTracked,NotTracked,
0.9101563,-0.4248047,-0.06640625,0.8740234,0.3979492,-0.05322266,0,0,-1,1,-1,-1,1,-1,1,-1,-1,-1,-1,-2,-1,-1,-0.1875,-0.1875,-0.1875,0.9375,0.9375,0.9375,2.235499,3.210978,4.777464,7.770416,3.185389,5.209715,-0.2074314,-0.4066603,1.50003,0.2704975,-0.4050716,1.50855,0.03069189,0.4012649,1.585703,-0.24509,-0.399523,1.507999,0.2391454,-0.3955418,1.495349,0.02848315,-0.05891409,1.621568,0.02829706,-0.381361,1.60982,-0.1448179,0.1328012,1.604869,-0.05292272,-0.372669,1.570433,-0.204879,-0.1163787,1.611833,0.2659324,-0.1165149,1.628816,NA,NA,NotTracked,NotTracked,
0.9008789,-0.4213867,-0.07470703,0.8745117,0.3955078,-0.05859375,0,-2,1,-2,-1,-2,-1,-1,-4,-7,0,-3,-2,-1,-2,0,0.25,0.25,0.25,-0.375,-0.375,-0.375,2.237187,3.210807,4.775622,7.765543,3.187362,5.214847,-0.2068275,-0.4068771,1.500112,0.2702891,-0.4056247,1.508332,0.03071652,0.4012249,1.585676,-0.244357,-0.3961252,1.50979,0.2382915,-0.3958949,1.496897,0.02848716,-0.05893801,1.621553,0.02832173,-0.3813984,1.609801,-0.1448267,0.1327695,1.604911,-0.05290664,-0.3726977,1.570426,-0.2048388,-0.1163888,1.611859,0.2659142,-0.1164862,1.628796,NA,NA,NotTracked,NotTracked,
0.8999023,-0.4169922,-0.07275391,0.8828125,0.387207,-0.06054688,0,-2,-1,-2,-1,0,-1,-2,-3,-1,0,-1,0,0,-1,-4,-0.6875,-0.6875,-0.6875,0.25,0.25,0.25,2.238547,3.210502,4.773563,7.764997,3.187261,5.21528,-0.20648,-0.4067093,1.500171,0.2696545,-0.4047167,1.508533,0.03076701,0.4011431,1.585642,-0.2442016,-0.3988149,1.506177,0.2383233,-0.3950094,1.500262,0.02851941,-0.05896864,1.621574,0.02837343,-0.3814275,1.609838,-0.1448269,0.1327402,1.604951,-0.05284265,-0.3727317,1.570443,-0.204807,-0.1164731,1.611851,0.26592,-0.1165785,1.628714,NA,NA,NotTracked,NotTracked,
0.9018555,-0.4301758,-0.0625,0.8847656,0.3891602,-0.05322266,-1,-1,0,0,0,-1,-2,-1,-3,0,0,-2,0,-2,0,0,-1.0625,-1.0625,-1.0625,1.125,1.125,1.125,2.240651,3.210224,4.769585,7.765379,3.187266,5.215289,-0.2060336,-0.4069309,1.499532,0.2689648,-0.4046032,1.507392,0.03078088,0.4010769,1.585591,-0.2435754,-0.4029553,1.49825,0.2380122,-0.3948932,1.498978,0.02856386,-0.05899058,1.62157,0.02846044,-0.3814603,1.609857,-0.1448062,0.1327344,1.604956,-0.05272969,-0.3727902,1.570485,-0.2047636,-0.1164261,1.611846,0.2658558,-0.116552,1.628569,NA,NA,NotTracked,NotTracked,
0.9086914,-0.4267578,-0.07861328,0.8911133,0.4038086,-0.04931641,-2,-1,-1,-3,-2,-1,-1,-2,-2,1,-1,-1,1,-2,-2,-1,0.3125,0.3125,0.3125,2.75,2.75,2.75,2.241482,3.210356,4.768906,7.768465,3.186911,5.214366,-0.2057161,-0.4073424,1.50042,0.2687899,-0.4049338,1.508029,0.0307945,0.4010877,1.585576,-0.2433458,-0.401677,1.503483,0.2371719,-0.397513,1.499447,0.02859883,-0.05900379,1.621588,0.02853666,-0.3814719,1.609892,-0.1448038,0.1327339,1.604986,-0.05264517,-0.3727964,1.570516,-0.204722,-0.1163829,1.611926,0.2658101,-0.1166179,1.628434,NA,NA,NotTracked,NotTracked,
0.8994141,-0.4277344,-0.07666016,0.8842773,0.4038086,-0.05712891,-1,-2,0,0,0,-2,0,-2,-1,0,1,0,1,-1,-2,-1,0.3125,0.3125,0.3125,-1.125,-1.125,-1.125,2.240877,3.21029,4.769236,7.770192,3.186984,5.211983,-0.2057954,-0.4068619,1.499527,0.2683556,-0.4052426,1.507458,0.03080566,0.4010078,1.585497,-0.2431047,-0.3989672,1.503742,0.2367721,-0.3928043,1.498668,0.02865324,-0.05903564,1.621546,0.02856096,-0.3814967,1.609876,-0.1447796,0.1327307,1.60499,-0.05261455,-0.3728215,1.570495,-0.2047186,-0.1163552,1.61192,0.2656871,-0.1166401,1.628296,NA,NA,NotTracked,NotTracked,
0.8989258,-0.4194336,-0.07568359,0.8813477,0.3886719,-0.05419922,-1,-1,0,-1,-2,-1,-2,-2,-3,2,-2,-1,-1,-2,1,0,0.5,0.5,0.5,1.3125,1.3125,1.3125,2.24058,3.210057,4.769495,7.771379,3.1857,5.210259,-0.2060252,-0.4071182,1.499608,0.2683528,-0.4045658,1.507629,0.03083232,0.4009554,1.585397,-0.24413,-0.4025863,1.504682,0.2371854,-0.3936624,1.499126,0.02866451,-0.05904221,1.621547,0.02859623,-0.3815072,1.609898,-0.1447721,0.1327036,1.604995,-0.05257398,-0.3728401,1.570535,-0.2047063,-0.1163694,1.611916,0.2655795,-0.1163207,1.628004,NA,NA,NotTracked,NotTracked,
0.8999023,-0.4238281,-0.07763672,0.8793945,0.4038086,-0.04443359,-3,-2,-2,-1,-2,-1,-1,-1,2,-1,-1,-2,-1,1,1,1,-0.9375,-0.9375,-0.9375,2.6875,2.6875,2.6875,2.24058,3.210057,4.769495,7.773237,3.185912,5.209412,-0.2062764,-0.4067001,1.49979,0.2682915,-0.4038089,1.506866,0.03084578,0.4009396,1.585315,-0.1974994,-0.4529514,1.52,0.2365606,-0.3966233,1.497702,0.02872169,-0.05906732,1.621527,0.02868067,-0.3815432,1.609873,-0.1447706,0.1326789,1.604976,-0.05248211,-0.372871,1.570503,-0.2046959,-0.1163781,1.611912,0.2654992,-0.1161832,1.627889,NA,NA,NotTracked,NotTracked,
0.9013672,-0.4238281,-0.07958984,0.8852539,0.402832,-0.05175781,-2,-1,-3,-1,-2,-1,-2,-1,3,1,-1,0,0,2,0,0,0.125,0.125,0.125,-0.5625,-0.5625,-0.5625,2.238605,3.210695,4.771699,7.777037,3.186438,5.205537,-0.2068583,-0.4068723,1.499951,0.268356,-0.4042304,1.507353,0.03084781,0.400934,1.585315,-0.2444875,-0.4010374,1.506133,0.2360249,-0.392777,1.494179,0.02872354,-0.05906685,1.621526,0.02868238,-0.3815457,1.609865,-0.1447246,0.1326801,1.604952,-0.05247956,-0.3728673,1.570474,-0.2047004,-0.1164157,1.611872,0.2653294,-0.1160887,1.627843,NA,NA,NotTracked,NotTracked,
0.9042969,-0.4228516,-0.06884766,0.8842773,0.3891602,-0.05224609,-1,-1,0,0,-3,0,-1,0,1,0,0,-2,0,-1,-2,-3,-1.375,-1.375,-1.375,-2.4375,-2.4375,-2.4375,2.234611,3.210236,4.774816,7.778672,3.185898,5.200244,-0.2071179,-0.4071455,1.500163,0.2682547,-0.4043465,1.507965,0.03084292,0.4009295,1.585315,-0.2430277,-0.3997085,1.500867,0.2365379,-0.3979262,1.49495,0.02876735,-0.05914847,1.621483,0.02878106,-0.3817146,1.609773,-0.1434941,0.1296014,1.605337,-0.05239981,-0.3730697,1.570414,-0.2045988,-0.1165565,1.611862,0.2652875,-0.116072,1.627775,NA,NA,NotTracked,NotTracked,
0.9038086,-0.4291992,-0.07226563,0.8813477,0.3959961,-0.04638672,-2,0,-2,-2,1,-1,1,-1,2,-4,0,-2,-2,0,0,-1,-1.125,-1.125,-1.125,0.625,0.625,0.625,2.233165,3.210437,4.775636,7.779779,3.185091,5.19813,-0.2074112,-0.4071142,1.499318,0.2680615,-0.4035331,1.507742,0.03084529,0.4008664,1.585258,-0.2452679,-0.407275,1.500446,0.2370964,-0.3948888,1.497389,0.02878809,-0.05919374,1.621395,0.02876263,-0.3817237,1.609652,-0.1435687,0.1298318,1.605328,-0.05242217,-0.3730724,1.570284,-0.2046311,-0.1166346,1.611811,0.265179,-0.1160666,1.627614,NA,NA,NotTracked,NotTracked,
0.8979492,-0.4213867,-0.06347656,0.8789063,0.4042969,-0.04833984,-2,-1,-1,-1,-1,-2,-1,-2,-4,-2,0,-1,-1,-1,0,-1,-0.375,-0.375,-0.375,1.125,1.125,1.125,2.2334,3.210104,4.775477,7.783978,3.185215,5.194067,-0.2078136,-0.4075216,1.500401,0.2683126,-0.4051597,1.507766,0.03083666,0.4008501,1.585238,-0.2488238,-0.4000695,1.517625,0.2372294,-0.3952448,1.494929,0.02882903,-0.05921501,1.621374,0.02880305,-0.3817299,1.609656,-0.1436414,0.1299358,1.605271,-0.05236875,-0.3730785,1.570284,-0.2046187,-0.116646,1.61183,0.2651379,-0.1160752,1.6276,NA,NA,NotTracked,NotTracked,
0.8984375,-0.4223633,-0.06787109,0.8847656,0.4057617,-0.04980469,-3,-1,0,0,0,-1,0,-1,3,-1,-1,1,0,0,0,3,0,0,0,-0.875,-0.875,-0.875,2.2334,3.210104,4.775477,7.785159,3.185084,5.191625,-0.2082792,-0.4071698,1.499435,0.2683566,-0.4040932,1.508111,0.03080553,0.4007107,1.585131,-0.24554,-0.4021597,1.504552,0.237428,-0.3951269,1.495004,0.02882268,-0.05924169,1.621359,0.02884095,-0.3817663,1.609627,-0.1437132,0.130095,1.605208,-0.05233255,-0.3731276,1.570268,-0.2046257,-0.1166252,1.611827,0.2651086,-0.1160915,1.62755,NA,NA,NotTracked,NotTracked,
0.9018555,-0.4282227,-0.06884766,0.8867188,0.3984375,-0.04833984,0,-1,0,-1,-3,0,-1,-1,-4,-3,-1,0,-2,0,-2,-3,-1.3125,-1.3125,-1.3125,-1.5,-1.5,-1.5,2.232969,3.210237,4.775658,7.785767,3.184538,5.188152,-0.208406,-0.4068857,1.500256,0.2685576,-0.4042093,1.508393,0.03079093,0.4006972,1.585126,-0.2456419,-0.4006876,1.508206,0.2371711,-0.3958068,1.496573,0.02884549,-0.05925794,1.621337,0.02884202,-0.3817664,1.609626,-0.1437788,0.1303088,1.605207,-0.05232887,-0.3731278,1.570269,-0.2046298,-0.1166142,1.611844,0.2650574,-0.1161022,1.627537,NA,NA,NotTracked,NotTracked,
0.9047852,-0.4238281,-0.0703125,0.8847656,0.402832,-0.05078125,-1,-2,-3,-2,-1,-1,-2,-1,-2,0,-2,0,-1,-1,0,0,0.25,0.25,0.25,0.0625,0.0625,0.0625,2.233317,3.210335,4.775199,7.787249,3.184476,5.185148,-0.2083282,-0.4072328,1.500206,0.2687482,-0.4047952,1.509001,0.03079123,0.4006962,1.585125,-0.2480617,-0.3939916,1.521,0.2376474,-0.3951286,1.497949,0.0288428,-0.05925702,1.621335,0.02883176,-0.3817583,1.609606,-0.1438959,0.1305281,1.605206,-0.05235626,-0.3731079,1.570217,-0.2046727,-0.1166262,1.611839,0.2649224,-0.1159876,1.627572,NA,NA,NotTracked,NotTracked,
0.9047852,-0.4238281,-0.0703125,0.8847656,0.402832,-0.05078125,-1,-2,-3,-2,-1,-1,-2,-1,-2,0,-2,0,-1,-1,0,0,0.25,0.25,0.25,0.0625,0.0625,0.0625,2.233317,3.210335,4.775199,7.787249,3.184476,5.185148,-0.208369,-0.4076236,1.499945,0.2684771,-0.4039056,1.509257,0.0307899,0.400698,1.585113,-0.2448828,-0.401788,1.500842,0.2368248,-0.3962131,1.498574,0.02884155,-0.05928761,1.621292,0.02883556,-0.3817676,1.609571,-0.1439205,0.1306796,1.605151,-0.05235303,-0.373113,1.570176,-0.2046837,-0.1165947,1.611911,0.2649014,-0.1159668,1.627525,NA,NA,NotTracked,NotTracked,
