ALX,ALY,ALZ,ARX,ARY,ARZ,EMG0L,EMG1L,EMG2L,EMG3L,EMG4L,EMG5L,EMG6L,EMG7L,EMG0R,EMG1R,EMG2R,EMG3R,EMG4R,EMG5R,EMG6R,EMG7R,GLX,GLY,GLZ,GRX,GRY,GRZ,ORL,OPL,OYL,ORR,OPR,OYR,LHNX,LHNY,LHNZ,RHNX,RHNY,RHNZ,HX,HY,HZ,LTX,LTY,LTZ,RTX,RTY,RTZ,SpineMidX,SpineMidY,SpineMidZ,SpineBaseX,SpineBaseY,SpineBaseZ,ShoulderLeftX,ShoulderLeftY,ShoulderLeftZ,ShoulderRightX,ShoulderRightY,ShoulderRightZ,ElbowLeftX,ElbowLeftY,ElbowLeftZ,ElbowRightX,ElbowRightY,ElbowRightZ,Myo_Pose_left,Myo_Pose_Right,Kinect_pose_left,Kinect_pose_right
-0.1953125,-0.7436523,0.05761719,-0.3774414,0.6098633,-0.008789063,-2,0,-1,-2,-6,-4,-3,5,-13,-2,2,7,3,2,-4,-9,-69.0625,-69.0625,-69.0625,77.5,77.5,77.5,2.376372,5.836407,3.3457,7.778255,5.996708,9.901124,-0.2300741,0.1605295,1.249845,0.3051424,0.1669603,1.256613,0.06345154,0.3977127,1.554289,-0.1742974,0.1631408,1.236,0.2617804,0.1676562,1.259,0.06025707,-0.06029297,1.587744,0.06048361,-0.3833578,1.57209,-0.1137052,0.1363456,1.577615,-0.02288036,-0.3745301,1.53321,-0.2765082,-0.04755602,1.518367,0.4230496,-0.02088039,1.498225,NA,NA,Open,Unknown,
-0.2866211,-0.6245117,0.01269531,-0.4003906,0.5888672,-0.05078125,-1,3,4,1,0,0,13,1,2,2,-5,-3,-2,-19,-13,1,-80.125,-80.125,-80.125,76.875,76.875,76.875,2.236521,6.014725,3.243526,7.913823,6.11667,9.982367,-0.2224574,0.187253,1.257761,0.3032578,0.1928494,1.266986,0.06336272,0.3978205,1.555632,-0.170741,0.1868512,1.24955,0.2665409,0.1879802,1.32175,0.06028504,-0.06006325,1.588069,0.06049385,-0.3831058,1.571915,-0.1138389,0.1365027,1.57767,-0.02287074,-0.3742643,1.533067,-0.2811241,-0.03898369,1.514366,0.4246788,-0.01370155,1.49606,NA,NA,Open,Unknown,
-0.3916016,-0.6391602,-0.08251953,-0.5117188,0.5810547,-0.1030273,-13,-4,-39,-15,-4,-2,-2,-7,5,8,-4,-5,12,0,-31,-5,-68.875,-68.875,-68.875,59.375,59.375,59.375,2.090476,6.149234,3.137484,8.0246,6.2018,0.05038626,-0.2137028,0.2053677,1.263332,0.2984825,0.2160106,1.26689,0.06334689,0.3977463,1.556707,-0.1656855,0.1985206,1.25005,0.2551093,0.2140593,1.32775,0.06027956,-0.0598083,1.588416,0.0605393,-0.3827944,1.571729,-0.1139589,0.1365542,1.577661,-0.02283212,-0.373971,1.532919,-0.2924744,-0.02356344,1.50385,0.4272609,0.002886572,1.486065,NA,NA,Open,Unknown,
-0.3862305,-0.6132813,-0.06884766,-0.4633789,0.4755859,-0.09326172,-7,-14,21,-7,6,7,-12,8,2,-18,-6,-6,4,-22,4,1,-68.75,-68.75,-68.75,58.375,58.375,58.375,2.018211,6.202785,3.085672,8.07698,6.231116,0.08280804,-0.2048627,0.2170898,1.26918,0.2962409,0.2269181,1.276407,0.06338505,0.3977578,1.557264,-0.1651233,0.2030341,1.302286,0.253665,0.2257258,1.27915,0.06030107,-0.05959089,1.58859,0.06062528,-0.3823689,1.571405,-0.1140853,0.1366678,1.577651,-0.02277818,-0.3736338,1.53271,-0.2968495,-0.01360228,1.494835,0.4305232,0.007287893,1.48474,NA,NA,Open,Closed,
-0.4169922,-0.5322266,-0.1357422,-0.3886719,0.3769531,-0.1362305,14,31,40,19,13,0,-38,-7,-8,-14,-9,-6,15,15,19,-10,-39.75,-39.75,-39.75,48.3125,48.3125,48.3125,1.902959,6.268647,2.985336,8.185599,6.259669,0.1472455,-0.200085,0.2241925,1.277756,0.2970219,0.2332886,1.286883,0.06336659,0.3978151,1.558031,-0.159779,0.2158809,1.292214,0.2543317,0.2240892,1.3044,0.06030311,-0.05938595,1.588795,0.06060354,-0.3820198,1.571156,-0.1143169,0.1368236,1.577639,-0.02279848,-0.3733554,1.532632,-0.2996379,-0.01144026,1.496322,0.4367228,0.01062579,1.480086,NA,NA,Closed,Closed,
-0.5131836,-0.4609375,-0.234375,-0.4980469,0.5200195,-0.1762695,4,8,46,-11,-7,-8,-9,-7,-7,-6,0,6,-21,-1,-20,-10,-18.4375,-18.4375,-18.4375,21.75,21.75,21.75,1.749595,6.304747,2.840809,8.245617,6.263341,0.1936887,-0.1973076,0.2236754,1.282535,0.2957273,0.2372941,1.288854,0.0633483,0.3977537,1.558216,-0.1551894,0.2214614,1.2896,0.2699638,0.2199866,1.3355,0.06031911,-0.05930038,1.588845,0.06065898,-0.381731,1.570714,-0.1146584,0.1368083,1.577457,-0.02279129,-0.3730834,1.532278,-0.3033415,-0.00979642,1.496262,0.4395322,0.01321223,1.48099,NA,NA,Closed,Closed,
-0.440918,-0.5307617,-0.1098633,-0.4506836,0.4614258,-0.1230469,-8,-31,-37,-14,-15,-9,-6,-3,-5,-3,5,3,-5,5,-10,-14,-36.25,-36.25,-36.25,-17.6875,-17.6875,-17.6875,1.670994,6.312933,2.790561,8.244025,6.241498,0.2086228,-0.1943271,0.2207361,1.285128,0.2932606,0.2377793,1.289566,0.06335898,0.3978222,1.558507,-0.1520649,0.2077782,1.3088,0.2675153,0.2191931,1.3131,0.06038214,-0.05909598,1.588959,0.06066166,-0.3814643,1.570587,-0.114964,0.1369846,1.577378,-0.02280355,-0.3727702,1.532218,-0.3075972,-0.008063551,1.497609,0.4424208,0.01520216,1.480007,NA,NA,Closed,Closed,
-0.4438477,-0.4770508,-0.1816406,-0.3881836,0.4174805,-0.08007813,10,8,16,14,6,-5,-2,4,7,5,10,4,-14,10,16,12,34.0625,34.0625,34.0625,-37.4375,-37.4375,-37.4375,1.694475,6.281494,2.779553,8.147634,6.149573,0.1690322,-0.1863819,0.1994473,1.281678,0.2889122,0.2213939,1.284588,0.06347136,0.3979636,1.558933,-0.1442206,0.1869306,1.282889,0.2498662,0.2068273,1.287417,0.06043879,-0.05874555,1.589182,0.06064855,-0.3808433,1.570278,-0.1155897,0.1376188,1.577226,-0.02275786,-0.3721395,1.531921,-0.3136885,-0.007276323,1.498862,0.4453958,0.01588545,1.482314,NA,NA,Closed,Closed,
-0.3896484,-0.3012695,-0.1391602,-0.3320313,0.5004883,-0.06835938,37,43,100,35,13,7,4,9,-3,-4,0,-1,-17,-10,16,1,25.9375,25.9375,25.9375,-58.9375,-58.9375,-58.9375,1.783902,6.174048,2.801317,8.049971,6.036782,0.1106471,-0.1841948,0.1802838,1.2744,0.2863819,0.2025798,1.279699,0.06350829,0.3980509,1.558957,-0.1434748,0.1682729,1.258385,0.2456971,0.1919734,1.277786,0.06049516,-0.05858282,1.589254,0.06068927,-0.3806924,1.570189,-0.1156261,0.1376924,1.577146,-0.02271372,-0.371951,1.531815,-0.3189822,-0.01193639,1.506222,0.4445906,0.01673242,1.481386,NA,NA,Closed,Closed,
-0.3544922,-0.4960938,-0.1000977,-0.2978516,0.4975586,-0.05517578,9,7,7,4,8,10,8,3,-5,-13,-15,0,13,11,4,-8,26.875,26.875,26.875,-68.4375,-68.4375,-68.4375,1.812427,6.111745,2.820718,7.992021,5.961511,0.0781689,-0.1827994,0.1532636,1.267919,0.2855143,0.1771249,1.273656,0.06351911,0.3981164,1.559022,-0.1351314,0.156453,1.24675,0.2372998,0.1766095,1.258167,0.06048132,-0.05857661,1.589266,0.06070309,-0.3807261,1.570134,-0.1151489,0.1374415,1.576867,-0.02271077,-0.3719898,1.53176,-0.3191783,-0.01639563,1.510081,0.4418707,0.0132284,1.483154,NA,NA,Closed,Closed,
-0.2333984,-0.6147461,-0.09326172,-0.3056641,0.6713867,-0.09326172,-1,-8,-45,-8,-5,-4,3,-5,2,0,-3,2,2,10,9,-34,64.25,64.25,64.25,-66.4375,-66.4375,-66.4375,1.902675,5.948663,2.872697,7.877628,5.776572,0.009801073,-0.1795731,0.1193414,1.258672,0.2825813,0.1457783,1.265627,0.06356581,0.3981876,1.558885,-0.1332258,0.1244667,1.234,0.2369435,0.1285912,1.2463,0.06047775,-0.05857929,1.589252,0.06067634,-0.3808182,1.569995,-0.1130512,0.1369864,1.576189,-0.02278077,-0.3720986,1.531578,-0.317635,-0.02566956,1.5187,0.4358386,-0.0001919192,1.488427,NA,NA,Closed,Closed,
-0.2807617,-0.652832,-0.1650391,-0.2895508,0.8125,-0.07910156,-8,-8,-4,-2,8,23,-5,-9,5,17,5,0,0,4,-6,-2,54.625,54.625,54.625,-70.1875,-70.1875,-70.1875,2.000414,5.74622,2.925493,7.821472,5.673669,9.97287,-0.1750493,0.07774518,1.251811,0.2779843,0.1061617,1.258223,0.06358358,0.3981785,1.558866,-0.1322176,0.07009404,1.237778,0.2364308,0.08695517,1.239,0.06044344,-0.05862597,1.589252,0.06061732,-0.3809217,1.569908,-0.1122952,0.1370372,1.576352,-0.02284948,-0.37219,1.531501,-0.2749535,-0.04397954,1.501575,0.4428311,-0.0427473,1.531412,NA,NA,Closed,Closed,
-0.2006836,-1.027832,-0.1582031,-0.2670898,1.117188,-0.1699219,-2,-1,-15,-6,-10,-26,-14,-14,-2,-15,0,1,-9,-8,-3,-2,65.625,65.625,65.625,-55.6875,-55.6875,-55.6875,2.09191,5.527158,2.990515,7.661567,5.336654,9.86218,-0.1667356,0.03182888,1.241989,0.2811041,0.05583248,1.258865,0.06357417,0.3980983,1.558782,-0.1288888,0.01124006,1.234333,0.2385107,0.03591748,1.237889,0.06049102,-0.05885751,1.589136,0.06062021,-0.381257,1.569651,-0.1122697,0.1369688,1.5764,-0.0229136,-0.3725512,1.531295,-0.2688213,-0.03813133,1.486713,0.3671097,-0.02676852,1.492215,NA,NA,Closed,Closed,
-0.253418,-1.233887,-0.300293,-0.2285156,1.403809,-0.2138672,8,6,43,25,-5,-24,-4,-5,22,-2,-4,1,4,-1,-3,-5,53,53,53,-31.1875,-31.1875,-31.1875,2.171737,5.32333,3.052384,7.638895,5.236732,9.827822,-0.1657994,-0.01694008,1.247291,0.2750456,0.004621231,1.259928,0.06356703,0.398084,1.558767,-0.1268679,-0.03361781,1.236833,0.2320373,-0.006473859,1.25925,0.0605092,-0.05898163,1.589065,0.06062712,-0.3815151,1.569474,-0.1123705,0.1368808,1.576525,-0.02292698,-0.3728362,1.531157,-0.2642841,-0.02109445,1.503851,0.3717289,-0.02964386,1.484979,NA,NA,Closed,Closed,
-0.2138672,-1.481934,-0.3076172,-0.2299805,1.832031,-0.2685547,9,6,20,11,16,8,12,12,6,-8,-43,1,5,0,-14,13,45.25,45.25,45.25,-38.6875,-38.6875,-38.6875,2.202143,5.23455,3.083457,7.598255,5.078926,9.778266,-0.1642024,-0.05490391,1.254092,0.2743357,-0.03882409,1.261444,0.06354681,0.3980328,1.558618,-0.1242293,-0.07068164,1.255667,0.2350588,-0.04273099,1.269091,0.0605029,-0.05911414,1.588938,0.06071674,-0.3817518,1.569244,-0.1126172,0.1365047,1.576827,-0.02287189,-0.3731416,1.530907,-0.2613484,-0.02974141,1.529319,0.3683186,-0.04107752,1.550421,NA,NA,Closed,Closed,
-0.3251953,-1.731445,-0.4541016,-0.2758789,1.691406,-0.2675781,1,-4,-4,4,5,10,-6,-9,-5,-1,21,-2,2,-2,1,-14,46.625,46.625,46.625,-23.625,-23.625,-23.625,2.259332,5.104804,3.129004,7.579498,5.012721,9.761909,-0.1661943,-0.0945969,1.268404,0.2737978,-0.08966449,1.279891,0.06327252,0.3981799,1.557197,-0.1362934,-0.06579169,1.2534,0.2830857,-0.117248,1.259929,0.06039182,-0.05927125,1.588258,0.06058495,-0.3818949,1.568728,-0.1127248,0.136601,1.576919,-0.02297498,-0.3733057,1.530458,-0.270529,-0.02239762,1.538827,0.3585067,-0.04818702,1.554567,NA,NA,Closed,Closed,
-0.3149414,-1.50293,-0.378418,-0.28125,1.380859,-0.2070313,-1,5,31,21,22,25,9,-4,-5,3,3,-13,-3,-2,-3,4,14.5,14.5,14.5,1.875,1.875,1.875,2.272345,5.076126,3.14569,7.588824,5.023309,9.767877,-0.1635661,-0.09631395,1.271668,0.2720912,-0.09462203,1.282554,0.06299764,0.3982925,1.555904,-0.1269543,-0.1081029,1.279385,0.2339126,-0.0995881,1.322714,0.06036746,-0.05924623,1.587983,0.06055314,-0.3818814,1.568648,-0.112944,0.1367455,1.577035,-0.02299169,-0.373303,1.53038,-0.2746649,-0.0187238,1.543611,0.3944777,-0.01521166,1.528572,NA,NA,Closed,Closed,
-0.3115234,-1.263184,-0.3535156,-0.1582031,1.050781,-0.1181641,-6,-2,-4,-8,-6,-6,-1,-1,-4,-5,3,0,5,7,0,-6,9.6875,9.6875,9.6875,5,5,5,2.271011,5.093028,3.139482,7.600747,5.06297,9.782789,-0.1621063,-0.09202138,1.26994,0.2718547,-0.09027904,1.282577,0.06279832,0.3981206,1.554713,-0.1221205,-0.1079566,1.294333,0.2339317,-0.0945857,1.305786,0.0603603,-0.05926545,1.587698,0.06050438,-0.3818701,1.568511,-0.1129667,0.1368054,1.577017,-0.02303603,-0.3732983,1.530239,-0.2767666,-0.01665435,1.546051,0.3935486,-0.01661725,1.525523,NA,NA,Closed,Closed,
-0.144043,-0.9633789,-0.2167969,-0.07519531,0.8847656,-0.02929688,-10,-4,-4,-7,-9,-6,-2,-7,-2,2,-4,-5,1,1,-4,11,-14.5625,-14.5625,-14.5625,12.5625,12.5625,12.5625,2.254902,5.131548,3.122108,7.610685,5.104492,9.792752,-0.1619014,-0.08476324,1.26844,0.2707692,-0.08225849,1.280779,0.06267215,0.3981228,1.553455,-0.1240738,-0.0830079,1.278167,0.2375979,-0.09685655,1.29975,0.06035211,-0.05925467,1.587568,0.06048169,-0.3818206,1.568452,-0.1129918,0.1369423,1.577042,-0.02306248,-0.3732399,1.530174,-0.2781568,-0.01489845,1.544685,0.3935419,-0.01637259,1.525554,NA,NA,Closed,Closed,
-0.08740234,-0.9316406,-0.1582031,-0.00390625,0.8696289,0.01074219,-12,-7,0,0,6,-7,-1,-4,10,28,10,2,-1,4,3,8,-23.75,-23.75,-23.75,10.6875,10.6875,10.6875,2.240628,5.148252,3.113594,7.619121,5.132857,9.79373,-0.1620314,-0.0784708,1.264573,0.2712562,-0.07549575,1.276912,0.062568,0.3977599,1.552837,-0.1197916,-0.09517309,1.3605,0.2351073,-0.06727391,1.32475,0.06033083,-0.05931437,1.587462,0.0604587,-0.3818327,1.568429,-0.1129925,0.136943,1.577046,-0.02308579,-0.37325,1.53015,-0.2759798,-0.01714606,1.543334,0.3934507,-0.01580235,1.525704,NA,NA,Closed,Closed,
-0.008300781,-0.8452148,-0.06298828,0.02539063,0.8671875,0.003417969,10,4,-14,-4,-2,-4,0,-5,3,4,-2,2,-1,-2,0,-6,-9.125,-9.125,-9.125,0.3125,0.3125,0.3125,2.223501,5.161835,3.09341,7.617334,5.143137,9.788774,-0.1615425,-0.07647382,1.26133,0.2721311,-0.07074582,1.273648,0.06258085,0.3975436,1.552591,-0.1199797,-0.09335201,1.362616,0.23441,-0.0955731,1.282625,0.06029591,-0.0593942,1.587428,0.0604574,-0.3818594,1.568419,-0.1129986,0.1369187,1.577057,-0.02308877,-0.3732844,1.530125,-0.2756115,-0.01658895,1.535619,0.3612993,-0.04575077,1.551627,NA,NA,Closed,Closed,
0.01513672,-0.9194336,-0.07177734,0.009765625,0.8886719,-0.0078125,-4,-1,-5,11,1,-6,1,-1,9,24,8,1,11,4,-8,-2,-8.1875,-8.1875,-8.1875,-2.375,-2.375,-2.375,2.220249,5.15624,3.092731,7.61344,5.142906,9.784326,-0.1621214,-0.07356861,1.260256,0.2714407,-0.06740512,1.270217,0.06256884,0.3974899,1.55247,-0.1229296,-0.08908521,1.28875,0.2339745,-0.09195001,1.280506,0.06031456,-0.05944112,1.58738,0.06045197,-0.3818635,1.568413,-0.1130193,0.1368908,1.577043,-0.02310042,-0.3732968,1.530105,-0.2780474,-0.01358017,1.533255,0.3612259,-0.04560323,1.551374,NA,NA,Closed,Closed,
0.02148438,-0.9799805,-0.09082031,-0.01220703,0.9560547,-0.04101563,-14,-4,10,4,2,9,0,-2,-5,-12,0,-1,-5,0,-3,0,-3.875,-3.875,-3.875,0.625,0.625,0.625,2.221416,5.150613,3.094363,7.610122,5.136533,9.775305,-0.1631573,-0.07535253,1.257234,0.2714022,-0.06459751,1.269409,0.06261132,0.3974603,1.552258,-0.1246496,-0.07872744,1.260125,0.2348455,-0.06693409,1.299091,0.06034379,-0.05947959,1.587324,0.06044377,-0.3818718,1.568395,-0.1130463,0.136897,1.577054,-0.02311923,-0.3733242,1.530036,-0.2782056,-0.01342525,1.533255,0.3611993,-0.04540034,1.55105,NA,NA,Closed,Closed,
-0.01611328,-1.007813,-0.1186523,-0.05712891,1.018555,-0.06542969,-15,4,3,-3,-3,-1,-2,-5,6,4,-7,0,-8,-7,0,3,7.1875,7.1875,7.1875,-2.4375,-2.4375,-2.4375,2.231894,5.14103,3.09841,7.607921,5.128971,9.770419,-0.1617447,-0.07363591,1.259694,0.2721334,-0.06625877,1.270136,0.06267548,0.3974156,1.552181,-0.1267072,-0.05379897,1.2598,0.2341486,-0.08230376,1.287266,0.06040965,-0.05954418,1.587303,0.06043139,-0.3818942,1.568378,-0.1131266,0.1368574,1.577168,-0.02312528,-0.3733591,1.53002,-0.2547299,-0.03703875,1.539608,0.3609502,-0.04505943,1.550763,NA,NA,Closed,Unknown,
-0.06640625,-1.004395,-0.1694336,-0.08300781,1.021484,-0.07128906,-8,-1,-7,1,3,5,4,-4,0,9,-13,-3,1,-1,-1,2,3.875,3.875,3.875,-2.0625,-2.0625,-2.0625,2.238749,5.135982,3.100146,7.606623,5.127013,9.768631,-0.1621774,-0.07352576,1.260684,0.2714524,-0.06607197,1.273526,0.06268018,0.3974186,1.552175,-0.1224446,-0.09595141,1.272667,0.2352453,-0.08484524,1.286522,0.06039297,-0.05952333,1.587299,0.06039262,-0.3818515,1.568401,-0.1131823,0.1369457,1.577232,-0.02316199,-0.3733226,1.530029,-0.2742123,-0.01708344,1.529169,0.3607958,-0.04476099,1.550781,NA,NA,Closed,Closed,
-0.08691406,-1.030762,-0.1674805,-0.1103516,1.008301,-0.06103516,1,-6,-22,-14,-2,6,0,-1,3,1,-3,0,0,1,-2,6,3,3,3,-0.4375,-0.4375,-0.4375,2.241114,5.133593,3.09849,7.605254,5.126265,9.767342,-0.1601868,-0.07463443,1.263906,0.2712213,-0.06754467,1.269824,0.06267355,0.3973638,1.552047,-0.1171959,-0.09609771,1.3735,0.2349535,-0.09248414,1.275571,0.06037722,-0.05952575,1.587287,0.06036022,-0.3818537,1.568394,-0.1131946,0.1369469,1.577236,-0.02319662,-0.3733337,1.530013,-0.2788666,-0.01271873,1.532992,0.3597854,-0.0454383,1.551668,NA,NA,Closed,Closed,
-0.09716797,-1.003906,-0.1865234,-0.1103516,1.015625,-0.05664063,5,1,3,3,4,-13,-1,3,-3,-7,-5,-2,0,-1,3,4,1.6875,1.6875,1.6875,0.9375,0.9375,0.9375,2.242979,5.131957,3.094187,7.605505,5.129938,9.765512,-0.1588148,-0.0740308,1.2627,0.2721376,-0.06734417,1.27176,0.06268599,0.3973759,1.55205,-0.1200558,-0.09832311,1.304,0.2349403,-0.09224671,1.275691,0.06038073,-0.05951811,1.587281,0.06035729,-0.3818354,1.568395,-0.113188,0.1369519,1.577268,-0.02320254,-0.3733132,1.530006,-0.2789569,-0.0125708,1.532836,0.3596997,-0.04532298,1.551635,NA,NA,Closed,Closed,
-0.09033203,-1.020996,-0.1689453,-0.09375,0.9946289,-0.04736328,0,0,4,1,-1,0,2,1,1,2,1,1,-1,-1,-5,-1,-3.125,-3.125,-3.125,-1.5,-1.5,-1.5,2.241132,5.132368,3.091469,7.603691,5.136516,9.762878,-0.1582524,-0.07453823,1.263421,0.2714783,-0.06658904,1.272449,0.06269583,0.3973875,1.552032,-0.1197338,-0.0977685,1.306576,0.2349524,-0.08728679,1.281885,0.06037271,-0.05952183,1.587282,0.06035954,-0.381832,1.568397,-0.113205,0.1370075,1.577315,-0.02320084,-0.3733092,1.530009,-0.2831739,-0.008422823,1.53759,0.3595814,-0.04529652,1.551625,NA,NA,Closed,Closed,
-0.07910156,-1.024414,-0.1318359,-0.0625,0.9697266,-0.01220703,-2,-2,-4,1,0,1,1,-3,-3,-2,0,1,1,-3,0,2,2.75,2.75,2.75,-8.875,-8.875,-8.875,2.242607,5.135966,3.086041,7.593368,5.142193,9.759303,-0.1578156,-0.07619527,1.262826,0.2719084,-0.06686756,1.271389,0.06270723,0.3973687,1.552123,-0.1193611,-0.06879686,1.271572,0.2322661,-0.06648265,1.30875,0.06039036,-0.0596349,1.587265,0.06034914,-0.3818793,1.568371,-0.1132508,0.1369073,1.577437,-0.02321403,-0.373379,1.529965,-0.2832874,-0.008419222,1.537574,0.3618416,-0.04094935,1.510361,NA,NA,Closed,Closed,
-0.03857422,-0.9780273,-0.1108398,-0.03710938,0.9360352,0.015625,-4,-3,-2,-1,1,4,-9,0,-10,-2,-1,-2,-2,-11,-1,-5,10.9375,10.9375,10.9375,-24.5625,-24.5625,-24.5625,2.254612,5.139743,3.08379,7.566855,5.139964,9.755913,-0.1565824,-0.07347623,1.262054,0.2705026,-0.06506062,1.271696,0.06271736,0.3973112,1.552143,-0.1205579,-0.1005299,1.269429,0.2327949,-0.08003305,1.281091,0.06040721,-0.05964996,1.587274,0.06034675,-0.3818833,1.568369,-0.1132378,0.1369233,1.577464,-0.02321643,-0.3733834,1.529957,-0.2851349,-0.008432218,1.536794,0.3594329,-0.04513187,1.551098,NA,NA,Closed,Closed,
-0.02734375,-0.965332,-0.07958984,-0.03076172,0.9306641,0.03857422,-1,-1,5,-2,-4,-7,-12,-2,13,2,2,-1,-1,0,0,1,16.25,16.25,16.25,-34.1875,-34.1875,-34.1875,2.266194,5.139907,3.084565,7.544895,5.135438,9.751742,-0.15432,-0.07353965,1.262507,0.2695084,-0.06355523,1.273076,0.0627173,0.3972559,1.552204,-0.1145194,-0.09678451,1.285,0.2321238,-0.07634517,1.291471,0.06043189,-0.05971526,1.58734,0.06037489,-0.3819437,1.568466,-0.1132271,0.1368763,1.577554,-0.02320008,-0.3734464,1.530032,-0.2854842,-0.009190541,1.536512,0.3593262,-0.0450784,1.551903,NA,NA,Closed,Closed,
0.05371094,-0.9121094,0.06640625,0.03515625,0.8071289,0.1162109,-3,-4,-1,-2,-3,-9,-31,-14,4,1,1,1,1,3,-5,-8,69.6875,69.6875,69.6875,-77.9375,-77.9375,-77.9375,2.385472,5.111002,3.12276,7.381945,5.077575,9.697812,-0.1497909,-0.07545079,1.265231,0.2654123,-0.06606013,1.271891,0.06271928,0.3972823,1.552278,-0.1081633,-0.07807074,1.289182,0.2226109,-0.0691689,1.2837,0.06043517,-0.05971408,1.587435,0.06040934,-0.381939,1.568543,-0.1133278,0.1369073,1.577615,-0.02314751,-0.3734669,1.530128,-0.2828488,-0.01274016,1.53387,0.3589665,-0.04490075,1.552672,NA,NA,Closed,Unknown,
0.08886719,-0.855957,0.09814453,0.04931641,0.7729492,0.1181641,1,-2,-2,0,-3,0,-1,7,2,6,-1,-2,1,4,0,-9,111.875,111.875,111.875,-77.5,-77.5,-77.5,2.504898,5.066974,3.165071,7.336528,5.050028,9.677387,-0.1470086,-0.08067118,1.270379,0.2638492,-0.07231253,1.277201,0.06267064,0.3973955,1.552248,-0.1076059,-0.07205126,1.291,0.2273078,-0.06888483,1.296862,0.06045266,-0.05963717,1.587433,0.06043238,-0.3818015,1.568656,-0.1133517,0.1369795,1.57761,-0.02312784,-0.3733493,1.530244,-0.281821,-0.01474792,1.532438,0.3889879,-0.01658229,1.525915,NA,NA,Unknown,Unknown,
0.04882813,-0.7988281,0.08447266,0.02685547,0.8164063,0.1064453,-6,-3,-1,-1,-2,-6,1,-12,4,-3,-7,-2,-2,5,1,-5,135,135,135,-85.75,-85.75,-85.75,2.581063,5.033435,3.188087,7.245456,4.971346,9.6404,-0.14557,-0.09083921,1.276347,0.2631626,-0.08212421,1.281036,0.0626549,0.3974609,1.552207,-0.1037953,-0.07745827,1.2866,0.2259148,-0.07219762,1.289843,0.06035063,-0.05949691,1.587391,0.06035338,-0.3816992,1.568737,-0.1134472,0.1373528,1.577421,-0.02320407,-0.3732441,1.530334,-0.2770555,-0.01925598,1.531256,0.3843819,-0.02185699,1.53054,NA,NA,Unknown,Unknown,
0.03955078,-0.7709961,0.06787109,0.05078125,0.9067383,0.1748047,0,0,-1,-3,0,3,12,6,-15,-4,-24,-2,-2,-5,-2,-8,135.75,135.75,135.75,-100.125,-100.125,-100.125,2.733538,4.938623,3.240729,7.140807,4.858578,9.608121,-0.1454381,-0.113016,1.26705,0.2616969,-0.09614893,1.284076,0.06255001,0.3975979,1.552231,-0.09574524,-0.1016226,1.271,0.2594691,-0.1308312,1.28675,0.06033816,-0.05940134,1.587391,0.06034837,-0.3816257,1.568899,-0.1134704,0.1375018,1.577307,-0.02321749,-0.3731909,1.530503,-0.2613926,-0.03140619,1.544122,0.3838789,-0.02458499,1.54852,NA,NA,Unknown,Unknown,
0.04052734,-0.8212891,0.08007813,0.07519531,0.8305664,0.2050781,-4,-2,-1,1,-5,-6,-2,-4,2,-5,15,-1,-1,-3,0,5,125,125,125,-88.1875,-88.1875,-88.1875,2.800716,4.880414,3.270476,7.043253,4.719656,9.577567,-0.1445086,-0.1271042,1.284583,0.2606478,-0.1153103,1.289036,0.06250387,0.3978113,1.552193,-0.1034963,-0.1029429,1.279433,0.2925147,-0.12929,1.2635,0.06026063,-0.05928893,1.587354,0.06030918,-0.3815405,1.569013,-0.1133821,0.1377549,1.577172,-0.02325288,-0.3731101,1.530558,-0.2167823,-0.06211396,1.572609,0.374465,-0.02098518,1.652124,NA,NA,Unknown,Closed,
0.1606445,-0.953125,0.2226563,0.2133789,0.8408203,0.2705078,0,0,-1,-1,0,1,-5,-3,-2,0,6,0,0,3,4,6,84.9375,84.9375,84.9375,-55.4375,-55.4375,-55.4375,2.945296,4.68185,3.369741,6.977342,4.558495,9.552554,-0.1504167,-0.1545252,1.289262,0.2614166,-0.1370326,1.296613,0.0624149,0.397959,1.552162,-0.1228768,-0.1205529,1.282917,0.2917799,-0.1566517,1.271445,0.0602094,-0.05925725,1.587306,0.06023325,-0.3815312,1.569101,-0.1134022,0.1377959,1.577108,-0.02333228,-0.3730761,1.530626,-0.228417,-0.0541037,1.584925,0.3667034,-0.03717454,1.58767,NA,NA,Unknown,Closed,
0.2822266,-0.8920898,0.1835938,0.2192383,0.8461914,0.2666016,-2,1,-1,0,1,0,-8,-3,-8,-2,1,0,-1,1,0,0,53.5,53.5,53.5,-33.75,-33.75,-33.75,3.000978,4.519282,3.42222,6.961967,4.475002,9.542315,-0.1510451,-0.1823924,1.296897,0.2631917,-0.1618071,1.306233,0.06235635,0.3980439,1.55214,-0.1183537,-0.1472934,1.276429,0.2916269,-0.1708084,1.272,0.06016965,-0.05921873,1.587247,0.06023221,-0.3815242,1.569131,-0.1133907,0.1378001,1.577098,-0.02334082,-0.373064,1.530645,-0.2255597,-0.05566239,1.585939,0.3569531,-0.04363472,1.588389,NA,NA,Unknown,Closed,
0.3466797,-0.9125977,0.1650391,0.4458008,0.9472656,0.2363281,-2,-1,-2,-1,0,2,6,2,2,-2,-2,-1,-1,0,2,2,28,28,28,15.4375,15.4375,15.4375,3.009674,4.430673,3.439232,6.977987,4.305892,9.522927,-0.1576713,-0.2389054,1.320436,0.2648469,-0.2214963,1.318287,0.06216596,0.3982756,1.551944,-0.1209577,-0.2156259,1.295308,0.2463438,-0.1891074,1.308071,0.05994938,-0.05917237,1.586859,0.06017287,-0.3815587,1.569181,-0.1132692,0.1378377,1.576894,-0.0234064,-0.3730709,1.530669,-0.1966259,-0.06909964,1.591549,0.3228737,-0.0626363,1.590207,NA,NA,Unknown,Closed,
0.5029297,-1.069824,0.1806641,0.4931641,0.9418945,0.2773438,-2,-2,-3,-2,-3,0,-3,-4,-6,0,2,0,-2,-1,-1,-8,-7,-7,-7,11.6875,11.6875,11.6875,2.973134,4.173673,3.484426,6.99737,4.146471,9.512405,-0.1607974,-0.2627351,1.337041,0.2679986,-0.2472149,1.334013,0.06204366,0.3984469,1.551825,-0.1178936,-0.2550097,1.3085,0.2359338,-0.2401224,1.288,0.0599235,-0.059095,1.586713,0.06016801,-0.3815572,1.569204,-0.1131143,0.1379238,1.576634,-0.02341981,-0.373055,1.530684,-0.1932853,-0.07028498,1.591403,0.320525,-0.06377349,1.59014,NA,NA,Unknown,Closed,
0.6376953,-0.9760742,0.315918,0.7070313,0.9248047,0.2617188,-1,0,-1,2,-1,0,7,3,8,-3,-2,-1,-2,0,0,0,10.5,10.5,10.5,19.125,19.125,19.125,2.965183,4.015671,3.510324,7.02889,3.997082,9.497076,-0.1644171,-0.2841284,1.354014,0.2712599,-0.271257,1.349308,0.06181569,0.3988211,1.551566,-0.1389239,-0.3230756,1.335286,0.2877016,-0.2539221,1.309778,0.05985381,-0.05902545,1.586624,0.06016822,-0.3815623,1.569308,-0.1130174,0.1380859,1.576494,-0.02341894,-0.3730512,1.530756,-0.1899377,-0.07138713,1.59123,0.3173348,-0.06514661,1.589862,NA,NA,Unknown,Unknown,
0.5756836,-0.8491211,0.2792969,0.6816406,0.7910156,0.2275391,0,-1,-1,-2,0,-4,-3,-1,-5,-1,14,1,-1,-1,-2,-1,15.75,15.75,15.75,0.8125,0.8125,0.8125,2.963425,3.946417,3.528205,7.041007,3.875626,9.480365,-0.1686484,-0.3018819,1.370816,0.2738727,-0.2910359,1.362767,0.06166423,0.3991609,1.551528,-0.124502,-0.3119885,1.336,0.2680599,-0.2690026,1.327667,0.05979948,-0.05889029,1.586468,0.06016366,-0.3815258,1.569371,-0.1130908,0.1381862,1.576446,-0.02342501,-0.3730237,1.530802,-0.188621,-0.07174858,1.591529,0.3134648,-0.06628638,1.590358,NA,NA,Unknown,Unknown,
0.6860352,-0.7919922,0.2602539,0.7070313,0.7524414,0.2280273,-2,-1,-1,-3,0,4,-1,0,-5,1,-11,-3,-2,0,2,1,-1.875,-1.875,-1.875,20,20,20,2.937049,3.816333,3.575873,7.0722,3.772104,9.460938,-0.1719103,-0.318355,1.384292,0.2754444,-0.3092761,1.376753,0.06153825,0.3994396,1.551333,-0.1485634,-0.3612302,1.385636,0.2690904,-0.2897455,1.336405,0.0597069,-0.0587697,1.586304,0.06016034,-0.3815138,1.569463,-0.1130423,0.1383221,1.576126,-0.02342389,-0.3730112,1.530839,-0.1875571,-0.07394687,1.591513,0.3106043,-0.0675673,1.58954,NA,NA,Unknown,Unknown,
0.7436523,-0.8242188,0.2802734,0.7011719,0.7900391,0.1826172,0,-1,-1,-3,-5,-7,-2,-1,0,-5,-6,-1,-2,0,-2,-1,-4.625,-4.625,-4.625,12.125,12.125,12.125,2.920495,3.763088,3.598165,7.11018,3.690791,9.433688,-0.1763068,-0.3311872,1.399236,0.2716555,-0.3224514,1.399088,0.06137438,0.4000902,1.551137,-0.1620142,-0.3771639,1.406286,0.2712615,-0.3035114,1.346559,0.05962191,-0.05864125,1.586167,0.0601292,-0.3815131,1.569577,-0.1130158,0.1384551,1.576038,-0.0234566,-0.3730043,1.530897,-0.1868047,-0.07780389,1.591549,0.307224,-0.06913701,1.588772,NA,NA,Unknown,Unknown,
0.7280273,-0.6855469,0.190918,0.6982422,0.7216797,0.1679688,0,1,0,-3,-1,-3,-2,-1,3,-4,-3,0,0,0,0,1,11.375,11.375,11.375,-0.25,-0.25,-0.25,2.879748,3.630166,3.676081,7.123956,3.653623,9.41514,-0.1782489,-0.3461573,1.404563,0.265275,-0.3364199,1.417466,0.06127938,0.4002768,1.550959,-0.2110925,-0.3443964,1.394818,0.296653,-0.3231761,1.352714,0.05960575,-0.05860884,1.586058,0.06012804,-0.381548,1.569645,-0.1130349,0.1384855,1.575914,-0.0234622,-0.3730336,1.530981,-0.185996,-0.08325963,1.591577,0.3058559,-0.07481534,1.588287,NA,NA,Unknown,Closed,
0.7626953,-0.6225586,0.1518555,0.7143555,0.6103516,0.1655273,1,-2,-3,-1,1,3,0,-1,2,-3,-1,-2,-1,-3,-3,-1,7.875,7.875,7.875,0.75,0.75,0.75,2.843711,3.544579,3.738251,7.155052,3.578143,9.369991,-0.1846112,-0.3491024,1.415096,0.2608203,-0.3485335,1.433438,0.06119336,0.4004261,1.550882,-0.175423,-0.4013948,1.427,0.2938921,-0.2969319,1.3964,0.0595989,-0.05859286,1.586032,0.06014723,-0.3816273,1.569829,-0.1130573,0.1384912,1.575873,-0.02342496,-0.3731115,1.531145,-0.185202,-0.08878757,1.591272,0.3045198,-0.0814397,1.58794,NA,NA,Unknown,Closed,
0.7832031,-0.5874023,0.1259766,0.7373047,0.5742188,0.128418,0,0,-1,-1,-1,-6,-4,1,2,5,1,0,-1,1,1,1,-1.5625,-1.5625,-1.5625,14.6875,14.6875,14.6875,2.811764,3.500744,3.777195,7.219268,3.503614,9.303372,-0.1857322,-0.3626637,1.422482,0.2831161,-0.3500341,1.412637,0.06116759,0.4005055,1.550723,-0.2070972,-0.3741778,1.416734,0.2707482,-0.3397887,1.372667,0.05957321,-0.05864729,1.585917,0.06011229,-0.3817556,1.569962,-0.1130705,0.1384695,1.575866,-0.02344944,-0.3732565,1.531272,-0.1844463,-0.09291338,1.590239,0.3039212,-0.08556578,1.587202,NA,NA,Unknown,Unknown,
0.8388672,-0.5161133,0.07373047,0.8017578,0.5371094,0.08154297,-1,-1,-1,0,-2,2,-1,2,-3,-1,1,-1,1,-1,-1,-1,-18.625,-18.625,-18.625,20.75,20.75,20.75,2.716154,3.41285,3.874247,7.317756,3.426071,9.209201,-0.1885707,-0.3750226,1.429723,0.2850056,-0.3581717,1.419872,0.06112089,0.4005613,1.550533,-0.1862379,-0.4138016,1.451188,0.2717828,-0.3487798,1.379636,0.05962807,-0.0587141,1.585755,0.06010199,-0.3819031,1.570014,-0.1130924,0.1383969,1.57581,-0.0234636,-0.3733778,1.531339,-0.183066,-0.09759264,1.588503,0.3028294,-0.09124133,1.586252,NA,NA,Unknown,Unknown,
0.8681641,-0.5219727,0.0625,0.8916016,0.5068359,0.0390625,-1,0,-1,0,1,3,2,0,-6,-14,-6,0,-1,0,1,-1,-23.875,-23.875,-23.875,23.875,23.875,23.875,2.65468,3.370214,3.931386,7.444355,3.347167,9.08889,-0.1939237,-0.3942572,1.448159,0.2914854,-0.3773543,1.435644,0.0611243,0.4006146,1.550382,-0.2245222,-0.3949237,1.437238,0.2793102,-0.3703561,1.396146,0.05963589,-0.05873379,1.585734,0.06018685,-0.3821681,1.570387,-0.113122,0.1383046,1.575833,-0.02332934,-0.3736259,1.531723,-0.1813711,-0.1043456,1.584777,0.3005118,-0.09812373,1.58344,NA,NA,NotTracked,Unknown,
0.9824219,-0.5014648,-0.003417969,0.9375,0.4926758,0.001464844,-1,-2,-3,-2,-2,-4,0,0,0,-4,-1,-1,-1,-1,0,-1,-19.125,-19.125,-19.125,23.0625,23.0625,23.0625,2.438934,3.259539,4.138962,7.517696,3.310737,9.019238,-0.1963303,-0.4012781,1.457918,0.294994,-0.3861811,1.443641,0.06114363,0.4006831,1.550306,-0.2276881,-0.3846635,1.464529,0.2788227,-0.3821362,1.4045,0.05964436,-0.05873905,1.585728,0.06026957,-0.3822738,1.570577,-0.1132035,0.1382107,1.575819,-0.0232181,-0.3737319,1.531905,-0.1798083,-0.1090049,1.582896,0.2982976,-0.1035568,1.581022,NA,NA,NotTracked,NotTracked,
1.02002,-0.4628906,-0.08691406,0.9897461,0.4833984,-0.08300781,0,0,-2,-1,1,-4,0,0,6,3,1,0,0,-1,-2,1,-11.4375,-11.4375,-11.4375,4.125,4.125,4.125,2.295866,3.211085,4.281131,7.665353,3.254346,8.865545,-0.197682,-0.4084679,1.463637,0.2980514,-0.394598,1.450698,0.06115088,0.4007568,1.550201,-0.1976703,-0.4439041,1.484267,0.2915231,-0.3889986,1.411694,0.0596562,-0.05873637,1.585709,0.0603231,-0.3823504,1.570657,-0.1132721,0.1380902,1.575805,-0.02313532,-0.3738213,1.531986,-0.1780189,-0.111459,1.581641,0.2963813,-0.1068232,1.578867,NA,NA,NotTracked,NotTracked,
1.020508,-0.4746094,-0.1088867,1.004883,0.4223633,-0.1635742,0,-1,-1,-2,-4,-4,0,-1,-1,-3,1,-2,-1,0,-1,-3,-7.4375,-7.4375,-7.4375,-19.1875,-19.1875,-19.1875,2.241076,3.196081,4.336592,7.772225,3.21974,8.730745,-0.1985705,-0.4101301,1.469066,0.3000395,-0.4005935,1.457692,0.06119757,0.4008606,1.550001,-0.1988279,-0.4476017,1.491699,0.2671551,-0.4114944,1.430709,0.05967457,-0.05872877,1.585706,0.06047191,-0.382427,1.570781,-0.1133316,0.1380253,1.575749,-0.02298053,-0.3738832,1.53206,-0.1767866,-0.1123204,1.581165,0.294336,-0.1103987,1.577027,NA,NA,NotTracked,NotTracked,
0.972168,-0.4638672,-0.105957,0.9633789,0.4160156,-0.1645508,-1,0,0,-1,4,12,2,-1,-6,-1,-2,-2,-2,-2,-2,-2,4.0625,4.0625,4.0625,-9.375,-9.375,-9.375,2.197193,3.178095,4.386918,7.818407,3.202134,8.665563,-0.1980728,-0.4123704,1.472118,0.3027289,-0.4044471,1.463429,0.06122161,0.4009057,1.550021,-0.1973327,-0.449094,1.495,0.2701901,-0.4142727,1.4385,0.05975263,-0.0587431,1.585698,0.06059337,-0.3824992,1.570971,-0.1133986,0.1380112,1.575779,-0.0228662,-0.3739385,1.532187,-0.1757935,-0.1138303,1.581112,0.2929852,-0.1129395,1.576213,NA,NA,NotTracked,NotTracked,
0.972168,-0.4638672,-0.105957,0.9204102,0.4506836,-0.09277344,-1,-1,-1,-2,-1,1,-3,-2,0,-3,-1,1,0,1,1,1,4.0625,4.0625,4.0625,4.375,4.375,4.375,2.197193,3.178095,4.386918,7.814111,3.200253,8.673171,-0.1964698,-0.4130871,1.472602,0.3033951,-0.4067034,1.465979,0.06124064,0.4009435,1.549995,-0.196526,-0.4471808,1.491513,0.2677466,-0.448804,1.431714,0.05976336,-0.05874057,1.585691,0.06065674,-0.3825518,1.571085,-0.1135011,0.1379192,1.575818,-0.02277987,-0.3739929,1.532301,-0.1751196,-0.1147336,1.581078,0.2923088,-0.114175,1.57578,NA,NA,NotTracked,NotTracked,
0.9072266,-0.4633789,-0.04589844,0.8676758,0.4599609,-0.04785156,-2,0,-1,-1,-2,-2,-3,-1,0,1,0,-1,-1,0,-1,-1,0.5625,0.5625,0.5625,10.125,10.125,10.125,2.272135,3.18913,4.30837,7.788055,3.207856,8.711597,-0.1942375,-0.4123569,1.47039,0.3031633,-0.4071982,1.466088,0.06128528,0.4009616,1.549921,-0.1958061,-0.4461076,1.489633,0.2957128,-0.4118527,1.425667,0.05982327,-0.05881234,1.585595,0.06070868,-0.3827173,1.571142,-0.1135269,0.1378124,1.575757,-0.0227158,-0.3741578,1.532324,-0.1744929,-0.1154644,1.581323,0.2919248,-0.1152561,1.575755,NA,NA,NotTracked,NotTracked,
0.8828125,-0.4599609,-0.03271484,0.8334961,0.4790039,-0.02685547,-2,0,-1,-1,-1,-3,-2,-1,-3,-6,-3,-1,0,-3,-1,-1,-5.625,-5.625,-5.625,9.125,9.125,9.125,2.330483,3.205192,4.239361,7.770663,3.22002,8.74183,-0.1922666,-0.4118246,1.467994,0.3027592,-0.4073999,1.466381,0.06137689,0.4008875,1.549794,-0.1932712,-0.4453741,1.48933,0.2692117,-0.4209064,1.439541,0.05984665,-0.05888654,1.585527,0.06075381,-0.3828345,1.571166,-0.1135513,0.1377369,1.575749,-0.02266318,-0.3742442,1.53232,-0.1742662,-0.1158561,1.581574,0.2920188,-0.1166815,1.575892,NA,NA,NotTracked,NotTracked,
0.8662109,-0.4628906,-0.03564453,0.8447266,0.4633789,-0.01855469,0,-2,-1,1,-1,-2,-1,1,2,8,-1,0,0,-1,-1,-1,-6.8125,-6.8125,-6.8125,-3,-3,-3,2.354081,3.214566,4.209196,7.758286,3.230801,8.753745,-0.1901925,-0.4102708,1.467182,0.302616,-0.4062243,1.466134,0.06141983,0.4008819,1.549758,-0.1902522,-0.4440849,1.491861,0.2709322,-0.4121226,1.439826,0.05988268,-0.05894561,1.585508,0.06081915,-0.3829757,1.571246,-0.1135626,0.1375989,1.57579,-0.02258614,-0.3744159,1.532409,-0.1741534,-0.1162396,1.582035,0.2921481,-0.117527,1.576248,NA,NA,NotTracked,NotTracked,
0.8662109,-0.4628906,-0.03564453,0.8447266,0.4633789,-0.01855469,0,-2,-1,1,-1,-2,-1,1,2,8,-1,0,0,-1,-1,-1,-6.8125,-6.8125,-6.8125,-3,-3,-3,2.354081,3.214566,4.209196,7.758286,3.230801,8.753745,-0.1893861,-0.4094726,1.464192,0.303115,-0.4057197,1.465213,0.06147739,0.4008999,1.549718,-0.1902583,-0.4417269,1.489113,0.2870852,-0.3964595,1.429179,0.05989929,-0.05895888,1.585493,0.06080907,-0.3830243,1.571279,-0.1135784,0.1374864,1.575826,-0.02258299,-0.3744719,1.532447,-0.1740384,-0.1165465,1.582403,0.2921981,-0.1177753,1.576532,NA,NA,NotTracked,NotTracked,
0.8691406,-0.4467773,-0.03564453,0.8530273,0.4272461,-0.03466797,-3,-2,0,0,-1,-2,0,-1,-1,-1,-2,-1,0,-1,0,1,-5.75,-5.75,-5.75,-7.8125,-7.8125,-7.8125,2.403533,3.240009,4.142028,7.754849,3.233823,8.752304,-0.1883879,-0.4059441,1.461255,0.3039221,-0.4044291,1.463913,0.06158742,0.4008905,1.549568,-0.1886016,-0.4405964,1.487094,0.3007697,-0.3879798,1.425947,0.05992034,-0.05900864,1.585449,0.06083595,-0.3830856,1.57131,-0.1136126,0.1374039,1.575814,-0.02254919,-0.3745118,1.532472,-0.1740454,-0.1164923,1.582418,0.2922164,-0.1178696,1.576729,NA,NA,NotTracked,NotTracked,
0.8789063,-0.4384766,-0.02880859,0.8686523,0.3911133,-0.05224609,-1,-2,0,-1,0,0,-3,0,-1,1,-1,-2,0,0,0,-1,-7.625,-7.625,-7.625,-5.9375,-5.9375,-5.9375,2.417386,3.251861,4.11807,7.755274,3.237027,8.742386,-0.1886174,-0.4052877,1.459934,0.30457,-0.4030164,1.463595,0.06164518,0.4009151,1.549513,-0.1737171,-0.4387727,1.471696,0.2981413,-0.389787,1.426604,0.05996349,-0.0590113,1.585438,0.06083931,-0.3830979,1.57135,-0.113667,0.137393,1.575886,-0.02253674,-0.3745227,1.532514,-0.1740675,-0.1164818,1.582462,0.2922625,-0.1178101,1.576898,NA,NA,NotTracked,NotTracked,
0.8808594,-0.4399414,-0.02636719,0.8876953,0.3999023,-0.05273438,-1,-2,-1,-1,0,-1,-2,-4,1,0,0,0,-3,0,-1,0,-7.25,-7.25,-7.25,0.25,0.25,0.25,2.419181,3.255893,4.111354,7.760332,3.239864,8.735297,-0.1885389,-0.4043089,1.458628,0.3054887,-0.4023768,1.463249,0.06168675,0.4009365,1.549533,-0.1899825,-0.4353099,1.4932,0.2728238,-0.4175719,1.4336,0.05999561,-0.05901468,1.585453,0.06087261,-0.3831016,1.571457,-0.1137426,0.1373637,1.576037,-0.02249437,-0.374519,1.53262,-0.1741297,-0.1162803,1.582553,0.2923808,-0.1177033,1.577079,NA,NA,NotTracked,NotTracked,
0.890625,-0.4365234,-0.03466797,0.8867188,0.394043,-0.05615234,0,-1,-1,-1,0,0,-1,0,-3,1,-2,0,-1,-1,-1,-1,-4.5,-4.5,-4.5,0.5625,0.5625,0.5625,2.416579,3.260684,4.106927,7.76066,3.241793,8.735225,-0.1889826,-0.4044308,1.457236,0.3061707,-0.4018193,1.462092,0.06173223,0.4009413,1.549523,-0.1870602,-0.4381326,1.484858,0.3007301,-0.417496,1.420222,0.06003395,-0.05901666,1.585498,0.06089609,-0.3831123,1.571604,-0.1137897,0.1373786,1.576164,-0.02246011,-0.374539,1.532769,-0.1741575,-0.1162624,1.582593,0.2924993,-0.1177775,1.577161,NA,NA,NotTracked,NotTracked,
0.894043,-0.4262695,-0.04541016,0.8842773,0.3945313,-0.05322266,-1,-2,-1,0,-2,0,0,-1,-4,-8,-2,-2,-2,-1,-2,-1,-3.125,-3.125,-3.125,0.6875,0.6875,0.6875,2.413734,3.261637,4.107727,7.75633,3.241882,8.739783,-0.1889657,-0.4040268,1.455891,0.3064951,-0.4025256,1.460349,0.06179788,0.400933,1.549511,-0.1870911,-0.4381369,1.484936,0.2995068,-0.387396,1.423925,0.06007233,-0.05904197,1.585521,0.06092095,-0.3831532,1.571732,-0.1138294,0.1373478,1.576281,-0.02242754,-0.3745801,1.532895,-0.174237,-0.1160376,1.582469,0.2925363,-0.117744,1.577213,NA,NA,NotTracked,NotTracked,
0.8935547,-0.4208984,-0.04101563,0.8828125,0.3959961,-0.06494141,0,-2,-1,-1,0,0,-1,-1,2,5,0,0,0,0,-1,1,-5.625,-5.625,-5.625,0.75,0.75,0.75,2.404341,3.262331,4.108785,7.754806,3.241665,8.742186,-0.1893772,-0.4041069,1.45599,0.3059521,-0.4018002,1.461004,0.06190542,0.4009096,1.549541,-0.1886375,-0.4370916,1.487932,0.2969974,-0.3879697,1.42483,0.0601718,-0.05909958,1.585647,0.06101425,-0.3832153,1.571869,-0.1138611,0.1373442,1.576382,-0.0223299,-0.3746417,1.533029,-0.1744482,-0.1160701,1.582492,0.2926326,-0.1178766,1.577232,NA,NA,NotTracked,NotTracked,
0.8984375,-0.4296875,-0.03125,0.8730469,0.4067383,-0.05859375,0,1,0,0,-1,-1,0,-1,0,2,-2,-1,0,-3,2,0,-4.5,-4.5,-4.5,0.125,0.125,0.125,2.39923,3.262116,4.108639,7.748358,3.24077,8.749783,-0.189449,-0.4041669,1.454619,0.3053379,-0.4013573,1.460234,0.06199526,0.4008297,1.549572,-0.1881048,-0.4379177,1.478542,0.3002232,-0.3896559,1.423102,0.06018934,-0.05913734,1.585695,0.06100022,-0.3832628,1.571942,-0.1139043,0.1373107,1.576482,-0.0223366,-0.3746737,1.533096,-0.1747447,-0.1162678,1.582352,0.2926575,-0.1178798,1.57724,NA,NA,NotTracked,NotTracked,
0.8979492,-0.4331055,-0.02978516,0.8637695,0.4150391,-0.05859375,-1,-2,0,-3,-1,0,-2,-1,0,0,-2,-1,-2,0,-2,0,-3.1875,-3.1875,-3.1875,-0.4375,-0.4375,-0.4375,2.39706,3.261374,4.109029,7.742755,3.240029,8.754966,-0.1898478,-0.4042293,1.455347,0.3047329,-0.402127,1.460344,0.06210598,0.4007722,1.549658,-0.1891382,-0.4368733,1.492965,0.2965802,-0.3894945,1.424188,0.06025004,-0.0592122,1.58587,0.06104774,-0.3833826,1.572235,-0.1138898,0.1372761,1.576568,-0.02227725,-0.3747681,1.533319,-0.1747803,-0.116235,1.582336,0.292748,-0.1178262,1.577371,NA,NA,NotTracked,NotTracked,
0.894043,-0.425293,-0.03320313,0.875,0.418457,-0.05078125,-1,0,-2,-1,-3,-2,0,0,-5,-2,-1,-1,-2,0,-2,-1,-1.625,-1.625,-1.625,0.5,0.5,0.5,2.392997,3.258125,4.111459,7.742711,3.23809,8.755404,-0.1892941,-0.404341,1.455052,0.3040871,-0.4019849,1.460468,0.06226181,0.4006979,1.549717,-0.187774,-0.4382429,1.486661,0.2969633,-0.3923453,1.423951,0.06029648,-0.05929317,1.585952,0.06104036,-0.3834632,1.572376,-0.1139006,0.1372459,1.576738,-0.02226219,-0.3748519,1.533466,-0.1749048,-0.1162942,1.582254,0.292769,-0.1178289,1.577465,NA,NA,NotTracked,NotTracked,
0.890625,-0.4399414,-0.02734375,0.8745117,0.4282227,-0.06054688,-1,0,-2,0,0,-2,-2,-2,5,5,-2,-3,-2,-3,0,0,-2.0625,-2.0625,-2.0625,2.0625,2.0625,2.0625,2.390278,3.256546,4.11342,7.747429,3.235793,8.752147,-0.1893719,-0.4040714,1.456944,0.3028806,-0.4022118,1.461581,0.06261286,0.4006546,1.549919,-0.1871685,-0.4381822,1.485477,0.3021237,-0.3876591,1.42432,0.06045336,-0.05946677,1.586307,0.06122377,-0.3837028,1.572844,-0.1138811,0.1371718,1.576833,-0.0220801,-0.3750405,1.533853,-0.1751438,-0.1160864,1.582264,0.2928106,-0.1180523,1.577775,NA,NA,NotTracked,NotTracked,
0.890625,-0.4331055,-0.04443359,0.8759766,0.4174805,-0.06347656,-2,-1,-2,-1,-2,-1,0,-3,-5,-2,-1,0,0,-1,-1,-1,-1.875,-1.875,-1.875,-0.3125,-0.3125,-0.3125,2.381846,3.249954,4.119828,7.751382,3.233102,8.747846,-0.1888778,-0.4040301,1.457812,0.3029003,-0.4017554,1.462271,0.06274348,0.4006026,1.549933,-0.1878873,-0.4382733,1.486922,0.2988549,-0.3912309,1.424694,0.06058941,-0.05942124,1.586405,0.06140111,-0.3836318,1.573053,-0.1138294,0.1372438,1.576912,-0.02189772,-0.374993,1.534029,-0.1751229,-0.1159488,1.582294,0.2927611,-0.1180021,1.577936,NA,NA,NotTracked,NotTracked,
0.8896484,-0.4472656,-0.03271484,0.8779297,0.4311523,-0.05908203,-1,-1,-2,-1,-3,-1,-2,1,1,2,1,-1,0,-2,-1,-3,-3.25,-3.25,-3.25,0.75,0.75,0.75,2.376929,3.246397,4.121686,7.752738,3.231651,8.746309,-0.1889944,-0.4045854,1.459578,0.302334,-0.4018765,1.46321,0.06284555,0.4006581,1.549992,-0.189254,-0.438318,1.492616,0.2986557,-0.4174962,1.419697,0.06066168,-0.05939688,1.58655,0.06151978,-0.3836113,1.573319,-0.1138422,0.1372783,1.577046,-0.02176865,-0.3749492,1.534251,-0.1751797,-0.115893,1.582363,0.2927856,-0.118036,1.578072,NA,NA,NotTracked,NotTracked,
0.8930664,-0.449707,-0.03515625,0.8686523,0.4213867,-0.06201172,-1,-2,-2,-3,-1,-1,1,0,-1,0,-2,0,0,-1,-2,-2,-1.3125,-1.3125,-1.3125,0.8125,0.8125,0.8125,2.371845,3.240367,4.125216,7.753386,3.230996,8.74632,-0.1888805,-0.4052379,1.460211,0.3017713,-0.4022498,1.46417,0.06310567,0.4007125,1.550179,-0.2222728,-0.4025193,1.455381,0.2943801,-0.3909913,1.427495,0.06079249,-0.05942575,1.586807,0.06163384,-0.3836236,1.573655,-0.1137691,0.1373793,1.57717,-0.02164032,-0.3749041,1.534485,-0.1752294,-0.1159601,1.582618,0.2927449,-0.1181769,1.57868,NA,NA,NotTracked,NotTracked,
0.894043,-0.4462891,-0.04394531,0.8701172,0.421875,-0.05029297,0,-1,-1,1,1,0,-2,1,-2,-3,-3,-2,-1,-1,-1,-1,-1.875,-1.875,-1.875,0.875,0.875,0.875,2.367583,3.238516,4.127269,7.753894,3.230232,8.745698,-0.1884845,-0.4052282,1.460695,0.3012236,-0.4018719,1.464013,0.06327391,0.4006218,1.550309,-0.1863373,-0.4419818,1.483583,0.2913674,-0.4002373,1.424731,0.06085477,-0.05946037,1.586869,0.06169122,-0.3836251,1.573715,-0.113732,0.1373678,1.57728,-0.0215739,-0.374911,1.534539,-0.1752191,-0.11598,1.582652,0.2928029,-0.1182846,1.578985,NA,NA,NotTracked,NotTracked,
0.8886719,-0.4541016,-0.03955078,0.8710938,0.4189453,-0.06005859,0,-1,-1,0,-1,-2,0,-2,-4,-2,-2,-1,-1,0,-3,0,-1.0625,-1.0625,-1.0625,1.1875,1.1875,1.1875,2.365966,3.237967,4.128543,7.756264,3.228833,8.744502,-0.1883959,-0.4063118,1.462075,0.3012939,-0.4027214,1.465025,0.06338666,0.4005319,1.550417,-0.1866979,-0.4418612,1.485161,0.2964337,-0.4134146,1.423186,0.06097093,-0.05954706,1.586999,0.06175958,-0.3836922,1.573904,-0.1138349,0.1372573,1.577648,-0.02149138,-0.3749885,1.534716,-0.1751644,-0.1160138,1.582758,0.2928172,-0.1184094,1.579396,NA,NA,NotTracked,NotTracked,
0.8945313,-0.4438477,-0.04638672,0.8676758,0.4204102,-0.04736328,-3,-1,-1,-2,-2,-2,-1,1,-10,-1,-1,-2,-1,-2,0,0,0.4375,0.4375,0.4375,1.875,1.875,1.875,2.365966,3.237967,4.128543,7.758037,3.22774,8.743914,-0.1885424,-0.4060287,1.46283,0.3014077,-0.4023233,1.466027,0.06352209,0.400447,1.550559,-0.1863488,-0.4419768,1.483634,0.2958759,-0.3914377,1.428448,0.06107622,-0.05966602,1.587192,0.06182201,-0.3838106,1.574148,-0.1137908,0.1370981,1.577965,-0.02140215,-0.3751279,1.534954,-0.1750332,-0.1161672,1.582993,0.2928045,-0.1189069,1.579863,NA,NA,NotTracked,NotTracked,
0.8945313,-0.4418945,-0.04150391,0.875,0.4243164,-0.06005859,0,-1,0,-2,-1,-2,1,-2,-3,0,0,-1,-1,-1,-1,0,-0.3125,-0.3125,-0.3125,2.5625,2.5625,2.5625,2.36594,3.238042,4.128739,7.759443,3.227496,8.743433,-0.1884593,-0.4063413,1.462465,0.3012466,-0.4022325,1.465408,0.06365838,0.400442,1.550723,-0.1863648,-0.4418326,1.483768,0.2999242,-0.3912482,1.427148,0.06112395,-0.05968318,1.587284,0.06184666,-0.3838315,1.574228,-0.1137464,0.1370644,1.578025,-0.02136499,-0.3751662,1.535067,-0.1749207,-0.1163031,1.583195,0.2927965,-0.1190793,1.580156,NA,NA,NotTracked,NotTracked,
0.8974609,-0.449707,-0.03955078,0.8720703,0.4243164,-0.04785156,-1,-1,-1,0,0,-2,-1,-2,-2,-6,-2,-1,-1,-1,0,-1,0.5625,0.5625,0.5625,2.25,2.25,2.25,2.365299,3.238566,4.12765,7.761868,3.226522,8.743076,-0.1884457,-0.4057569,1.462874,0.3008154,-0.4021367,1.465922,0.06372908,0.400405,1.55074,-0.1863115,-0.4418987,1.483587,0.2995693,-0.4178993,1.423743,0.06118372,-0.05969746,1.587393,0.06188264,-0.383884,1.574356,-0.1137299,0.1370005,1.578154,-0.02131159,-0.3752309,1.535231,-0.1749377,-0.1163407,1.583256,0.2928249,-0.1190053,1.580381,NA,NA,NotTracked,NotTracked,
0.8974609,-0.449707,-0.03955078,0.8798828,0.4233398,-0.0546875,0,0,0,0,-1,-1,0,-2,2,0,0,0,-1,-1,0,-1,0.5625,0.5625,0.5625,1.25,1.25,1.25,2.365299,3.238566,4.12765,7.76393,3.225765,8.742188,-0.1881164,-0.4057239,1.462764,0.3007647,-0.4022326,1.465998,0.06374787,0.4004005,1.550782,-0.1863758,-0.4413574,1.485165,0.2954675,-0.3942337,1.428036,0.06119708,-0.05973286,1.587529,0.06195419,-0.3839782,1.574487,-0.1136899,0.1368881,1.578291,-0.02123771,-0.3753208,1.535344,-0.1748781,-0.1163889,1.583325,0.2927116,-0.1190624,1.580595,NA,NA,NotTracked,NotTracked,
0.8876953,-0.4375,-0.04003906,0.8754883,0.4174805,-0.05810547,-2,-2,-2,-1,-2,-1,-2,-1,-2,-3,1,-1,-1,-2,0,-1,-0.6875,-0.6875,-0.6875,0.9375,0.9375,0.9375,2.366222,3.238713,4.127702,7.764584,3.22556,8.741525,-0.1879835,-0.4056122,1.463088,0.3006865,-0.402095,1.466367,0.06378531,0.4004001,1.550828,-0.2213277,-0.4075364,1.465692,0.2874221,-0.3914721,1.431135,0.06128318,-0.05971561,1.587812,0.062024,-0.3839392,1.574765,-0.1137019,0.1369197,1.578489,-0.02115896,-0.375288,1.535598,-0.1748448,-0.1163912,1.583338,0.2926327,-0.1190677,1.580894,NA,NA,NotTracked,NotTracked,
0.8935547,-0.4384766,-0.03955078,0.8735352,0.421875,-0.05761719,-1,-1,-1,-1,-1,-2,0,0,-4,1,0,-2,-1,-1,1,-1,-0.375,-0.375,-0.375,0.3125,0.3125,0.3125,2.365475,3.239065,4.127875,7.764901,3.225694,8.741436,-0.1875385,-0.4054768,1.462943,0.3006571,-0.4024667,1.466918,0.06387019,0.4004527,1.550919,-0.186745,-0.4390663,1.4868,0.2988278,-0.3899148,1.428587,0.06131187,-0.05967868,1.587934,0.06207997,-0.3839067,1.574995,-0.1136457,0.1369648,1.578672,-0.02107306,-0.3752556,1.535943,-0.1748164,-0.1162926,1.583482,0.2926493,-0.1190614,1.581023,NA,NA,NotTracked,NotTracked,
0.8974609,-0.4379883,-0.04638672,0.8735352,0.4199219,-0.05712891,-1,-1,-2,-3,-1,-1,-1,-1,2,-2,1,-1,-1,-1,-1,1,0.0625,0.0625,0.0625,0.4375,0.4375,0.4375,2.364717,3.23864,4.12812,7.764818,3.226106,8.741026,-0.187879,-0.4059002,1.46393,0.3002668,-0.4024036,1.467334,0.06398343,0.4004296,1.551141,-0.1866505,-0.4400238,1.486621,0.2895202,-0.3913603,1.43055,0.06143531,-0.05970703,1.588182,0.06214428,-0.3839017,1.575305,-0.1136221,0.1369258,1.579011,-0.02100036,-0.3752387,1.536204,-0.1746249,-0.1165888,1.583904,0.2927049,-0.1192133,1.581524,NA,NA,NotTracked,NotTracked,
