ALX,ALY,ALZ,ARX,ARY,ARZ,EMG0L,EMG1L,EMG2L,EMG3L,EMG4L,EMG5L,EMG6L,EMG7L,EMG0R,EMG1R,EMG2R,EMG3R,EMG4R,EMG5R,EMG6R,EMG7R,GLX,GLY,GLZ,GRX,GRY,GRZ,ORL,OPL,OYL,ORR,OPR,OYR,LHNX,LHNY,LHNZ,RHNX,RHNY,RHNZ,HX,HY,HZ,LTX,LTY,LTZ,RTX,RTY,RTZ,SpineMidX,SpineMidY,SpineMidZ,SpineBaseX,SpineBaseY,SpineBaseZ,ShoulderLeftX,ShoulderLeftY,ShoulderLeftZ,ShoulderRightX,ShoulderRightY,ShoulderRightZ,ElbowLeftX,ElbowLeftY,ElbowLeftZ,ElbowRightX,ElbowRightY,ElbowRightZ,Myo_Pose_left,Myo_Pose_Right,Kinect_pose_left,Kinect_pose_right
0.8984375,-0.3920898,-0.1083984,-0.2275391,0.9428711,0.2714844,-1,-2,0,0,-1,2,-2,-2,-1,-3,-4,-11,1,-4,-2,0,2.25,2.25,2.25,0,0,0,1.97527,3.18365,6.211908,7.03767,5.34376,1.230109,-0.1565624,-0.473404,1.138997,-0.1057624,0.0530832,1.11132,0.07927722,0.3638762,1.207312,-0.1970772,-0.4586952,1.148833,-0.07922021,6.929612E-05,1.124741,0.05405689,-0.1144987,1.225956,0.03943785,-0.4493574,1.213162,-0.1212038,0.06835304,1.188809,-0.03196302,-0.4342442,1.186035,-0.1687032,-0.1874292,1.212774,0.2207925,-0.05526078,1.04691,NA,NA,NotTracked,NotTracked,
0.8974609,-0.3901367,-0.1103516,-0.222168,0.9365234,0.265625,-3,-2,-4,-1,0,1,2,2,127,127,127,127,123,127,127,127,-0.625,-0.625,-0.625,-0.4375,-0.4375,-0.4375,1.974705,3.184299,6.2152,7.038123,5.344058,1.230225,-0.1548187,-0.4758797,1.138807,-0.1062202,0.05327646,1.111797,0.0792102,0.3639084,1.207384,-0.1939157,-0.4547582,1.13025,-0.1517636,0.002747329,1.122111,0.05403339,-0.1144723,1.225961,0.03936885,-0.4492847,1.213137,-0.121336,0.06840592,1.188941,-0.0320382,-0.4341665,1.186024,-0.1686796,-0.1874207,1.212828,0.2203877,-0.05513811,1.046972,NA,NA,NotTracked,NotTracked,
0.8920898,-0.387207,-0.1137695,-0.2246094,0.9291992,0.2568359,2,-2,-2,-1,1,2,1,-1,-3,-4,0,3,0,-1,-3,-2,-0.5625,-0.5625,-0.5625,0.3125,0.3125,0.3125,1.975299,3.184332,6.214598,7.039844,5.343493,1.229449,-0.1547135,-0.4786117,1.137932,-0.1058912,0.05315743,1.112646,0.07910141,0.3639251,1.20749,-0.1910636,-0.4708015,1.129063,-0.08328823,-0.0006164851,1.126092,0.05399768,-0.1144783,1.225962,0.03927595,-0.4493115,1.213086,-0.1214048,0.06842451,1.189029,-0.03217135,-0.4342023,1.18594,-0.168667,-0.1874347,1.212822,0.2201217,-0.05518549,1.046849,NA,NA,NotTracked,NotTracked,
0.8959961,-0.3867188,-0.1098633,-0.2138672,0.9375,0.269043,1,-4,-2,-1,1,-3,0,-1,11,12,7,-4,-3,-2,0,-1,0.4375,0.4375,0.4375,0.6875,0.6875,0.6875,1.976603,3.185045,6.214723,7.041995,5.339047,1.226738,-0.1534055,-0.4781139,1.137492,-0.1059955,0.05310508,1.111761,0.07891625,0.3639872,1.207566,-0.1915122,-0.4659059,1.131572,-0.1530564,1.689831E-05,1.116667,0.05393168,-0.1144691,1.225973,0.03915884,-0.4493176,1.213051,-0.1214276,0.06840792,1.189068,-0.03228498,-0.4342079,1.185892,-0.1686436,-0.1874745,1.21278,0.2199156,-0.05531321,1.046813,NA,NA,NotTracked,NotTracked,
0.8945313,-0.3881836,-0.1147461,-0.2138672,0.9453125,0.2675781,-3,-2,0,-1,-2,0,-2,-3,-4,-7,-8,-12,-1,-2,-1,-1,-0.625,-0.625,-0.625,1.5,1.5,1.5,1.976087,3.18602,6.216951,7.044878,5.32865,1.229584,-0.1540864,-0.4780115,1.13836,-0.1061498,0.05201277,1.114188,0.07875834,0.3640154,1.207665,-0.1908417,-0.4775047,1.127313,-0.08012542,-0.00155614,1.126449,0.05391822,-0.1144593,1.225985,0.0391552,-0.4493099,1.213043,-0.1214923,0.06842984,1.189193,-0.03228492,-0.4341973,1.185894,-0.1687031,-0.1874568,1.212884,0.2196748,-0.05525155,1.04684,NA,NA,NotTracked,NotTracked,
0.8925781,-0.390625,-0.109375,-0.2573242,0.9609375,0.2729492,0,-1,-3,-2,0,0,1,-2,1,21,3,0,5,-3,-1,-1,-1.25,-1.25,-1.25,2.4375,2.4375,2.4375,1.977386,3.184972,6.215237,7.04861,5.322537,1.239203,-0.1560507,-0.4728225,1.138734,-0.1056611,0.05080253,1.114775,0.07869227,0.3640301,1.207731,-0.1900503,-0.4621303,1.126588,-0.08338006,-0.0008188059,1.127794,0.05389028,-0.1144291,1.226006,0.03914301,-0.4492695,1.213016,-0.1216495,0.06848059,1.189437,-0.03229725,-0.434175,1.185872,-0.1687242,-0.1874678,1.212927,0.2194607,-0.0551631,1.046926,NA,NA,NotTracked,NotTracked,
0.8959961,-0.3984375,-0.1074219,-0.2539063,0.9663086,0.2626953,-1,-3,0,-2,-1,1,1,-1,7,17,8,8,2,0,-1,1,-2.5,-2.5,-2.5,2.4375,2.4375,2.4375,1.978571,3.184467,6.212138,7.053593,5.326088,1.246119,-0.1549681,-0.4770123,1.138423,-0.1069741,0.05004474,1.116803,0.07857048,0.3641685,1.207939,-0.186533,-0.4900571,1.116769,-0.079575,-0.00302956,1.129126,0.05386351,-0.114401,1.226047,0.03911375,-0.4492199,1.213026,-0.1218163,0.06854045,1.189665,-0.0323277,-0.4341121,1.185942,-0.1687405,-0.1874615,1.213015,0.218615,-0.05497978,1.047008,NA,NA,NotTracked,NotTracked,
0.8979492,-0.402832,-0.112793,-0.1000977,0.9506836,0.2451172,-1,-2,-1,0,1,0,4,2,-5,7,-4,-24,-14,-2,-6,-2,-2.75,-2.75,-2.75,6.25,6.25,6.25,1.971408,3.186514,6.214855,7.069621,5.342783,1.260234,-0.1580726,-0.4570714,1.142775,-0.04131052,0.03313481,1.090577,0.07856441,0.364177,1.207935,-0.1945931,-0.4456907,1.136976,-0.002071774,0.06791027,1.116579,0.0538696,-0.1143765,1.22606,0.03920372,-0.4491716,1.213004,-0.1220099,0.06861629,1.18989,-0.03221776,-0.4340815,1.185934,-0.1687162,-0.1874732,1.212985,0.2184818,-0.05517514,1.047388,NA,NA,NotTracked,NotTracked,
0.8925781,-0.3896484,-0.1079102,0.004394531,0.9672852,0.2416992,-1,-2,-2,0,0,0,0,0,122,127,124,116,123,121,127,127,-4.75,-4.75,-4.75,1.8125,1.8125,1.8125,1.967647,3.18534,6.214758,7.085208,5.337589,1.232695,-0.1541523,-0.4752609,1.137304,-0.1068283,0.05545435,1.120756,0.0785567,0.3641874,1.207891,-0.1907905,-0.4708267,1.129786,-0.0799256,-0.001003518,1.134914,0.0538604,-0.1143657,1.226061,0.03922052,-0.4491746,1.213005,-0.122052,0.0686773,1.18999,-0.03220493,-0.4340966,1.185898,-0.1685302,-0.1875014,1.212835,0.217593,-0.05507433,1.04735,NA,NA,NotTracked,NotTracked,
0.8862305,-0.3740234,-0.1259766,-0.01855469,0.8979492,0.3149414,-2,0,-3,-2,-1,-2,-2,1,6,-5,2,4,-1,0,1,2,-1.75,-1.75,-1.75,4.375,4.375,4.375,1.965976,3.185227,6.207582,7.076968,5.34234,1.197719,-0.1548488,-0.4716724,1.138561,0.003671571,0.02084021,1.071283,0.0785143,0.3642074,1.207811,-0.1917905,-0.4822345,1.13575,0.01701343,-0.03611417,1.094593,0.05344851,-0.1139697,1.2268,0.0392556,-0.4492657,1.212993,-0.1217543,0.06866789,1.190162,-0.03217551,-0.4342161,1.185778,-0.1685111,-0.187515,1.212683,0.2189634,-0.05574019,1.04771,NA,NA,NotTracked,Unknown,
0.894043,-0.3676758,-0.1098633,-0.01611328,0.9243164,0.3032227,0,-1,0,0,-1,-1,0,-1,6,5,7,11,7,1,-2,-1,-0.8125,-0.8125,-0.8125,-3.625,-3.625,-3.625,1.978611,3.174683,6.196092,7.043517,5.388847,1.06721,-0.157933,-0.4565786,1.141617,-0.01240367,0.03716233,1.089699,0.07801588,0.364384,1.207415,-0.193074,-0.4484027,1.134867,0.03228017,0.07581832,1.107375,0.05333582,-0.1138373,1.227029,0.03935168,-0.44947,1.212904,-0.1210451,0.0688332,1.190769,-0.0321091,-0.4344703,1.185264,-0.1688061,-0.1873338,1.212301,0.2345285,-0.06031733,1.052259,NA,NA,NotTracked,Unknown,
0.8950195,-0.3769531,-0.1196289,-0.1181641,0.9951172,0.4785156,2,-2,-2,0,-3,2,1,1,-4,0,-12,-16,-6,-1,-3,-7,7.0625,7.0625,7.0625,14.875,14.875,14.875,1.98347,3.168346,6.195833,6.980762,5.416634,0.7836993,-0.1552881,-0.4733121,1.138017,0.03292724,0.03754801,1.079522,0.0760835,0.3649672,1.206989,-0.1898283,-0.4638217,1.127125,0.01567488,-0.005050736,1.098804,0.05249746,-0.1136814,1.227707,0.03919736,-0.4501912,1.21282,-0.1199022,0.06957905,1.191918,-0.03253942,-0.4352736,1.184307,-0.1693893,-0.1864675,1.212207,0.2652066,-0.07724009,1.077211,NA,NA,NotTracked,Unknown,
0.9125977,-0.3603516,-0.1123047,-0.2456055,0.984375,0.5078125,2,-1,3,0,-1,1,1,-4,6,8,5,0,-5,-1,-1,2,20.125,20.125,20.125,35.9375,35.9375,35.9375,2.010617,3.165089,6.195912,6.954695,5.426006,0.5729424,-0.1561773,-0.4722213,1.138261,0.1009953,0.02897326,1.06955,0.07114989,0.3657988,1.205756,-0.1859446,-0.4837105,1.118917,0.07621801,-0.01260422,1.100644,0.0518221,-0.1139271,1.227507,0.03853078,-0.4512134,1.212541,-0.120135,0.07089808,1.194304,-0.0336554,-0.4366202,1.182894,-0.1704373,-0.1853681,1.212284,0.2956346,-0.08486645,1.097372,NA,NA,NotTracked,Unknown,
0.909668,-0.3525391,-0.1064453,-0.3725586,0.9243164,0.5942383,-1,-1,-1,-2,1,1,-1,-1,-2,5,0,-11,1,1,-3,-2,18.375,18.375,18.375,87.5625,87.5625,87.5625,2.027491,3.161351,6.200739,6.968711,5.408909,0.06359954,-0.1571916,-0.4736575,1.139738,0.1183638,0.04247344,1.068856,0.06331684,0.3664769,1.204124,-0.1896068,-0.4744384,1.126544,0.08622622,-0.008042384,1.098882,0.04929975,-0.1144015,1.226632,0.03676841,-0.4520975,1.212194,-0.1252148,0.07284475,1.199933,-0.03566844,-0.4374885,1.182321,-0.1718264,-0.184886,1.212816,0.3293574,-0.08357095,1.126912,NA,NA,NotTracked,Unknown,
0.9067383,-0.3828125,-0.08691406,-0.4384766,0.8413086,0.5986328,-1,-3,2,-1,-2,-1,-5,-5,127,125,127,127,127,127,127,127,16.3125,16.3125,16.3125,106,106,106,2.030878,3.149082,6.249063,7.033328,5.382851,9.675525,-0.1605972,-0.4777136,1.142504,0.1585294,0.06100081,1.066913,0.05758826,0.3670788,1.201423,-0.1947407,-0.468061,1.133824,0.1156427,0.014677,1.0935,0.04631587,-0.1141165,1.225576,0.03497142,-0.4527704,1.211805,-0.133693,0.07379075,1.20795,-0.03746394,-0.4381747,1.182017,-0.1738735,-0.1858368,1.214126,0.3521149,-0.07369834,1.15477,NA,NA,NotTracked,Unknown,
0.9174805,-0.3745117,-0.08837891,-0.4785156,0.8178711,0.5258789,0,0,-4,-1,-2,-1,0,0,-5,-6,-2,-1,-4,0,-3,-4,9.375,9.375,9.375,107.1875,107.1875,107.1875,2.009145,3.138137,6.296927,7.122502,5.365028,9.329618,-0.1617015,-0.4763227,1.146833,0.2242998,0.06761511,1.061352,0.05452321,0.3677828,1.198621,-0.1944678,-0.4690749,1.132987,0.1690502,0.0270003,1.080136,0.04355107,-0.1131916,1.225002,0.03317591,-0.4528124,1.211664,-0.1361773,0.07434726,1.210259,-0.03920436,-0.4382725,1.181191,-0.1750835,-0.1856363,1.214877,0.3653295,-0.06098462,1.190849,NA,NA,NotTracked,Unknown,
0.9125977,-0.3666992,-0.08447266,-0.3862305,0.8212891,0.3569336,-1,-3,0,0,-2,0,-5,0,16,7,-1,-7,-4,-3,3,1,2.9375,2.9375,2.9375,80.5,80.5,80.5,1.960856,3.123222,6.364029,7.23076,5.373288,8.932505,-0.1640483,-0.4775537,1.149524,0.2731323,0.07359402,1.073696,0.053422,0.3682724,1.195739,-0.2011535,-0.4588135,1.140398,0.2117263,0.03904828,1.108455,0.04230512,-0.1126453,1.223855,0.03212161,-0.4525999,1.211247,-0.1367347,0.07459012,1.210333,-0.04047005,-0.4380374,1.179681,-0.1763297,-0.1852155,1.215614,0.3704468,-0.04946159,1.21593,NA,NA,NotTracked,Unknown,
0.9135742,-0.3618164,-0.08935547,-0.3945313,0.8408203,0.3134766,0,0,-2,-1,-4,-1,-3,-1,21,-9,-22,-14,-7,0,0,1,-0.3125,-0.3125,-0.3125,60.4375,60.4375,60.4375,1.927067,3.114717,6.403327,7.297834,5.37528,8.591567,-0.1668369,-0.4752684,1.152129,0.2959422,0.08010141,1.099504,0.05348346,0.3683838,1.192654,-0.2005871,-0.4749313,1.137387,0.2342389,0.07289652,1.15705,0.04151831,-0.1123111,1.222666,0.03160954,-0.4524382,1.211004,-0.13556,0.07441956,1.20838,-0.04115187,-0.4376832,1.178366,-0.1770829,-0.1848343,1.215899,0.3706245,-0.03308575,1.230928,NA,NA,NotTracked,Unknown,
0.918457,-0.3598633,-0.09716797,-0.3847656,0.8178711,0.2578125,0,-1,2,0,0,1,3,5,-7,-13,-7,3,4,0,0,-5,2.5625,2.5625,2.5625,48.6875,48.6875,48.6875,1.913033,3.110974,6.423596,7.317855,5.386173,8.454295,-0.1706993,-0.4653495,1.155232,0.3145124,0.08021204,1.117577,0.05418063,0.368304,1.188603,-0.2047456,-0.4470706,1.14465,0.2546652,0.07876757,1.175167,0.04112126,-0.1119933,1.221026,0.03115251,-0.4520897,1.210497,-0.1332571,0.07423662,1.204714,-0.04158527,-0.4373497,1.176842,-0.1774008,-0.1841566,1.215775,0.3750151,-0.02349369,1.241476,NA,NA,NotTracked,NotTracked,
0.9003906,-0.3608398,-0.105957,-0.4208984,0.8334961,0.2333984,0,-3,0,-1,0,1,-1,-1,3,8,8,-16,-13,-2,-2,-1,-8.25,-8.25,-8.25,5,5,5,1.908082,3.107213,6.422831,7.302824,5.414023,8.286036,-0.1686477,-0.4683674,1.152889,0.3258435,0.08149237,1.134367,0.05580999,0.3679512,1.185048,-0.2057121,-0.4445245,1.145325,0.3918723,0.09467094,1.141,0.04096406,-0.1113869,1.219545,0.03097469,-0.4514489,1.210118,-0.1333484,0.07492942,1.20425,-0.04159882,-0.4364471,1.17556,-0.1775829,-0.1834082,1.21573,0.3755139,-0.01900952,1.253896,NA,NA,NotTracked,NotTracked,
0.902832,-0.3549805,-0.1181641,-0.4189453,0.8354492,0.1757813,-1,1,-3,-2,-1,-2,1,3,-18,-3,-6,-25,-8,2,1,-4,-12.75,-12.75,-12.75,-12,-12,-12,1.896807,3.104627,6.414164,7.274199,5.434515,8.24338,-0.1686187,-0.4651044,1.153967,0.3246908,0.08172201,1.147336,0.05778209,0.3678274,1.182199,-0.2034345,-0.4471904,1.144975,0.2601747,0.1515689,1.193143,0.04114879,-0.1110223,1.218348,0.03105078,-0.4510216,1.209736,-0.1319767,0.0752373,1.20214,-0.04131125,-0.4359172,1.174476,-0.1774189,-0.1826664,1.215382,0.36089,-0.0176934,1.280631,NA,NA,NotTracked,NotTracked,
0.9072266,-0.3442383,-0.1347656,-0.2666016,0.9140625,0.206543,-2,0,-1,0,-2,2,3,-1,26,14,4,21,7,2,2,-2,-12.625,-12.625,-12.625,-30.6875,-30.6875,-30.6875,1.885969,3.1047,6.403207,7.221528,5.4172,8.261001,-0.1697004,-0.4600232,1.150665,0.3180498,0.07861921,1.147276,0.05957966,0.3673024,1.179786,-0.2052373,-0.4397456,1.142222,0.260834,0.1479777,1.193857,0.04151496,-0.110854,1.217436,0.0315604,-0.4506025,1.209256,-0.1310918,0.07529289,1.20056,-0.04046883,-0.4354947,1.173203,-0.1776459,-0.1823613,1.214197,0.3577594,-0.02206146,1.283095,NA,NA,NotTracked,NotTracked,
0.9233398,-0.3344727,-0.137207,-0.3623047,0.9277344,0.3325195,-1,-2,-4,-3,0,0,1,4,15,3,7,13,-3,-4,-4,4,-8.6875,-8.6875,-8.6875,-31,-31,-31,1.884745,3.10795,6.392818,7.176785,5.385473,8.308143,-0.1688922,-0.4592692,1.147089,0.3217849,0.06660378,1.137331,0.06099906,0.3669551,1.178612,-0.199077,-0.4736179,1.127765,0.258563,0.05925485,1.121233,0.04184939,-0.1107743,1.216542,0.03189461,-0.4505161,1.208763,-0.13047,0.07556523,1.19925,-0.03995251,-0.4353992,1.171893,-0.1780006,-0.1819803,1.212437,0.3533716,-0.02612194,1.283704,NA,NA,NotTracked,NotTracked,
0.9199219,-0.3286133,-0.1206055,-0.4042969,0.7167969,0.1357422,0,-2,1,0,-1,1,1,4,-4,-7,21,32,-1,2,4,2,-1.375,-1.375,-1.375,-53.625,-53.625,-53.625,1.900129,3.117271,6.366034,7.103337,5.289766,8.384686,-0.1689001,-0.4575767,1.144545,0.3173894,0.05581605,1.129297,0.06222985,0.3665904,1.177687,-0.1974486,-0.4731201,1.12053,0.2737905,0.09954731,1.194,0.04211,-0.1107447,1.215999,0.03213766,-0.4504436,1.2083,-0.1300145,0.07583176,1.198208,-0.0396692,-0.4353017,1.171005,-0.1780735,-0.1817724,1.210312,0.3504391,-0.03153088,1.280575,NA,NA,NotTracked,NotTracked,
0.8891602,-0.3271484,-0.1079102,-0.1513672,0.7246094,0.4272461,-1,-1,-1,-2,1,-2,-5,-3,5,-6,-11,-15,-8,-5,-3,-9,-2.3125,-2.3125,-2.3125,-65,-65,-65,1.917105,3.126434,6.345154,7.043196,5.207281,8.440199,-0.1653512,-0.468873,1.139418,0.3037564,0.0290737,1.111768,0.06334998,0.366249,1.176969,-0.2008171,-0.4566807,1.126773,0.2539954,0.0688208,1.166833,0.04239896,-0.1107309,1.215536,0.03263338,-0.4505086,1.207704,-0.1295802,0.07612799,1.197219,-0.0391487,-0.4353877,1.169962,-0.1784472,-0.1814224,1.208629,0.3355242,-0.05695139,1.258905,NA,NA,NotTracked,NotTracked,
0.8945313,-0.3388672,-0.09326172,-0.006835938,0.6040039,0.359375,0,1,0,-1,1,-2,-4,-5,-35,2,-24,-47,-24,-13,-10,-15,-8.25,-8.25,-8.25,-72.625,-72.625,-72.625,1.931812,3.132825,6.31276,6.870757,4.870087,8.593752,-0.1668906,-0.4661475,1.139049,0.1674302,0.01526521,1.113083,0.06420964,0.3657975,1.176766,-0.2003818,-0.4704598,1.1235,0.1316552,-0.01685657,1.09275,0.04269658,-0.1107833,1.215437,0.03293426,-0.4505901,1.207586,-0.1295227,0.07616621,1.196828,-0.03890294,-0.4354602,1.169862,-0.1784603,-0.181475,1.20746,0.3069797,-0.1071132,1.24268,NA,NA,NotTracked,Unknown,
0.90625,-0.3500977,-0.08886719,0.08496094,0.597168,0.3286133,-1,0,0,-1,-2,-4,-3,1,127,127,106,79,108,123,127,122,-3.125,-3.125,-3.125,-13.0625,-13.0625,-13.0625,1.940311,3.130384,6.296687,6.792107,4.544395,8.707304,-0.1649848,-0.4678589,1.137109,0.2691883,-0.1185952,1.050318,0.06487994,0.3655345,1.176905,-0.199976,-0.451634,1.12485,0.2195305,-0.128479,1.1015,0.04294171,-0.1108221,1.21539,0.03343882,-0.4505914,1.207378,-0.1297619,0.07593774,1.196651,-0.03843656,-0.435537,1.169774,-0.1784006,-0.1818427,1.206624,0.3386247,-0.05941468,1.304864,NA,NA,NotTracked,Unknown,
0.9511719,-0.3408203,-0.1152344,0.5888672,0.6279297,0.4326172,0,0,-2,1,0,1,-2,-1,15,7,-4,-15,-20,-3,-4,-2,2.9375,2.9375,2.9375,31.0625,31.0625,31.0625,1.961675,3.127273,6.277179,6.805401,4.089993,8.787209,-0.1655798,-0.4541342,1.140798,0.2682768,-0.2201742,1.045723,0.06521259,0.3652969,1.177371,-0.1991117,-0.4491929,1.131242,0.2242329,-0.2221442,1.067833,0.04315335,-0.1108705,1.215427,0.03399036,-0.4505518,1.207243,-0.1300405,0.07593869,1.196669,-0.03797147,-0.4356825,1.169743,-0.1782271,-0.182025,1.205876,0.2997369,-0.1134366,1.281607,NA,NA,NotTracked,Unknown,
0.9121094,-0.3759766,-0.1137695,1.037109,0.8105469,0.3911133,-1,-1,-2,-2,0,-1,-1,-2,3,1,5,14,11,2,4,-36,-4.25,-4.25,-4.25,68.1875,68.1875,68.1875,1.973201,3.12943,6.258425,6.920219,3.775278,8.756125,-0.1589509,-0.4780522,1.134709,0.2615976,-0.322884,1.075491,0.06540111,0.3652256,1.178279,-0.1918856,-0.4715388,1.12195,0.2156504,-0.3535875,1.115581,0.04352634,-0.1108613,1.215678,0.03508116,-0.4505675,1.207196,-0.1306267,0.07576564,1.196927,-0.03692906,-0.4359087,1.169716,-0.1781356,-0.1823937,1.205552,0.3041071,-0.1245966,1.280715,NA,NA,NotTracked,NotTracked,
0.9174805,-0.3642578,-0.1137695,1.179199,0.5473633,0.1518555,-1,-1,-3,2,0,0,0,-1,-1,-2,-6,3,0,-3,3,0,-5.75,-5.75,-5.75,-21.625,-21.625,-21.625,1.974586,3.130194,6.248869,6.967425,3.439823,8.652528,-0.1571413,-0.4778829,1.133938,0.2612596,-0.3844688,1.09973,0.06573139,0.3652052,1.17955,-0.1904819,-0.4800599,1.1206,0.2188751,-0.4101949,1.107306,0.04467346,-0.111039,1.216232,0.03779006,-0.4510304,1.207436,-0.1305561,0.07555621,1.196927,-0.03415238,-0.4368395,1.170141,-0.1780854,-0.1826476,1.205115,0.3001627,-0.1516988,1.268714,NA,NA,NotTracked,NotTracked,
0.918457,-0.3725586,-0.1030273,1.047852,0.4331055,0.1743164,-1,0,-2,0,-1,0,0,-1,-5,0,8,-2,-8,-3,-1,3,-0.5625,-0.5625,-0.5625,6.8125,6.8125,6.8125,1.966971,3.135813,6.254628,7.025,3.231398,8.583052,-0.1586184,-0.4771719,1.133868,0.2699384,-0.4130468,1.115462,0.06650683,0.3653007,1.18154,-0.1955719,-0.4638544,1.125273,0.2265075,-0.3942193,1.117222,0.04643919,-0.1114556,1.217029,0.04044133,-0.451764,1.207923,-0.1304894,0.07534616,1.197266,-0.03155894,-0.4379056,1.170683,-0.1780361,-0.1829119,1.20491,0.2918136,-0.1606393,1.252566,NA,NA,NotTracked,NotTracked,
0.8925781,-0.34375,-0.1118164,1.087891,0.362793,0.06347656,-2,0,-2,1,-1,0,2,3,-3,1,1,4,1,0,0,-3,10.375,10.375,10.375,-1.8125,-1.8125,-1.8125,1.970998,3.141194,6.26414,7.141457,3.071103,8.452353,-0.1609197,-0.4656033,1.137379,0.2704204,-0.4371946,1.128781,0.06757846,0.3656584,1.183264,-0.1961307,-0.4682696,1.1289,0.224875,-0.4203771,1.110786,0.04854001,-0.1116031,1.217957,0.04363726,-0.4523654,1.20866,-0.1304989,0.07538903,1.197874,-0.0283066,-0.4389962,1.171216,-0.1777996,-0.1830163,1.20461,0.2869148,-0.1648694,1.241411,NA,NA,NotTracked,NotTracked,
0.8964844,-0.3525391,-0.07861328,1.038574,0.2592773,-0.01367188,0,-1,-2,-1,-1,0,-2,-1,0,1,-1,-2,-1,-1,-4,-2,-2.875,-2.875,-2.875,17.625,17.625,17.625,1.976796,3.14519,6.261447,7.361453,2.942923,8.259101,-0.1617893,-0.4628956,1.139073,0.269944,-0.4548317,1.138415,0.06882724,0.3658532,1.184335,-0.1970686,-0.4732731,1.1307,0.2243105,-0.4327209,1.110529,0.05074897,-0.1119148,1.218771,0.04625363,-0.4529727,1.209261,-0.1302498,0.07553449,1.198966,-0.02571827,-0.4398271,1.171758,-0.1773945,-0.1830094,1.204676,0.2850197,-0.1686514,1.235367,NA,NA,NotTracked,NotTracked,
0.8969727,-0.3696289,-0.09033203,0.9975586,0.1621094,0.003417969,0,0,-1,-2,0,1,0,2,-2,-2,-4,-1,-3,-2,-1,-1,10,10,10,25.1875,25.1875,25.1875,1.982182,3.150702,6.26741,7.460188,2.883587,8.188161,-0.1620869,-0.4607544,1.139919,0.267785,-0.468301,1.143254,0.07014761,0.3659035,1.184936,-0.1963756,-0.463323,1.128415,0.2274214,-0.4479682,1.1142,0.05221768,-0.1121696,1.219195,0.0481884,-0.4533954,1.209631,-0.1296192,0.07537498,1.199121,-0.02382461,-0.4403548,1.172156,-0.1770324,-0.1831233,1.204758,0.283804,-0.1709592,1.231178,NA,NA,NotTracked,NotTracked,
0.9116211,-0.362793,-0.08935547,0.980957,0.2929688,0.04345703,0,1,0,0,-1,-1,-2,-3,-2,-3,-3,1,-2,0,-1,-3,3.125,3.125,3.125,25.3125,25.3125,25.3125,1.982427,3.145192,6.290134,7.504517,2.861454,8.195898,-0.159982,-0.47523,1.139007,0.2664148,-0.4702054,1.1483,0.0715227,0.3659973,1.185766,-0.1972433,-0.4576392,1.132093,0.2278634,-0.4469868,1.116154,0.05317736,-0.1123058,1.219643,0.04931188,-0.453602,1.209995,-0.1289172,0.07545361,1.200183,-0.02264981,-0.4406029,1.172654,-0.1762778,-0.1830826,1.205528,0.2836021,-0.1718995,1.22958,NA,NA,NotTracked,NotTracked,
0.9091797,-0.3793945,-0.09960938,0.9658203,0.265625,0.01513672,-1,-2,-2,0,0,-1,1,0,-2,-3,-3,2,0,-1,-1,0,6.375,6.375,6.375,-5.375,-5.375,-5.375,1.984433,3.139919,6.298792,7.494066,2.866584,8.211871,-0.1575461,-0.4809836,1.139658,0.266537,-0.4705868,1.147729,0.07257925,0.3658946,1.186018,-0.1954934,-0.4835091,1.129545,0.2283831,-0.444439,1.1155,0.05391228,-0.1123799,1.219894,0.05004555,-0.4536685,1.210191,-0.1284493,0.07548498,1.200863,-0.0219441,-0.4406764,1.172914,-0.175769,-0.1830349,1.206412,0.2834189,-0.1727896,1.228564,NA,NA,NotTracked,NotTracked,
0.909668,-0.3769531,-0.1088867,0.9628906,0.190918,0.01953125,-1,0,-1,0,0,0,-1,-1,-1,-1,3,-1,-3,-1,1,0,6.125,6.125,6.125,6.6875,6.6875,6.6875,1.984491,3.13765,6.302743,7.485224,2.867997,8.221984,-0.1574278,-0.4807461,1.139772,0.2666808,-0.4696572,1.147455,0.0729824,0.3659531,1.186042,-0.1961033,-0.4742888,1.132251,0.2283966,-0.4424538,1.115583,0.05413157,-0.112409,1.219961,0.05027012,-0.4537135,1.210258,-0.1282991,0.07537439,1.20126,-0.02170186,-0.4407315,1.173046,-0.1754891,-0.1831808,1.206672,0.2834395,-0.1729121,1.228157,NA,NA,NotTracked,NotTracked,
0.8984375,-0.3916016,-0.1054688,0.9863281,0.2060547,0.02587891,-2,-2,-2,0,-2,-4,-1,-3,-1,-2,0,1,0,1,0,-1,2.25,2.25,2.25,16,16,16,1.983062,3.134801,6.311355,7.493896,2.868669,8.230731,-0.1575241,-0.482505,1.140352,0.2670894,-0.4700415,1.147451,0.07344231,0.365877,1.185979,-0.1912645,-0.4745934,1.125844,0.2294012,-0.452103,1.117651,0.05436193,-0.1124691,1.220063,0.05048277,-0.4537531,1.210396,-0.1280913,0.07546216,1.201609,-0.02148539,-0.4407909,1.173211,-0.1750037,-0.1831437,1.207046,0.2834432,-0.1731021,1.227753,NA,NA,NotTracked,NotTracked,
0.8994141,-0.3945313,-0.1142578,0.9780273,0.2202148,0.03076172,0,-2,0,0,0,-1,-1,1,-2,0,-1,0,2,-2,0,-1,3.3125,3.3125,3.3125,7.3125,7.3125,7.3125,1.983358,3.137375,6.315329,7.495176,2.870793,8.239981,-0.1561242,-0.4837588,1.140122,0.2670625,-0.4694317,1.146446,0.0738913,0.3657715,1.185923,-0.1883529,-0.4790416,1.122593,0.2322367,-0.4702969,1.120667,0.05454903,-0.1124728,1.220086,0.0507373,-0.453753,1.210457,-0.128041,0.07544328,1.202015,-0.02124268,-0.4407819,1.173255,-0.1748152,-0.1831865,1.207446,0.2835735,-0.1733313,1.227353,NA,NA,NotTracked,NotTracked,
0.8964844,-0.390625,-0.1064453,0.9716797,0.1953125,0.03027344,-2,0,-1,-1,0,-1,-1,-2,0,2,-4,-2,-3,1,0,-2,2.625,2.625,2.625,6.6875,6.6875,6.6875,1.984542,3.138972,6.316071,7.487224,2.870012,8.254603,-0.156349,-0.4840818,1.140872,0.2669501,-0.470156,1.146151,0.07415194,0.3657798,1.185985,-0.1960993,-0.4784878,1.139636,0.2295684,-0.4429645,1.1159,0.05475089,-0.1124654,1.220188,0.05095876,-0.4537656,1.21054,-0.1278754,0.075495,1.202381,-0.02104951,-0.4408056,1.17332,-0.1744351,-0.1831738,1.207819,0.2837319,-0.1734232,1.227004,NA,NA,NotTracked,NotTracked,
0.9082031,-0.3769531,-0.09863281,0.9726563,0.2089844,0.02441406,-1,-2,0,-2,-1,1,-2,-1,-2,-1,-2,-3,-2,0,-1,-1,0.875,0.875,0.875,8.1875,8.1875,8.1875,1.985021,3.144118,6.318233,7.471665,2.865258,8.282228,-0.1564604,-0.483027,1.140079,0.2674699,-0.4703419,1.14548,0.07431383,0.3657172,1.186035,-0.1934837,-0.5033168,1.12725,0.2302709,-0.4407422,1.1164,0.05497995,-0.1125031,1.220287,0.05130418,-0.4538,1.210631,-0.127733,0.07551181,1.202684,-0.02070402,-0.4408846,1.173481,-0.1742284,-0.1831716,1.208087,0.2838663,-0.1735247,1.226717,NA,NA,NotTracked,NotTracked,
0.9082031,-0.3769531,-0.09863281,0.9726563,0.2089844,0.02441406,0,-2,1,-1,-3,-1,3,1,-2,-1,-2,-3,-2,0,-1,-1,0.875,0.875,0.875,8.1875,8.1875,8.1875,1.985021,3.144118,6.318233,7.471665,2.865258,8.282228,-0.1564285,-0.4851507,1.13843,0.2673316,-0.4694671,1.145125,0.07444643,0.3657695,1.186103,-0.1904003,-0.4775465,1.125445,0.2304221,-0.452831,1.11764,0.05521142,-0.1125373,1.220359,0.05150681,-0.4538327,1.210661,-0.127536,0.07549816,1.20286,-0.02050152,-0.4409214,1.173589,-0.1740768,-0.1831803,1.208221,0.2839927,-0.1736075,1.226328,NA,NA,NotTracked,NotTracked,
0.9038086,-0.3808594,-0.09667969,0.96875,0.2133789,0.03125,-1,0,0,-1,0,-2,0,0,-2,0,-2,-1,0,0,0,0,3.5,3.5,3.5,9.9375,9.9375,9.9375,1.984517,3.147639,6.322844,7.469462,2.863008,8.291703,-0.1562834,-0.4854662,1.138473,0.268042,-0.469933,1.145294,0.07459937,0.365904,1.186177,-0.1950753,-0.4690816,1.131857,0.2360784,-0.473938,1.125389,0.05539189,-0.112489,1.220439,0.05165937,-0.4538231,1.210719,-0.127405,0.07557699,1.203005,-0.02035205,-0.4409238,1.173686,-0.1737444,-0.1831402,1.208369,0.2841546,-0.1736535,1.226059,NA,NA,NotTracked,NotTracked,
0.8999023,-0.3730469,-0.09912109,0.9619141,0.2290039,0.04003906,-1,-3,-1,-2,1,-1,-2,1,-3,-1,-2,-1,-1,-3,-1,-2,4.625,4.625,4.625,10.625,10.625,10.625,1.985229,3.149357,6.32536,7.462715,2.861538,8.309594,-0.1570878,-0.4843202,1.137586,0.2694766,-0.4624756,1.147727,0.07467667,0.3659534,1.186254,-0.197054,-0.4715866,1.136555,0.2319784,-0.4609981,1.120245,0.05556337,-0.1125141,1.220479,0.05183477,-0.4538656,1.210773,-0.1272652,0.07551687,1.203138,-0.02016173,-0.4409705,1.173815,-0.1735577,-0.1832083,1.208497,0.2842937,-0.1738175,1.225708,NA,NA,NotTracked,NotTracked,
0.8994141,-0.3574219,-0.1083984,0.9599609,0.222168,0.03710938,-2,-1,-2,-1,-3,2,0,3,-1,0,0,1,-3,0,-1,0,0.875,0.875,0.875,9.875,9.875,9.875,1.982913,3.151223,6.331347,7.460703,2.860873,8.321687,-0.1567605,-0.4837618,1.136877,0.2685002,-0.4650563,1.146344,0.07469777,0.3659736,1.186307,-0.19421,-0.4787643,1.129148,0.2287819,-0.4356959,1.112583,0.05572729,-0.1125197,1.220478,0.05204194,-0.4538959,1.210743,-0.1271469,0.07553472,1.203251,-0.01995797,-0.4410246,1.173787,-0.1730557,-0.1832917,1.208334,0.2845114,-0.1739658,1.225338,NA,NA,NotTracked,NotTracked,
0.9047852,-0.3608398,-0.1030273,0.9716797,0.2060547,0.04931641,-1,1,-2,-2,1,1,0,-1,0,1,-2,3,-1,-1,-1,-1,-2.0625,-2.0625,-2.0625,8.5625,8.5625,8.5625,1.981183,3.151924,6.332364,7.457398,2.861189,8.334232,-0.161817,-0.4624561,1.14197,0.2684827,-0.4686827,1.145563,0.07472916,0.3660584,1.186449,-0.1968295,-0.4467753,1.137278,0.2328669,-0.4574184,1.119893,0.05588254,-0.1124963,1.220491,0.05217991,-0.4538983,1.210747,-0.1270473,0.07553691,1.203349,-0.01981903,-0.4410364,1.173818,-0.1729516,-0.1833056,1.208283,0.2847705,-0.1739895,1.225068,NA,NA,NotTracked,NotTracked,
0.9052734,-0.3642578,-0.109375,0.965332,0.2163086,0.046875,1,0,-2,-1,-1,-2,-4,0,-2,-2,-1,-2,0,0,-2,0,-5,-5,-5,7.625,7.625,7.625,1.976733,3.153278,6.330292,7.449925,2.863368,8.351391,-0.1565713,-0.4826202,1.137522,0.270036,-0.4653147,1.14687,0.07472001,0.3660923,1.186493,-0.194273,-0.47761,1.132231,0.2306555,-0.4269679,1.1154,0.05606882,-0.112462,1.220533,0.05233548,-0.4539052,1.21075,-0.1269538,0.07550722,1.203522,-0.01964401,-0.4410616,1.173876,-0.1727927,-0.1833633,1.20829,0.2851306,-0.1739771,1.224959,NA,NA,NotTracked,NotTracked,
0.9130859,-0.3608398,-0.1132813,0.9624023,0.2216797,0.03564453,-2,-1,0,0,0,1,1,-2,0,-1,-1,0,-1,-2,0,1,-5.375,-5.375,-5.375,1.3125,1.3125,1.3125,1.973454,3.153777,6.327642,7.434313,2.868055,8.369634,-0.1563203,-0.4852754,1.136195,0.2712986,-0.4605215,1.148161,0.07470994,0.366147,1.186655,-0.1949482,-0.4830387,1.136125,0.2310584,-0.4395808,1.116667,0.05624938,-0.112469,1.220572,0.05243927,-0.4539398,1.210751,-0.1268473,0.07544541,1.203609,-0.01954234,-0.441098,1.173876,-0.1723541,-0.1835083,1.208158,0.2853406,-0.1739451,1.224827,NA,NA,NotTracked,NotTracked,
0.90625,-0.3662109,-0.1103516,0.9628906,0.21875,0.046875,0,-5,-2,0,-1,-1,-3,-2,-4,7,-2,-1,2,-3,0,-1,-4.875,-4.875,-4.875,-0.1875,-0.1875,-0.1875,1.973276,3.154127,6.325164,7.41287,2.871244,8.39146,-0.1559281,-0.4839468,1.134859,0.2723707,-0.4610453,1.146241,0.07470097,0.3662501,1.186814,-0.1927714,-0.481154,1.128846,0.2311296,-0.4392038,1.11656,0.05647259,-0.1124842,1.220549,0.05270664,-0.4539546,1.210684,-0.1267778,0.07544004,1.203675,-0.01929294,-0.4411364,1.173839,-0.1720615,-0.18359,1.207876,0.2855305,-0.1739456,1.224596,NA,NA,NotTracked,NotTracked,
0.9008789,-0.3642578,-0.109375,0.9643555,0.2167969,0.05419922,-1,1,-2,-1,2,0,-1,-1,-2,-3,-3,-1,-3,-1,-2,-2,-0.125,-0.125,-0.125,1.8125,1.8125,1.8125,1.978601,3.155623,6.317376,7.396153,2.873295,8.409084,-0.1585081,-0.4621458,1.138745,0.2735929,-0.4578653,1.146658,0.07465222,0.3663725,1.186962,-0.1962823,-0.4582692,1.132333,0.2317261,-0.4400461,1.11743,0.0567691,-0.1123926,1.220565,0.05318643,-0.4538843,1.210556,-0.1265117,0.07520422,1.203277,-0.01881248,-0.4411098,1.173762,-0.1715047,-0.1838768,1.207502,0.2861106,-0.173731,1.224212,NA,NA,NotTracked,NotTracked,
0.9038086,-0.3632813,-0.1088867,0.9692383,0.2226563,0.04589844,0,-1,-2,0,0,0,0,0,-1,-3,1,-1,-5,-2,-1,-1,3,3,3,2.0625,2.0625,2.0625,1.982562,3.156308,6.316432,7.391418,2.873475,8.415424,-0.1593859,-0.4622604,1.13933,0.2741041,-0.4579554,1.146768,0.07463466,0.3663932,1.187032,-0.1951807,-0.4338709,1.135437,0.2319738,-0.4364982,1.117328,0.05684359,-0.1123846,1.220601,0.05327408,-0.4538855,1.210548,-0.1264625,0.07520373,1.203356,-0.01870524,-0.4411336,1.173815,-0.1712768,-0.1839361,1.207317,0.2862594,-0.1737291,1.224004,NA,NA,NotTracked,NotTracked,
0.9116211,-0.3598633,-0.105957,0.9643555,0.2197266,0.02880859,-3,-1,1,0,0,-1,1,-1,-1,-4,0,-2,-3,-1,-1,0,3.6875,3.6875,3.6875,1.9375,1.9375,1.9375,1.985027,3.156447,6.316236,7.388046,2.873771,8.419894,-0.1594374,-0.4623646,1.139452,0.2743777,-0.4578178,1.146457,0.07462061,0.3664524,1.18719,-0.1941877,-0.4452511,1.132309,0.2311143,-0.4395583,1.116503,0.05700523,-0.1123665,1.220676,0.05354006,-0.4538811,1.210527,-0.1263448,0.07501076,1.203074,-0.0184643,-0.4411668,1.173783,-0.1711117,-0.1841103,1.207299,0.2866345,-0.1736613,1.223851,NA,NA,NotTracked,NotTracked,
0.9111328,-0.3686523,-0.1020508,0.9648438,0.2285156,0.02685547,0,-3,0,1,-2,0,1,0,0,-2,-4,-2,-2,-3,-1,-2,2.9375,2.9375,2.9375,2.9375,2.9375,2.9375,1.988796,3.156618,6.316684,7.386372,2.873429,8.424864,-0.1600926,-0.4615037,1.138734,0.2701031,-0.46722,1.142597,0.07458249,0.3664696,1.18725,-0.1901647,-0.4801198,1.118,0.2355837,-0.4675827,1.121714,0.05704441,-0.1123666,1.22069,0.05368769,-0.4539175,1.210485,-0.1262047,0.07485151,1.202829,-0.01831397,-0.4412382,1.173759,-0.1710641,-0.1842275,1.207297,0.2867635,-0.1737051,1.223699,NA,NA,NotTracked,NotTracked,
