ALX,ALY,ALZ,ARX,ARY,ARZ,EMG0L,EMG1L,EMG2L,EMG3L,EMG4L,EMG5L,EMG6L,EMG7L,EMG0R,EMG1R,EMG2R,EMG3R,EMG4R,EMG5R,EMG6R,EMG7R,GLX,GLY,GLZ,GRX,GRY,GRZ,ORL,OPL,OYL,ORR,OPR,OYR,LHNX,LHNY,LHNZ,RHNX,RHNY,RHNZ,HX,HY,HZ,LTX,LTY,LTZ,RTX,RTY,RTZ,SpineMidX,SpineMidY,SpineMidZ,SpineBaseX,SpineBaseY,SpineBaseZ,ShoulderLeftX,ShoulderLeftY,ShoulderLeftZ,ShoulderRightX,ShoulderRightY,ShoulderRightZ,ElbowLeftX,ElbowLeftY,ElbowLeftZ,ElbowRightX,ElbowRightY,ElbowRightZ,Myo_Pose_left,Myo_Pose_Right,Kinect_pose_left,Kinect_pose_right
0.9365234,-0.2314453,-0.1621094,-0.5229492,0.8120117,0.2773438,1,-1,0,-2,2,0,2,-2,-29,-14,-2,-1,0,2,0,0,1.125,1.125,1.125,0.375,0.375,0.375,1.432032,2.986102,7.016161,6.993018,5.865293,5.458512,-0.2128153,-0.4796169,1.107619,-0.1087497,0.1192053,1.024218,0.04119627,0.3626027,1.175379,-0.2483697,-0.4705887,1.088464,-0.1110807,0.1597795,0.9966112,0.01454938,-0.1151154,1.197626,-0.003879915,-0.4555958,1.180814,-0.1335808,0.06562138,1.163956,-0.07455653,-0.4394353,1.148106,-0.2152926,-0.1837796,1.171487,0.1777812,-0.07101905,1.02993,NA,NA,Unknown,Unknown,
0.9365234,-0.2314453,-0.1621094,-0.5234375,0.8144531,0.2695313,1,-1,0,-2,2,0,2,-2,7,2,4,1,-2,-5,-4,0,1.125,1.125,1.125,1.5625,1.5625,1.5625,1.432032,2.986102,7.016161,6.993861,5.865421,5.458719,-0.2126022,-0.4806117,1.10863,-0.1080666,0.1189297,1.024356,0.04132212,0.362613,1.175234,-0.2508515,-0.4609442,1.098789,-0.09803373,0.1429108,0.9924318,0.01463549,-0.1151585,1.19756,-0.003799616,-0.4556946,1.180789,-0.1320498,0.062577,1.154745,-0.0744645,-0.4395779,1.148109,-0.2156319,-0.1849282,1.171272,0.17786,-0.07093833,1.029712,NA,NA,Unknown,Unknown,
0.9365234,-0.2314453,-0.1621094,-0.527832,0.8095703,0.2753906,1,-1,0,-2,2,0,2,-2,-5,-5,-5,-1,-2,-4,-7,-11,1.125,1.125,1.125,0.6875,0.6875,0.6875,1.432032,2.986102,7.016161,6.994302,5.866195,5.459174,-0.2129419,-0.4799644,1.107221,-0.1077785,0.1202458,1.023087,0.04141834,0.3626352,1.17517,-0.2496414,-0.4908,1.077529,-0.06415708,0.1495639,1.043813,0.01470198,-0.1151631,1.197444,-0.003720165,-0.4557313,1.180674,-0.1319803,0.06296834,1.15516,-0.07438446,-0.439613,1.148007,-0.2155546,-0.1846546,1.170999,0.1781204,-0.07105867,1.029829,NA,NA,Unknown,Unknown,
0.9365234,-0.2314453,-0.1621094,-0.5234375,0.809082,0.2724609,1,-1,0,-2,2,0,2,-2,-5,-9,-5,-2,-3,-7,-6,-3,1.125,1.125,1.125,0.8125,0.8125,0.8125,1.432032,2.986102,7.016161,6.99641,5.86828,5.460359,-0.2133279,-0.4795053,1.108072,-0.1073915,0.1200944,1.022904,0.04148601,0.3626578,1.175161,-0.2499384,-0.4812059,1.084614,-0.1048554,0.05863243,1.069912,0.01474621,-0.1151832,1.197397,-0.003682605,-0.455781,1.18065,-0.1318873,0.06277442,1.15456,-0.07435281,-0.4396666,1.147989,-0.2155677,-0.1847386,1.170864,0.178164,-0.07103075,1.02974,NA,NA,Unknown,Unknown,
0.9365234,-0.2314453,-0.1621094,-0.5209961,0.8115234,0.2768555,1,-1,0,-2,2,0,2,-2,-11,-19,-7,-2,-1,5,0,-4,1.125,1.125,1.125,0.3125,0.3125,0.3125,1.432032,2.986102,7.016161,6.996142,5.868458,5.460117,-0.213658,-0.4802303,1.106599,-0.1077334,0.1200167,1.022456,0.0415929,0.3627291,1.17519,-0.2499359,-0.4646591,1.087862,-0.1141362,0.06523925,1.071667,0.01481972,-0.1152292,1.197282,-0.003598548,-0.4559649,1.180485,-0.1301868,0.06122838,1.149168,-0.07427084,-0.4398545,1.147876,-0.2155977,-0.1848328,1.170478,0.1780847,-0.07081238,1.029227,NA,NA,Unknown,Unknown,
0.9365234,-0.2314453,-0.1621094,-0.5209961,0.8032227,0.2753906,1,-1,0,-2,2,0,2,-2,-20,-9,-6,-3,1,1,0,-1,1.125,1.125,1.125,-0.5625,-0.5625,-0.5625,1.432032,2.986102,7.016161,6.995858,5.868448,5.460052,-0.2148563,-0.4702663,1.110125,-0.1075322,0.1203335,1.023342,0.0417208,0.3627667,1.175121,-0.2500458,-0.4760146,1.0851,-0.1120957,0.06429923,1.069857,0.01488735,-0.1152435,1.197196,-0.003514664,-0.4560473,1.180375,-0.1303029,0.061254,1.149329,-0.07419343,-0.4399451,1.147771,-0.2155821,-0.1849216,1.170262,0.1777418,-0.07050833,1.028413,NA,NA,Unknown,Unknown,
0.9365234,-0.2314453,-0.1621094,-0.5327148,0.8095703,0.2709961,1,-1,0,-2,2,0,2,-2,-1,-2,2,1,2,-1,0,-3,1.125,1.125,1.125,-0.75,-0.75,-0.75,1.432032,2.986102,7.016161,6.99572,5.86926,5.461528,-0.2144882,-0.4729883,1.109484,-0.1079053,0.1202925,1.023694,0.04189122,0.3627807,1.175109,-0.2520558,-0.4894518,1.088833,-0.1422019,0.107868,0.999619,0.01496964,-0.1152593,1.197137,-0.003390867,-0.4560981,1.180329,-0.1303975,0.06126062,1.149498,-0.07407542,-0.440016,1.14773,-0.2156144,-0.1849774,1.170198,0.1780081,-0.0707678,1.028641,NA,NA,Unknown,Unknown,
0.9365234,-0.2314453,-0.1621094,-0.53125,0.815918,0.2817383,1,-1,0,-2,2,0,2,-2,-11,-11,2,0,-1,-1,-5,-3,1.125,1.125,1.125,-1,-1,-1,1.432032,2.986102,7.016161,6.995621,5.869758,5.464094,-0.2146115,-0.4779365,1.107412,-0.1077637,0.1201165,1.022809,0.04202753,0.3627951,1.175078,-0.2519779,-0.4701012,1.090399,-0.06488515,0.1497483,1.04205,0.01507697,-0.1152718,1.197009,-0.003269489,-0.4561215,1.180197,-0.1304024,0.06131499,1.149554,-0.07395549,-0.4400271,1.147619,-0.2155882,-0.1849565,1.170134,0.1779374,-0.07062951,1.028371,NA,NA,Unknown,Unknown,
0.9365234,-0.2314453,-0.1621094,-0.5224609,0.8188477,0.2724609,1,-1,0,-2,2,0,2,-2,3,-5,-4,-2,0,0,-3,1,1.125,1.125,1.125,-0.125,-0.125,-0.125,1.432032,2.986102,7.016161,6.995971,5.870687,5.46613,-0.2157133,-0.4717769,1.109658,-0.1086282,0.1206204,1.023977,0.04214482,0.3628196,1.175049,-0.2508894,-0.4525026,1.093064,-0.1154309,0.1625558,0.9971482,0.01511476,-0.1152852,1.19697,-0.003260169,-0.4561358,1.180172,-0.1303755,0.06136109,1.149593,-0.07394682,-0.4400518,1.147583,-0.2155663,-0.18493,1.170059,0.1775173,-0.07014607,1.027397,NA,NA,Unknown,Unknown,
0.9365234,-0.2314453,-0.1621094,-0.5390625,0.8222656,0.309082,1,-1,0,-2,2,0,2,-2,-14,0,0,4,1,3,0,-3,1.125,1.125,1.125,-2.3125,-2.3125,-2.3125,1.432032,2.986102,7.016161,6.99608,5.873556,5.474206,-0.2154091,-0.4785839,1.110407,-0.1073163,0.1216991,1.026534,0.04225654,0.3628662,1.175141,-0.2553652,-0.4864716,1.093,-0.06503314,0.1573818,1.054556,0.01515757,-0.1152837,1.196959,-0.003194386,-0.4561497,1.180221,-0.1304181,0.06146419,1.149703,-0.07385699,-0.4400649,1.147664,-0.2155653,-0.1848676,1.170034,0.1772282,-0.06998881,1.02718,NA,NA,Unknown,Unknown,
0.9365234,-0.2314453,-0.1621094,-0.5292969,0.8188477,0.315918,1,-1,0,-2,2,0,2,-2,-2,0,-2,-2,-8,-59,-21,-4,1.125,1.125,1.125,-15.5625,-15.5625,-15.5625,1.432032,2.986102,7.016161,6.999149,5.883273,5.531544,-0.2147183,-0.4783735,1.109085,-0.116597,0.1272311,1.03994,0.04242962,0.3629188,1.175042,-0.245101,-0.4830553,1.078781,-0.1118238,0.1740513,1.01975,0.01516391,-0.1152681,1.196923,-0.003184638,-0.4561519,1.180206,-0.1303816,0.06184168,1.149637,-0.07384621,-0.4400724,1.147657,-0.2154834,-0.1845215,1.16993,0.1773184,-0.06961021,1.02715,NA,NA,Unknown,Unknown,
0.9365234,-0.2314453,-0.1621094,-0.5703125,0.8134766,0.1396484,1,-1,0,-2,2,0,2,-2,-6,6,-1,1,44,74,13,2,1.125,1.125,1.125,-19.5625,-19.5625,-19.5625,1.432032,2.986102,7.016161,6.999721,5.905067,5.60411,-0.2146823,-0.4784221,1.108973,-0.1100899,0.1100601,1.070079,0.04253998,0.3628922,1.174956,-0.2467503,-0.4791119,1.080769,-0.1144489,0.1626506,1.069875,0.01518636,-0.1152416,1.196852,-0.003148738,-0.4560761,1.180124,-0.1307699,0.06368442,1.150062,-0.07381677,-0.4399706,1.14766,-0.2146366,-0.1833662,1.16911,0.1768335,-0.06793191,1.026465,NA,NA,Unknown,NotTracked,
0.9365234,-0.2314453,-0.1621094,-0.4609375,0.7695313,0.3193359,1,-1,0,-2,2,0,2,-2,-13,3,5,1,-2,-23,1,0,1.125,1.125,1.125,28.3125,28.3125,28.3125,1.432032,2.986102,7.016161,7.084463,5.927598,5.701806,-0.2150957,-0.4749055,1.107766,-0.05451158,0.07652043,1.066764,0.04265554,0.3627743,1.17473,-0.2511948,-0.4678935,1.091638,-0.002574936,0.1055877,1.093267,0.01515828,-0.1151527,1.196755,-0.003211896,-0.4557785,1.179971,-0.1327747,0.0673612,1.151767,-0.07383499,-0.4397536,1.14766,-0.2132577,-0.1813026,1.168395,0.1761987,-0.06693118,1.02634,NA,NA,Unknown,NotTracked,
0.9365234,-0.2314453,-0.1621094,-0.5356445,0.4169922,0.1430664,1,-1,0,-2,2,0,2,-2,-5,5,4,-2,-4,-6,0,-7,1.125,1.125,1.125,23.375,23.375,23.375,1.432032,2.986102,7.016161,7.044026,5.919795,5.719314,-0.2145279,-0.4769115,1.106703,-0.05646286,0.07730517,1.064469,0.04273542,0.3627575,1.174628,-0.244076,-0.4761522,1.077405,-0.002677236,0.1058801,1.093512,0.01514727,-0.1151243,1.19673,-0.003232835,-0.4556997,1.179934,-0.1333827,0.06796633,1.153239,-0.0738342,-0.4396983,1.14773,-0.2126012,-0.1814063,1.168006,0.1751892,-0.0647072,1.026068,NA,NA,Unknown,NotTracked,
0.9365234,-0.2314453,-0.1621094,-0.5371094,0.8564453,0.2441406,1,-1,0,-2,2,0,2,-2,-4,21,19,3,1,4,4,7,1.125,1.125,1.125,17.5,17.5,17.5,1.432032,2.986102,7.016161,7.068202,5.900958,5.708834,-0.2144224,-0.4788314,1.106558,-0.05765105,0.07761879,1.064767,0.04276232,0.3627252,1.174604,-0.2521124,-0.4812944,1.088068,-0.004321924,0.106206,1.094295,0.01513936,-0.1150911,1.196714,-0.003272801,-0.4555669,1.179907,-0.1337035,0.06843774,1.15399,-0.07385059,-0.4395075,1.147786,-0.2123987,-0.1812455,1.167844,0.1751325,-0.06332246,1.025523,NA,NA,Unknown,NotTracked,
0.9365234,-0.2314453,-0.1621094,-0.5688477,0.8271484,0.1865234,1,-1,0,-2,2,0,2,-2,-4,-1,4,1,-15,-30,-3,3,1.125,1.125,1.125,5.125,5.125,5.125,1.432032,2.986102,7.016161,7.08645,5.910191,5.70631,-0.214009,-0.4800371,1.107013,-0.06155786,0.08103216,1.063606,0.04280229,0.3627477,1.174619,-0.245917,-0.4848252,1.073,-0.004435252,0.1058126,1.093821,0.01511548,-0.1150138,1.196632,-0.003265518,-0.4553766,1.17977,-0.1337995,0.068638,1.154261,-0.073816,-0.4392965,1.14774,-0.2122133,-0.1812024,1.167681,0.1750441,-0.06284247,1.025243,NA,NA,Unknown,NotTracked,
0.9365234,-0.2314453,-0.1621094,-0.5473633,0.7802734,0.1660156,1,-1,0,-2,2,0,2,-2,4,-5,-2,-2,1,2,-5,-3,1.125,1.125,1.125,-6.375,-6.375,-6.375,1.432032,2.986102,7.016161,7.062006,5.90639,5.678138,-0.215266,-0.4693503,1.108646,-0.1021212,0.1028139,1.068716,0.04284245,0.3627821,1.174663,-0.2508031,-0.4681903,1.088762,-0.06159665,0.1414607,1.0779,0.0151116,-0.1150115,1.19661,-0.003255317,-0.4553901,1.179707,-0.1337875,0.0686723,1.154259,-0.07380377,-0.4393221,1.147706,-0.2121506,-0.1812059,1.167537,0.1751907,-0.06245922,1.025275,NA,NA,Unknown,NotTracked,
0.9365234,-0.2314453,-0.1621094,-0.5561523,0.8178711,0.2114258,1,-1,0,-2,2,0,2,-2,-34,-27,-13,-5,-4,-3,-1,-7,1.125,1.125,1.125,2.625,2.625,2.625,1.432032,2.986102,7.016161,7.038711,5.900074,5.632137,-0.2156054,-0.4665536,1.109743,-0.1063543,0.11042,1.057455,0.04291096,0.3628159,1.174754,-0.2513849,-0.463478,1.093449,-0.07345948,0.1519386,1.0865,0.01510621,-0.1150043,1.196579,-0.00326955,-0.4553965,1.179627,-0.1334847,0.06848811,1.153643,-0.07381017,-0.4393512,1.147643,-0.2121283,-0.1812267,1.167432,0.1749842,-0.06245995,1.02529,NA,NA,Unknown,NotTracked,
0.9365234,-0.2314453,-0.1621094,-0.5234375,0.8525391,0.2675781,1,-1,0,-2,2,0,2,-2,-2,1,6,2,3,0,3,3,1.125,1.125,1.125,5.6875,5.6875,5.6875,1.432032,2.986102,7.016161,7.022023,5.893757,5.579486,-0.2156489,-0.4664935,1.108747,-0.1144014,0.1207898,1.042314,0.04300403,0.3629134,1.174966,-0.2511352,-0.4407974,1.095518,-0.1173068,0.1556368,1.014822,0.01510297,-0.1150032,1.196561,-0.003335204,-0.455437,1.17952,-0.1328702,0.06768224,1.152687,-0.07388701,-0.4394088,1.147524,-0.2123675,-0.1815925,1.167505,0.1745416,-0.0626289,1.025263,NA,NA,Unknown,Unknown,
0.9365234,-0.2314453,-0.1621094,-0.5336914,0.8227539,0.2924805,1,-1,0,-2,2,0,2,-2,-15,-43,-6,-3,-5,-4,-4,-4,1.125,1.125,1.125,-0.3125,-0.3125,-0.3125,1.432032,2.986102,7.016161,6.992906,5.891239,5.523242,-0.2154494,-0.4689589,1.108056,-0.1131106,0.1288893,1.025391,0.04315998,0.3630438,1.175241,-0.251981,-0.4586889,1.092389,-0.1126798,0.158625,0.9938846,0.01513138,-0.1149995,1.196492,-0.003283425,-0.4555148,1.179313,-0.1323704,0.06679253,1.15216,-0.07385798,-0.4395422,1.147211,-0.2130616,-0.1819222,1.167955,0.1734806,-0.06279184,1.024484,NA,NA,Unknown,Unknown,
0.9365234,-0.2314453,-0.1621094,-0.5102539,0.7802734,0.3222656,1,-1,0,-2,2,0,2,-2,-8,-2,1,0,7,6,-1,-4,1.125,1.125,1.125,4.875,4.875,4.875,1.432032,2.986102,7.016161,6.983607,5.894841,5.505001,-0.213602,-0.478647,1.106511,-0.1079186,0.1339811,1.015239,0.04328338,0.3630925,1.175365,-0.2504095,-0.4667603,1.090406,-0.06637865,0.1670464,1.03228,0.01518551,-0.1149026,1.196393,-0.003281634,-0.4554072,1.179145,-0.1334604,0.06695294,1.152817,-0.07391484,-0.4394885,1.14709,-0.214371,-0.1816877,1.168552,0.1720853,-0.06283599,1.023316,NA,NA,Unknown,Unknown,
0.9365234,-0.2314453,-0.1621094,-0.4956055,0.7299805,0.3095703,1,-1,0,-2,2,0,2,-2,7,5,-3,-2,2,20,0,-7,1.125,1.125,1.125,-3.4375,-3.4375,-3.4375,1.432032,2.986102,7.016161,6.975839,5.907123,5.506344,-0.2138691,-0.4782884,1.106602,-0.1081309,0.1361421,1.01662,0.0434182,0.3631487,1.1755,-0.2529682,-0.4595218,1.097,-0.06967061,0.1812325,1.042875,0.01516579,-0.1148186,1.196306,-0.003459168,-0.4552967,1.179004,-0.1322528,0.06677968,1.152043,-0.07419625,-0.4393336,1.146889,-0.2150269,-0.1810383,1.169004,0.1704741,-0.06239625,1.021965,NA,NA,Unknown,Unknown,
0.9365234,-0.2314453,-0.1621094,-0.5351563,0.7700195,0.2651367,1,-1,0,-2,2,0,2,-2,4,-4,-3,-6,-5,15,1,-2,1.125,1.125,1.125,-1.4375,-1.4375,-1.4375,1.432032,2.986102,7.016161,6.993866,5.912335,5.544241,-0.2132344,-0.4801528,1.106284,-0.1084075,0.1304993,1.032227,0.04344941,0.3631804,1.175538,-0.2510418,-0.4713301,1.091428,-0.06902831,0.1641793,1.050238,0.01514191,-0.1147577,1.196225,-0.00360931,-0.4552608,1.178873,-0.131006,0.06658921,1.150838,-0.07442786,-0.4392496,1.146636,-0.2149089,-0.1806653,1.16891,0.1697586,-0.06212592,1.021305,NA,NA,Unknown,Unknown,
0.9365234,-0.2314453,-0.1621094,-0.5361328,0.7480469,0.2519531,1,-1,0,-2,2,0,2,-2,-4,-2,3,1,-9,-28,-3,-1,1.125,1.125,1.125,-1.375,-1.375,-1.375,1.432032,2.986102,7.016161,7.018273,5.903406,5.606651,-0.2142842,-0.4757593,1.106929,-0.1143085,0.1156424,1.057716,0.04348996,0.3631786,1.175494,-0.2478002,-0.4777496,1.080518,-0.0721471,0.1550826,1.078125,0.01512892,-0.1147577,1.196164,-0.003672129,-0.455258,1.178684,-0.1310225,0.06669217,1.150576,-0.07448412,-0.4392553,1.146395,-0.2146848,-0.1806991,1.168359,0.169779,-0.06190001,1.021181,NA,NA,Unknown,Unknown,
0.9365234,-0.2314453,-0.1621094,-0.4799805,0.8115234,0.2568359,1,-1,0,-2,2,0,2,-2,-8,-2,3,6,1,-6,2,3,1.125,1.125,1.125,-1.75,-1.75,-1.75,1.432032,2.986102,7.016161,7.080409,5.843412,5.755444,-0.2147598,-0.4750909,1.106322,-0.04927324,0.06670284,1.063505,0.04349236,0.3631861,1.1755,-0.2534355,-0.4548992,1.099227,0.004414438,0.09320894,1.089098,0.01509769,-0.1147305,1.196123,-0.00368586,-0.4551697,1.178603,-0.1325681,0.06735064,1.152204,-0.07446507,-0.4392264,1.146389,-0.2143074,-0.1810726,1.167649,0.1700176,-0.06160653,1.021278,NA,NA,Unknown,NotTracked,
0.9365234,-0.2314453,-0.1621094,-0.7255859,1.086426,0.00390625,1,-1,0,-2,2,0,2,-2,-1,0,-2,-1,-3,3,0,-3,1.125,1.125,1.125,-56.125,-56.125,-56.125,1.432032,2.986102,7.016161,7.064394,5.788029,5.828566,-0.2148649,-0.4792852,1.103816,-0.04847679,0.06581302,1.066208,0.04347733,0.3631862,1.175481,-0.2515189,-0.4641112,1.088398,0.004825854,0.09437929,1.089284,0.01501382,-0.1146329,1.19604,-0.003780162,-0.4548697,1.178422,-0.1346424,0.06816439,1.15427,-0.07446352,-0.4390258,1.146358,-0.2139676,-0.1815252,1.166551,0.17079,-0.06106617,1.021494,NA,NA,Unknown,NotTracked,
0.9365234,-0.2314453,-0.1621094,-0.4667969,1.083496,0.347168,1,-1,0,-2,2,0,2,-2,7,1,4,4,5,-14,-3,4,1.125,1.125,1.125,13.125,13.125,13.125,1.432032,2.986102,7.016161,7.079544,5.782722,5.806884,-0.2141687,-0.4798798,1.103937,-0.04793345,0.06583623,1.065718,0.0434428,0.3631418,1.175396,-0.2525177,-0.47608,1.088526,0.00531322,0.09376949,1.088983,0.01490241,-0.1145687,1.195964,-0.003955596,-0.4546609,1.178277,-0.1355332,0.06846926,1.155121,-0.07452463,-0.4388997,1.14636,-0.2134378,-0.181844,1.166205,0.1711782,-0.06102378,1.021577,NA,NA,Unknown,NotTracked,
0.9365234,-0.2314453,-0.1621094,-0.515625,0.7993164,0.2050781,1,-1,0,-2,2,0,2,-2,-3,-2,0,0,1,-1,0,3,1.125,1.125,1.125,8.3125,8.3125,8.3125,1.432032,2.986102,7.016161,7.078925,5.805532,5.80849,-0.213666,-0.4790318,1.103941,-0.04921103,0.06656197,1.064151,0.04329243,0.3630855,1.175143,-0.2512575,-0.4683292,1.089918,0.004626278,0.09609814,1.089299,0.01483834,-0.1144876,1.195788,-0.003926246,-0.4544511,1.178001,-0.1359332,0.06859729,1.155507,-0.07445574,-0.4387059,1.146222,-0.2133579,-0.1819448,1.166018,0.1711654,-0.06097365,1.021481,NA,NA,Unknown,NotTracked,
0.9365234,-0.2314453,-0.1621094,-0.4697266,0.8398438,0.2392578,1,-1,0,-2,2,0,2,-2,-1,-5,-3,-2,0,7,-5,-5,1.125,1.125,1.125,3.125,3.125,3.125,1.432032,2.986102,7.016161,7.095475,5.808727,5.80504,-0.2142619,-0.4795916,1.104719,-0.04921398,0.0666434,1.063523,0.04321969,0.3631154,1.175068,-0.2535463,-0.4755195,1.090328,0.00448759,0.09418324,1.089119,0.01470025,-0.1144357,1.195646,-0.004092497,-0.4543531,1.177865,-0.1361077,0.06863752,1.155683,-0.07453749,-0.4386363,1.146183,-0.2132348,-0.1820399,1.16588,0.1712194,-0.06095368,1.021424,NA,NA,Unknown,NotTracked,
0.9365234,-0.2314453,-0.1621094,-0.4975586,0.8193359,0.2338867,1,-1,0,-2,2,0,2,-2,-4,-6,-3,-9,-43,-20,-4,-1,1.125,1.125,1.125,-1.8125,-1.8125,-1.8125,1.432032,2.986102,7.016161,7.094236,5.812396,5.80423,-0.2137925,-0.4815764,1.103576,-0.04981423,0.06658679,1.062793,0.04311103,0.363216,1.174869,-0.2514851,-0.4705125,1.087578,0.004485931,0.09455492,1.088768,0.01458641,-0.1143671,1.195505,-0.004254755,-0.4541843,1.177622,-0.1363177,0.0687345,1.15585,-0.07463562,-0.4385087,1.146033,-0.213125,-0.1821022,1.165604,0.1712815,-0.06086353,1.021164,NA,NA,Unknown,NotTracked,
0.9365234,-0.2314453,-0.1621094,-0.5009766,0.8452148,0.2294922,1,-1,0,-2,2,0,2,-2,8,1,-1,0,5,-4,-3,-1,1.125,1.125,1.125,-3.8125,-3.8125,-3.8125,1.432032,2.986102,7.016161,7.086643,5.816984,5.799357,-0.2147931,-0.4772999,1.104735,-0.04964573,0.06648846,1.063081,0.04288933,0.363358,1.174619,-0.2457951,-0.4789863,1.07557,0.005257064,0.09380405,1.088609,0.01447169,-0.1142986,1.195355,-0.004332203,-0.4540612,1.177433,-0.1364654,0.06879137,1.155909,-0.07466232,-0.4384017,1.145927,-0.2131066,-0.1821494,1.165264,0.1715766,-0.06065158,1.021025,NA,NA,Unknown,NotTracked,
0.9365234,-0.2314453,-0.1621094,-0.5068359,0.8422852,0.2255859,1,-1,0,-2,2,0,2,-2,-6,-2,0,-1,3,-2,-6,-5,1.125,1.125,1.125,-2,-2,-2,1.432032,2.986102,7.016161,7.080841,5.818632,5.795827,-0.2139322,-0.4799345,1.104436,-0.04956712,0.06640092,1.06253,0.04272344,0.363445,1.174401,-0.2512708,-0.4649999,1.0892,0.004829389,0.09374847,1.088665,0.01430795,-0.1142553,1.195228,-0.004569824,-0.4539307,1.177251,-0.1367695,0.06880872,1.156072,-0.07481358,-0.4383142,1.145866,-0.2131297,-0.1822469,1.165202,0.1716874,-0.06070114,1.021061,NA,NA,Unknown,NotTracked,
0.9365234,-0.2314453,-0.1621094,-0.4912109,0.8544922,0.2285156,1,-1,0,-2,2,0,2,-2,-3,0,0,-2,-2,-17,-5,-1,1.125,1.125,1.125,1.3125,1.3125,1.3125,1.432032,2.986102,7.016161,7.080788,5.819455,5.792026,-0.2147959,-0.4821931,1.102353,-0.07938217,0.06676131,1.072935,0.04254193,0.3634605,1.174241,-0.2533175,-0.487058,1.073933,-0.02629335,0.1052625,1.094,0.01419147,-0.1141997,1.195112,-0.004706808,-0.4538091,1.177083,-0.1370192,0.06886277,1.15623,-0.07491262,-0.4381861,1.145729,-0.2130337,-0.1823447,1.165008,0.1721457,-0.0605601,1.021266,NA,NA,Unknown,NotTracked,
0.9365234,-0.2314453,-0.1621094,-0.4848633,0.840332,0.2280273,1,-1,0,-2,2,0,2,-2,-12,-4,-3,-1,2,-1,1,-1,1.125,1.125,1.125,1.5625,1.5625,1.5625,1.432032,2.986102,7.016161,7.081524,5.819356,5.789814,-0.2140677,-0.4823036,1.103471,-0.08084355,0.06604974,1.073299,0.04240507,0.3634545,1.174207,-0.251903,-0.4752411,1.086304,-0.02980895,0.10386,1.09237,0.01413546,-0.1141592,1.19501,-0.004693913,-0.4537349,1.1769,-0.1371707,0.06888714,1.156318,-0.07489797,-0.438125,1.145537,-0.2129715,-0.1824338,1.164716,0.1724129,-0.06041308,1.021395,NA,NA,Unknown,NotTracked,
0.9365234,-0.2314453,-0.1621094,-0.4931641,0.8349609,0.2260742,1,-1,0,-2,2,0,2,-2,-5,-10,-3,-1,1,6,0,-2,1.125,1.125,1.125,0.5625,0.5625,0.5625,1.432032,2.986102,7.016161,7.081841,5.820659,5.786971,-0.2135019,-0.4823261,1.102113,-0.08111822,0.06611645,1.073325,0.04231925,0.3635158,1.174222,-0.2509725,-0.4829887,1.082349,-0.02681818,0.1045088,1.092844,0.01409879,-0.1141176,1.194946,-0.004654818,-0.4536534,1.176795,-0.1373242,0.06893721,1.156444,-0.07484462,-0.4380521,1.145449,-0.2129741,-0.1824494,1.164685,0.1723199,-0.06050719,1.021634,NA,NA,Unknown,NotTracked,
0.9365234,-0.2314453,-0.1621094,-0.4912109,0.8344727,0.230957,1,-1,0,-2,2,0,2,-2,-1,-1,2,-2,-2,-3,-1,-1,1.125,1.125,1.125,-0.5,-0.5,-0.5,1.432032,2.986102,7.016161,7.079185,5.821488,5.783467,-0.2138168,-0.480431,1.102441,-0.08180135,0.06467083,1.073675,0.04227688,0.3635376,1.174184,-0.2514164,-0.4809852,1.082933,-0.02804944,0.1043583,1.09286,0.01407528,-0.1140971,1.194909,-0.004628684,-0.4536075,1.176746,-0.1373944,0.06894627,1.156504,-0.07479234,-0.4379851,1.145349,-0.2129793,-0.1824726,1.164642,0.1723721,-0.06070274,1.022034,NA,NA,Unknown,NotTracked,
0.9365234,-0.2314453,-0.1621094,-0.4946289,0.8364258,0.2338867,1,-1,0,-2,2,0,2,-2,-10,0,-3,-1,1,5,0,-2,1.125,1.125,1.125,-1.375,-1.375,-1.375,1.432032,2.986102,7.016161,7.069768,5.820215,5.776151,-0.2136869,-0.4812144,1.102722,-0.08173261,0.06512491,1.074562,0.04224284,0.3635595,1.174221,-0.251515,-0.4967696,1.076,-0.02941619,0.1058971,1.094326,0.01405642,-0.1140705,1.194889,-0.004619792,-0.4535625,1.176724,-0.1374664,0.06897549,1.156572,-0.07478202,-0.4379322,1.145321,-0.2129949,-0.1824686,1.164644,0.1723124,-0.06100598,1.022448,NA,NA,Unknown,NotTracked,
0.9365234,-0.2314453,-0.1621094,-0.5102539,0.8554688,0.2329102,1,-1,0,-2,2,0,2,-2,6,16,3,-2,-3,2,2,1,1.125,1.125,1.125,-0.375,-0.375,-0.375,1.432032,2.986102,7.016161,7.068408,5.816757,5.777573,-0.2134965,-0.4819752,1.102941,-0.08285815,0.06469331,1.074606,0.04215207,0.3635665,1.174345,-0.2491785,-0.4815689,1.081499,-0.02875008,0.1041552,1.093521,0.0140087,-0.1140462,1.194878,-0.004673256,-0.4535227,1.176724,-0.1375608,0.06900015,1.156667,-0.07482326,-0.4378874,1.14534,-0.2129582,-0.1825112,1.164517,0.1721357,-0.06122898,1.02284,NA,NA,Unknown,NotTracked,
0.9365234,-0.2314453,-0.1621094,-0.4980469,0.8452148,0.2197266,1,-1,0,-2,2,0,2,-2,4,7,-1,1,3,0,0,2,1.125,1.125,1.125,1.875,1.875,1.875,1.432032,2.986102,7.016161,7.072635,5.818915,5.78063,-0.2137754,-0.48134,1.103546,-0.08257007,0.06487722,1.074559,0.04212153,0.3635917,1.174394,-0.251469,-0.4763403,1.085604,-0.02851906,0.1042495,1.093188,0.01398529,-0.1139991,1.194876,-0.004703828,-0.4534369,1.176739,-0.137638,0.06902042,1.15674,-0.07484677,-0.4378067,1.145349,-0.2129605,-0.1825245,1.1645,0.1719737,-0.06150221,1.023161,NA,NA,Unknown,NotTracked,
0.9365234,-0.2314453,-0.1621094,-0.4916992,0.8339844,0.2275391,1,-1,0,-2,2,0,2,-2,7,-2,-1,1,-2,1,-1,0,1.125,1.125,1.125,4.0625,4.0625,4.0625,1.432032,2.986102,7.016161,7.077979,5.81991,5.782246,-0.2136791,-0.4811596,1.10464,-0.08293846,0.06464861,1.074543,0.04205262,0.3636388,1.174537,-0.2464576,-0.4795449,1.078717,-0.02850802,0.1039513,1.093202,0.01397958,-0.1139942,1.194878,-0.004713947,-0.4534214,1.176759,-0.137659,0.06902825,1.156775,-0.07485399,-0.4377802,1.145356,-0.2129292,-0.1825324,1.164537,0.172153,-0.06139532,1.023337,NA,NA,Unknown,NotTracked,
0.9365234,-0.2314453,-0.1621094,-0.4912109,0.8383789,0.2255859,1,-1,0,-2,2,0,2,-2,3,-8,-1,-3,-3,2,2,5,1.125,1.125,1.125,1,1,1,1.432032,2.986102,7.016161,7.084442,5.819148,5.785888,-0.2134631,-0.4793556,1.104052,-0.08249209,0.06522361,1.073885,0.04201877,0.36367,1.174601,-0.2418993,-0.4877751,1.068133,-0.03040167,0.1050932,1.092708,0.01399753,-0.1139916,1.194881,-0.004585702,-0.4534045,1.176788,-0.1376682,0.06902962,1.156797,-0.07470984,-0.4377729,1.145431,-0.212856,-0.1825572,1.164554,0.1721616,-0.06135652,1.023301,NA,NA,Unknown,NotTracked,
0.9365234,-0.2314453,-0.1621094,-0.4951172,0.8476563,0.2270508,1,-1,0,-2,2,0,2,-2,-2,0,1,-1,0,2,-1,-1,1.125,1.125,1.125,0.375,0.375,0.375,1.432032,2.986102,7.016161,7.086124,5.815662,5.786355,-0.2142784,-0.4717126,1.10715,-0.08252661,0.06508603,1.074735,0.04197162,0.3637224,1.174619,-0.2573802,-0.4666718,1.11275,-0.03016917,0.1046942,1.093441,0.01399874,-0.1139718,1.194894,-0.004534997,-0.4533412,1.17686,-0.1377216,0.0690403,1.156852,-0.07462786,-0.4376467,1.145529,-0.2128707,-0.1825383,1.164771,0.1722077,-0.0614265,1.023397,NA,NA,Unknown,NotTracked,
0.9365234,-0.2314453,-0.1621094,-0.4887695,0.8515625,0.2304688,1,-1,0,-2,2,0,2,-2,-2,0,-2,0,-1,-2,-2,0,1.125,1.125,1.125,0.1875,0.1875,0.1875,1.432032,2.986102,7.016161,7.084616,5.811673,5.786269,-0.2130077,-0.4791662,1.105293,-0.08296145,0.06443752,1.07418,0.04188605,0.3637749,1.174654,-0.24779,-0.4697106,1.088654,-0.03376801,0.1044489,1.091826,0.01399236,-0.1139328,1.194901,-0.004549727,-0.4532461,1.176915,-0.1377784,0.06906207,1.156926,-0.07463463,-0.4375201,1.145632,-0.2127372,-0.1825721,1.16487,0.1721931,-0.06146394,1.023422,NA,NA,Unknown,NotTracked,
0.9365234,-0.2314453,-0.1621094,-0.4892578,0.8393555,0.2172852,1,-1,0,-2,2,0,2,-2,5,6,-1,-4,-10,-3,-3,-1,1.125,1.125,1.125,1,1,1,1.432032,2.986102,7.016161,7.085327,5.811729,5.78613,-0.21293,-0.4823037,1.10653,-0.08247953,0.06418656,1.074774,0.04181811,0.3638232,1.174719,-0.251363,-0.4711049,1.097336,-0.03375861,0.1044779,1.09189,0.013997,-0.1138939,1.194938,-0.004511294,-0.4531814,1.17705,-0.137792,0.06907957,1.156961,-0.07458428,-0.437427,1.145815,-0.2127004,-0.1825723,1.164888,0.1721968,-0.0614509,1.023431,NA,NA,Unknown,NotTracked,
0.9365234,-0.2314453,-0.1621094,-0.4931641,0.8432617,0.2338867,1,-1,0,-2,2,0,2,-2,5,0,2,0,2,4,0,-3,1.125,1.125,1.125,-0.8125,-0.8125,-0.8125,1.432032,2.986102,7.016161,7.085057,5.811738,5.786064,-0.2123707,-0.4818918,1.105999,-0.08246669,0.0651473,1.07425,0.04176443,0.3638831,1.174759,-0.2512366,-0.4640539,1.0977,-0.03341817,0.1060841,1.091519,0.01397215,-0.1138745,1.194954,-0.0045381,-0.4531602,1.177116,-0.1378053,0.06907886,1.156981,-0.0746091,-0.4374051,1.145934,-0.2126329,-0.1825987,1.164901,0.1725246,-0.0613734,1.023392,NA,NA,Unknown,NotTracked,
