ALX,ALY,ALZ,ARX,ARY,ARZ,EMG0L,EMG1L,EMG2L,EMG3L,EMG4L,EMG5L,EMG6L,EMG7L,EMG0R,EMG1R,EMG2R,EMG3R,EMG4R,EMG5R,EMG6R,EMG7R,GLX,GLY,GLZ,GRX,GRY,GRZ,ORL,OPL,OYL,ORR,OPR,OYR,LHNX,LHNY,LHNZ,RHNX,RHNY,RHNZ,HX,HY,HZ,LTX,LTY,LTZ,RTX,RTY,RTZ,SpineMidX,SpineMidY,SpineMidZ,SpineBaseX,SpineBaseY,SpineBaseZ,ShoulderLeftX,ShoulderLeftY,ShoulderLeftZ,ShoulderRightX,ShoulderRightY,ShoulderRightZ,ElbowLeftX,ElbowLeftY,ElbowLeftZ,ElbowRightX,ElbowRightY,ElbowRightZ,Myo_Pose_left,Myo_Pose_Right,Kinect_pose_left,Kinect_pose_right
0.9223633,-0.3305664,-0.06738281,-0.8671875,0.3051758,-0.4091797,-2,-2,0,-1,0,1,1,0,5,-6,-1,-3,-2,-5,9,19,-1.3125,-1.3125,-1.3125,0.5,0.5,0.5,2.147967,3.043337,7.517691,8.956002,6.661804,5.561144,-0.1876722,-0.4850429,1.089772,0.1861656,0.3920545,0.9958389,0.06443626,0.3287992,1.20152,-0.1475683,-0.479656,1.079621,0.1514421,0.3604887,1.038648,0.04574166,-0.08739973,1.185762,0.03361126,-0.4075458,1.164919,-0.1233787,0.09520611,1.179713,-0.01175422,-0.3934321,1.127814,-0.1811573,-0.1605536,1.169386,0.3418655,0.1512078,0.9924876,NA,NA,NotTracked,Open,
0.9243164,-0.3222656,-0.06884766,-0.8461914,0.3037109,-0.40625,0,-1,0,-2,0,-1,1,-1,6,3,-3,-4,-1,7,-2,5,0.0625,0.0625,0.0625,0.875,0.875,0.875,2.147967,3.043337,7.517691,8.954482,6.660021,5.560526,-0.1882258,-0.4862948,1.090253,0.185821,0.3921536,0.9958383,0.06443322,0.3287988,1.201512,-0.1460766,-0.4799447,1.078919,0.1512561,0.360602,1.037896,0.04573787,-0.08743052,1.185738,0.03359497,-0.4076079,1.164898,-0.1233764,0.09518577,1.179693,-0.01177454,-0.3935109,1.127797,-0.1810657,-0.1605957,1.169308,0.3418742,0.1511998,0.9924983,NA,NA,NotTracked,Open,
0.9238281,-0.3256836,-0.07128906,-0.8535156,0.2836914,-0.4140625,1,-2,-1,0,-2,-3,1,1,2,1,-6,-1,-3,-8,4,18,0.5625,0.5625,0.5625,0.1875,0.1875,0.1875,2.148057,3.043448,7.51774,8.956009,6.656976,5.56258,-0.1884932,-0.4852671,1.090314,0.1858554,0.3920794,0.9956414,0.06444182,0.3288212,1.201504,-0.1473636,-0.4736875,1.080806,0.1506616,0.3604439,1.03917,0.04574496,-0.08741378,1.185738,0.03358062,-0.4075699,1.164933,-0.1233941,0.09519221,1.1797,-0.01178616,-0.3934699,1.12783,-0.1810722,-0.1605893,1.169322,0.3418643,0.151173,0.9924921,NA,NA,NotTracked,Open,
0.9243164,-0.3291016,-0.06347656,-0.8540039,0.2973633,-0.4082031,-2,-1,-2,-3,2,-2,0,-1,-5,27,2,1,1,-1,-6,-11,2.125,2.125,2.125,-1.6875,-1.6875,-1.6875,2.151995,3.043302,7.516598,8.957104,6.654559,5.562518,-0.1884273,-0.4849048,1.090296,0.1852411,0.3911326,0.9957309,0.06437464,0.3290987,1.201742,-0.1475523,-0.4822105,1.081211,0.1509898,0.360117,1.040038,0.04566432,-0.08727119,1.185977,0.03356396,-0.4075728,1.164923,-0.123314,0.09536333,1.179701,-0.01178997,-0.393479,1.127838,-0.1809857,-0.1604241,1.169273,0.3419217,0.1511747,0.9925409,NA,NA,NotTracked,Open,
0.9248047,-0.3276367,-0.06591797,-0.8515625,0.284668,-0.4135742,-2,1,0,-1,-1,-2,-1,1,17,10,3,0,1,3,-8,-19,1.0625,1.0625,1.0625,-0.1875,-0.1875,-0.1875,2.15409,3.042514,7.518035,8.957433,6.65442,5.563973,-0.1881609,-0.4850236,1.090773,0.184579,0.3917584,0.9967397,0.06436771,0.3290658,1.201724,-0.145178,-0.4741659,1.07807,0.1479686,0.3618422,1.04047,0.04566788,-0.08727165,1.185974,0.03357291,-0.4075495,1.164935,-0.1233612,0.09533725,1.179726,-0.01177729,-0.3934532,1.127909,-0.1810302,-0.1604485,1.1693,0.3419516,0.1513452,0.9925691,NA,NA,NotTracked,Open,
0.921875,-0.3334961,-0.06884766,-0.8549805,0.2919922,-0.4160156,0,-2,-2,0,-1,-1,-1,0,-1,7,0,-3,-2,-5,0,1,0.375,0.375,0.375,-2.3125,-2.3125,-2.3125,2.154023,3.043063,7.518082,8.957678,6.653495,5.565824,-0.1883034,-0.4849598,1.091565,0.1847,0.3912064,0.9958954,0.06437679,0.3290929,1.201694,-0.1473187,-0.4776604,1.080094,0.1483738,0.3611403,1.037661,0.04568462,-0.08727533,1.18596,0.03356841,-0.4075573,1.164947,-0.1233886,0.09531689,1.179734,-0.01177953,-0.3934663,1.127927,-0.1811284,-0.160443,1.169432,0.34188,0.1513542,0.992542,NA,NA,NotTracked,Open,
0.921875,-0.3320313,-0.06494141,-0.8491211,0.2915039,-0.3974609,-1,-1,0,-1,1,-1,0,-1,2,16,4,1,-3,-4,5,30,-1.1875,-1.1875,-1.1875,-1,-1,-1,2.154086,3.043798,7.519267,8.958191,6.651786,5.5675,-0.1889583,-0.4852427,1.092093,0.1838207,0.3921333,0.9966015,0.06429832,0.32916,1.201766,-0.1469935,-0.4772503,1.079629,0.1471594,0.3579363,1.030133,0.04569824,-0.0872727,1.185963,0.03356321,-0.4075511,1.164977,-0.1233886,0.09531645,1.179734,-0.01177601,-0.3934641,1.127934,-0.1810965,-0.1604444,1.169522,0.3418794,0.151372,0.9925076,NA,NA,NotTracked,Open,
0.9204102,-0.3374023,-0.06933594,-0.8359375,0.3227539,-0.3725586,-3,-1,-2,-1,-2,-2,-2,-1,3,-5,-9,-3,-3,1,-1,14,-1.875,-1.875,-1.875,-14.5625,-14.5625,-14.5625,2.148377,3.044644,7.523152,8.950252,6.636756,5.581955,-0.1892169,-0.4846772,1.091604,0.1790241,0.3872175,0.9994079,0.06438744,0.3294185,1.201526,-0.1467501,-0.4736523,1.08007,0.1385309,0.3570022,1.031,0.04575342,-0.08717034,1.18582,0.03356054,-0.407532,1.164877,-0.1233496,0.09540743,1.179717,-0.01180207,-0.3934108,1.127812,-0.1810825,-0.1603471,1.169511,0.3417113,0.1515827,0.9923921,NA,NA,NotTracked,Open,
0.8984375,-0.3300781,-0.06298828,-0.8056641,0.3208008,-0.3671875,-1,0,-3,-2,-2,0,-1,-2,-18,-9,3,2,3,5,-7,-19,-0.125,-0.125,-0.125,-10.8125,-10.8125,-10.8125,2.146021,3.044975,7.524663,8.977756,6.611,5.641441,-0.189914,-0.4903623,1.089987,0.174134,0.3693366,1.008417,0.06498918,0.3300787,1.201279,-0.1513035,-0.4846875,1.089,0.1440413,0.3358261,1.036167,0.04565095,-0.08700103,1.185642,0.03295466,-0.4077123,1.164499,-0.1229232,0.09558012,1.179625,-0.01249569,-0.3934921,1.12739,-0.1809579,-0.1601054,1.169493,0.3425875,0.1503249,0.9924022,NA,NA,NotTracked,Open,
0.9306641,-0.3173828,-0.07470703,-0.8085938,0.2836914,-0.4780273,0,0,-2,0,-2,-1,0,0,-4,-6,-9,-7,-6,-2,15,77,4.1875,4.1875,4.1875,-13.25,-13.25,-13.25,2.157632,3.044376,7.518229,9.075479,6.543258,5.79727,-0.1895349,-0.4944748,1.087897,0.164973,0.3595193,1.019961,0.06667398,0.3301418,1.20042,-0.1480564,-0.4803201,1.080449,0.1332009,0.3246332,1.059167,0.04566477,-0.08686869,1.185394,0.03289477,-0.4079616,1.163953,-0.1225892,0.09565683,1.179462,-0.0127623,-0.3936609,1.126778,-0.1810676,-0.1599202,1.169468,0.3436729,0.1471801,0.9916755,NA,NA,NotTracked,Open,
0.9311523,-0.3320313,-0.07324219,-0.8457031,0.2592773,-0.7617188,-2,-1,0,-2,0,0,-2,-1,10,14,0,-2,-1,4,5,-19,2.75,2.75,2.75,-14.125,-14.125,-14.125,2.173059,3.042607,7.506481,9.143977,6.497971,5.896767,-0.1890514,-0.4899078,1.088723,0.1639071,0.3569967,1.024616,0.06814277,0.330263,1.199926,-0.1569993,-0.4985364,1.062333,0.1193234,0.3217951,1.063418,0.04589206,-0.08686012,1.185148,0.03295608,-0.4083469,1.163468,-0.1221386,0.09563426,1.179196,-0.01287702,-0.3939849,1.126192,-0.181621,-0.1596939,1.169397,0.3439152,0.1456656,0.9910527,NA,NA,NotTracked,Open,
0.918457,-0.3261719,-0.06591797,-0.8032227,0.3286133,-0.4785156,-2,-1,0,-1,-1,-2,0,-1,9,9,0,3,-2,-1,-7,-15,2.0625,2.0625,2.0625,15.875,15.875,15.875,2.181894,3.04204,7.503542,9.13298,6.523598,5.863915,-0.1901147,-0.494196,1.087964,0.1705745,0.3591981,1.019982,0.06857956,0.3305905,1.199896,-0.1563006,-0.5066687,1.0915,0.1551369,0.3215156,1.0687,0.04590914,-0.08678018,1.185015,0.0329096,-0.4085235,1.163191,-0.1218832,0.09570459,1.179075,-0.01302281,-0.3941114,1.125913,-0.1817024,-0.1595342,1.169476,0.344401,0.1442845,0.9906638,NA,NA,Unknown,Open,
0.9223633,-0.3344727,-0.07421875,-0.871582,0.2407227,-0.4814453,0,-2,-1,-3,-1,-1,0,-1,-11,0,8,4,3,-1,-11,-17,0.1875,0.1875,0.1875,5.5,5.5,5.5,2.175666,3.042592,7.510331,9.092589,6.557788,5.81057,-0.18983,-0.4955902,1.087155,0.1729332,0.3595253,1.017331,0.06868707,0.3307961,1.199819,-0.1459548,-0.4727339,1.0749,0.1702995,0.3168616,1.060143,0.04589346,-0.08664385,1.184839,0.03284352,-0.4085225,1.162867,-0.1217763,0.09572989,1.179029,-0.01317435,-0.3940704,1.125638,-0.1817153,-0.1594817,1.169418,0.3450342,0.1429083,0.9904515,NA,NA,NotTracked,Open,
0.9179688,-0.3325195,-0.06298828,-0.855957,0.328125,-0.4941406,-1,1,-1,1,-1,0,0,-1,3,-12,-1,-1,-3,-3,0,10,-1.5625,-1.5625,-1.5625,17.125,17.125,17.125,2.164845,3.04537,7.518285,9.094913,6.567517,5.790601,-0.1901971,-0.4957067,1.086963,0.1741998,0.3653882,1.013394,0.06874365,0.3309157,1.199719,-0.1459105,-0.4733086,1.0787,0.1759282,0.3228748,1.069286,0.04578724,-0.08653785,1.184658,0.03268441,-0.4084927,1.16264,-0.1215466,0.09584176,1.178949,-0.01340236,-0.3940189,1.125362,-0.1819297,-0.1592623,1.169374,0.3452948,0.1427606,0.9903768,NA,NA,Unknown,Open,
0.9179688,-0.3291016,-0.06005859,-0.8330078,0.2719727,-0.449707,-1,-1,-1,-1,2,1,-1,-1,4,-7,10,17,0,-1,4,20,-2.6875,-2.6875,-2.6875,15.8125,15.8125,15.8125,2.161382,3.047909,7.517916,9.058454,6.591284,5.710416,-0.1907446,-0.4867816,1.089878,0.1801472,0.3677118,1.004954,0.06880891,0.3309959,1.199668,-0.1531489,-0.4816538,1.071563,0.1772227,0.3260922,1.046722,0.0457419,-0.08647359,1.184605,0.03248786,-0.408432,1.162604,-0.1214781,0.09592126,1.178965,-0.01356684,-0.3940129,1.125372,-0.1818844,-0.1591801,1.169367,0.3454868,0.1428789,0.9904204,NA,NA,Unknown,Open,
0.9301758,-0.3183594,-0.05957031,-0.8222656,0.3193359,-0.4213867,0,-1,-1,-2,0,1,1,1,-7,3,-4,-3,1,18,7,11,-1,-1,-1,9.0625,9.0625,9.0625,2.16372,3.048704,7.514743,9.028639,6.603249,5.660366,-0.1911812,-0.486757,1.088977,0.1826021,0.3717908,0.998952,0.06861327,0.3310939,1.199604,-0.1500926,-0.4812774,1.08032,0.1854954,0.3304588,1.0513,0.04573293,-0.08640917,1.184531,0.03239812,-0.4083446,1.162554,-0.1214846,0.09597654,1.178996,-0.01367329,-0.3939594,1.125302,-0.1819102,-0.1591246,1.169327,0.3444382,0.1456558,0.9901049,NA,NA,Unknown,Open,
0.9262695,-0.3129883,-0.05712891,-0.8237305,0.3154297,-0.3803711,-1,0,-2,-1,-1,-3,0,0,34,4,22,12,-1,1,10,39,0.125,0.125,0.125,5.0625,5.0625,5.0625,2.16986,3.047312,7.508909,8.970792,6.623391,5.58271,-0.1921793,-0.4863016,1.089264,0.180889,0.3795514,0.9974707,0.0681225,0.3312445,1.19981,-0.1449822,-0.4589372,1.077091,0.1676254,0.3456064,1.04775,0.04574462,-0.08637175,1.184517,0.03245097,-0.4081978,1.162697,-0.1216614,0.09599766,1.17904,-0.01354808,-0.3938587,1.125469,-0.182016,-0.159126,1.169259,0.3433297,0.1483071,0.9899459,NA,NA,Unknown,Open,
0.9213867,-0.324707,-0.06347656,-0.8676758,0.2910156,-0.3886719,-2,-2,-3,-1,-1,0,-1,-2,0,-8,5,3,1,0,3,32,-0.8125,-0.8125,-0.8125,-8.25,-8.25,-8.25,2.172047,3.046938,7.506302,8.938437,6.638028,5.558824,-0.1912722,-0.4868776,1.08877,0.1804463,0.381255,0.9963311,0.06789314,0.3312791,1.199943,-0.1477984,-0.4690043,1.077824,0.1596529,0.3508756,1.0461,0.04580483,-0.08635259,1.184511,0.03256147,-0.4081038,1.162748,-0.1216917,0.09612924,1.179052,-0.01338401,-0.3937977,1.12545,-0.1819859,-0.159019,1.16913,0.3423939,0.1494435,0.989649,NA,NA,Unknown,Open,
0.9257813,-0.3266602,-0.07617188,-0.8105469,0.3876953,-0.3720703,0,-1,-1,-2,-2,-2,-2,-1,0,5,3,-2,2,-1,-1,-5,1.5,1.5,1.5,-20.5,-20.5,-20.5,2.172838,3.045453,7.506091,8.940845,6.639924,5.589489,-0.1898192,-0.4891869,1.088055,0.1794936,0.3774329,0.9966211,0.06776778,0.3314055,1.1999,-0.151085,-0.4801888,1.084458,0.1629655,0.3409204,1.034143,0.04590616,-0.08620073,1.18444,0.03263514,-0.4079019,1.16273,-0.121738,0.09613118,1.179077,-0.01327724,-0.393618,1.125437,-0.1819427,-0.1590372,1.169185,0.3414099,0.1503791,0.9891751,NA,NA,Unknown,Open,
0.9174805,-0.3374023,-0.07666016,-0.796875,0.3188477,-0.3745117,0,-1,0,-2,0,0,1,0,6,-11,3,-1,5,-9,1,-5,0.625,0.625,0.625,-15.3125,-15.3125,-15.3125,2.171369,3.045523,7.508825,8.975686,6.616038,5.671852,-0.189894,-0.4941703,1.085905,0.1729889,0.3742278,1.001653,0.06791531,0.3315567,1.199641,-0.1483866,-0.4805301,1.075,0.1461182,0.3395162,1.03225,0.04592068,-0.08605225,1.184279,0.03257934,-0.4078401,1.162552,-0.1216917,0.09614576,1.179073,-0.01333955,-0.3935062,1.125182,-0.1820337,-0.1589974,1.169026,0.3408341,0.1497329,0.9886395,NA,NA,Unknown,Open,
0.918457,-0.3198242,-0.07177734,-0.8012695,0.3056641,-0.4716797,1,-2,-2,-1,-1,-1,0,-1,-1,4,-2,-3,-1,0,12,26,1.5625,1.5625,1.5625,-16.75,-16.75,-16.75,2.165964,3.045544,7.517581,9.062518,6.565265,5.808141,-0.1904071,-0.4891676,1.088641,0.1613905,0.3674177,1.016452,0.06822511,0.3315585,1.199483,-0.1587179,-0.4976737,1.064371,0.1368779,0.3285525,1.0505,0.04592256,-0.08604622,1.184217,0.03257922,-0.4079891,1.162373,-0.1216358,0.09614235,1.179045,-0.01336102,-0.393589,1.125057,-0.182068,-0.1589785,1.169005,0.3404974,0.148295,0.9880861,NA,NA,Unknown,Open,
0.9165039,-0.3256836,-0.06738281,-0.7568359,0.1806641,-0.6987305,-1,-2,0,-2,0,-1,-1,-1,5,4,3,2,-3,2,-12,-47,4.8125,4.8125,4.8125,7.1875,7.1875,7.1875,2.156674,3.045126,7.531508,9.146599,6.523839,5.923641,-0.1907774,-0.4941241,1.086992,0.1620582,0.3647667,1.017454,0.06823397,0.3318038,1.199655,-0.1522064,-0.4821864,1.085368,0.1513826,0.3226138,1.055833,0.04596451,-0.08602744,1.184133,0.03267113,-0.4081582,1.162154,-0.121511,0.09612948,1.178994,-0.0133435,-0.3936834,1.124917,-0.1821141,-0.1589459,1.16903,0.3393677,0.1485316,0.9873644,NA,NA,Unknown,Open,
0.9370117,-0.3217773,-0.05712891,-0.8505859,0.4599609,-0.4536133,-1,-2,-1,0,-2,-1,1,-1,10,2,4,-1,-1,5,4,24,2.5625,2.5625,2.5625,16.625,16.625,16.625,2.163209,3.043307,7.532993,9.142675,6.54154,5.8931,-0.191278,-0.4973469,1.087849,0.1636124,0.3665418,1.016,0.06804252,0.3321536,1.199796,-0.1501523,-0.4827441,1.081466,0.1595731,0.3224868,1.058556,0.04599769,-0.08592608,1.18401,0.03267008,-0.4081611,1.161991,-0.1214949,0.09613939,1.178979,-0.01339454,-0.3936659,1.124853,-0.1821651,-0.158921,1.168991,0.3393088,0.1464022,0.9868723,NA,NA,Unknown,Open,
0.9321289,-0.3276367,-0.06347656,-0.8496094,0.2729492,-0.4492188,-1,0,-2,0,-2,-1,-1,0,2,9,1,0,-3,0,7,19,1.25,1.25,1.25,8.1875,8.1875,8.1875,2.166754,3.040143,7.533266,9.137816,6.544681,5.903327,-0.1898974,-0.4871268,1.091119,0.1615112,0.3656163,1.018689,0.06776223,0.3324899,1.200225,-0.1546648,-0.501638,1.070455,0.1507146,0.3234295,1.049998,0.04595372,-0.08589246,1.183961,0.03265892,-0.4082201,1.161872,-0.1214592,0.09614187,1.178967,-0.01341854,-0.3936992,1.124802,-0.1821904,-0.1588952,1.16914,0.3384902,0.147185,0.9864453,NA,NA,Unknown,Open,
0.9282227,-0.328125,-0.06542969,-0.7958984,0.2729492,-0.546875,-2,-1,-3,1,-2,0,-2,0,-1,-8,-6,-8,-5,3,-4,-33,-1.8125,-1.8125,-1.8125,-6.75,-6.75,-6.75,2.16627,3.036055,7.532277,9.161748,6.532052,5.932074,-0.189667,-0.4868101,1.091927,0.1608039,0.366275,1.020086,0.06742942,0.3330046,1.200843,-0.1631791,-0.5108607,1.05864,0.1536156,0.3216335,1.049828,0.04595785,-0.08582614,1.183905,0.03270939,-0.4082361,1.161774,-0.1214498,0.09610923,1.178977,-0.01338986,-0.3937011,1.124778,-0.1822029,-0.158911,1.169349,0.3378592,0.1477544,0.9861567,NA,NA,Unknown,Open,
0.9208984,-0.3129883,-0.078125,-0.7758789,0.2924805,-0.5043945,0,0,-2,-4,-1,1,-1,-2,-1,1,2,0,0,0,1,-19,0.25,0.25,0.25,6.875,6.875,6.875,2.173042,3.035205,7.525684,9.168307,6.53069,5.935503,-0.1889074,-0.4858344,1.091274,0.1599751,0.3665988,1.02049,0.06682857,0.3335096,1.201343,-0.1508128,-0.4732977,1.084164,0.1525303,0.3243617,1.054759,0.04594214,-0.08576462,1.183862,0.03277599,-0.4082476,1.161735,-0.1214327,0.09608082,1.178977,-0.01333993,-0.3937048,1.1248,-0.1821652,-0.1589365,1.169491,0.3368958,0.149077,0.9857926,NA,NA,NotTracked,Open,
0.9233398,-0.328125,-0.06347656,-0.7910156,0.2856445,-0.4790039,0,-1,-1,-2,-2,0,-2,-1,6,-8,-2,-3,-3,-7,-3,1,0.1875,0.1875,0.1875,-2.0625,-2.0625,-2.0625,2.185314,3.037396,7.511691,9.168279,6.530487,5.936518,-0.189125,-0.4974807,1.088086,0.1609985,0.3664575,1.022179,0.06653689,0.3338541,1.20173,-0.1497944,-0.4770107,1.080468,0.1524226,0.3243381,1.056259,0.04588871,-0.08567452,1.183839,0.03277883,-0.4082232,1.161678,-0.1214017,0.09605997,1.178984,-0.01335811,-0.393652,1.12478,-0.1821692,-0.1589382,1.169684,0.3369254,0.1489174,0.9857855,NA,NA,Unknown,Open,
0.9199219,-0.3310547,-0.06201172,-0.8012695,0.2773438,-0.4975586,-1,-1,-1,-1,0,-1,-1,0,12,5,-3,-1,0,-2,-2,21,-1.6875,-1.6875,-1.6875,2.25,2.25,2.25,2.184514,3.037607,7.511506,9.185093,6.535026,5.942795,-0.1886687,-0.4866216,1.091346,0.1604975,0.366551,1.022938,0.06624476,0.3341113,1.202014,-0.1518781,-0.4778099,1.087797,0.1544583,0.3245639,1.065375,0.04585423,-0.08561945,1.183823,0.03278536,-0.4082172,1.161666,-0.1213831,0.0960487,1.179026,-0.01335517,-0.3936602,1.124842,-0.1820735,-0.1589633,1.169814,0.3370011,0.1487083,0.9858062,NA,NA,Unknown,Open,
0.9248047,-0.328125,-0.06689453,-0.8232422,0.2578125,-0.5014648,-1,-2,-1,-1,0,-2,1,0,3,13,-2,-4,-3,-3,-1,-67,2.4375,2.4375,2.4375,4,4,4,2.185457,3.038075,7.512934,9.185367,6.537511,5.940411,-0.1881344,-0.4864259,1.091029,0.1605256,0.3667061,1.023361,0.06619034,0.3341948,1.202091,-0.1495866,-0.4771612,1.082225,0.1533532,0.3234528,1.055948,0.04584999,-0.08561127,1.183829,0.03278324,-0.4082857,1.161666,-0.1213606,0.09601499,1.179025,-0.01335914,-0.3937333,1.124857,-0.1820482,-0.1589951,1.169851,0.3371399,0.1488721,0.985953,NA,NA,NotTracked,Open,
0.9291992,-0.3232422,-0.06103516,-0.8144531,0.2612305,-0.5039063,-2,0,-1,0,-1,2,-2,-2,-11,1,5,0,-4,-2,1,-11,-0.0625,-0.0625,-0.0625,0.3125,0.3125,0.3125,2.182122,3.03801,7.518219,9.185858,6.536792,5.937496,-0.188133,-0.4875087,1.091017,0.1592407,0.368396,1.023414,0.06610967,0.3342333,1.202101,-0.1475065,-0.4756734,1.081682,0.147616,0.324533,1.048528,0.0458501,-0.08559841,1.183812,0.03279388,-0.4082898,1.161653,-0.1213671,0.09599493,1.179051,-0.0133548,-0.3937321,1.124875,-0.1820778,-0.1590039,1.169964,0.3370276,0.1494019,0.9860238,NA,NA,Unknown,Open,
0.925293,-0.3212891,-0.06298828,-0.8105469,0.269043,-0.5058594,-2,-2,0,0,0,-2,1,-1,-5,-13,-8,-4,-3,3,17,16,-1.1875,-1.1875,-1.1875,1.6875,1.6875,1.6875,2.179248,3.038147,7.520683,9.18678,6.536657,5.936231,-0.1878784,-0.4875958,1.091195,0.1597703,0.3673601,1.023669,0.066076,0.3342516,1.202064,-0.146869,-0.4731754,1.08048,0.1481711,0.3231466,1.058022,0.04579988,-0.08557176,1.183785,0.03274643,-0.4082996,1.161607,-0.121364,0.09598341,1.179062,-0.01350451,-0.3937473,1.124907,-0.1820435,-0.1590232,1.169969,0.3370662,0.1494821,0.9861003,NA,NA,NotTracked,Open,
0.9262695,-0.3286133,-0.06201172,-0.8085938,0.2597656,-0.4936523,-1,-2,-3,-3,0,-2,0,-1,-4,-2,0,0,1,10,1,-1,-0.125,-0.125,-0.125,0.9375,0.9375,0.9375,2.180003,3.038685,7.519909,9.190301,6.540351,5.935003,-0.1884186,-0.4882248,1.092077,0.1592261,0.3683303,1.025594,0.06605416,0.3342687,1.20207,-0.1485524,-0.4768686,1.080751,0.1553685,0.3228745,1.071333,0.0457915,-0.0855623,1.183794,0.0327618,-0.4083053,1.161613,-0.1213522,0.09596724,1.179093,-0.01349862,-0.3937565,1.12496,-0.1820531,-0.1590333,1.170004,0.3369682,0.1497856,0.9861261,NA,NA,Unknown,Open,
0.9228516,-0.3212891,-0.05029297,-0.7973633,0.2539063,-0.4936523,-1,-1,0,-1,-2,0,-2,0,-13,-15,-1,-2,-1,6,3,32,-0.25,-0.25,-0.25,-0.3125,-0.3125,-0.3125,2.180829,3.03867,7.519083,9.192206,6.542961,5.934388,-0.1881534,-0.4873929,1.091283,0.1595998,0.368378,1.025249,0.06605674,0.3342886,1.202064,-0.1459822,-0.4612166,1.08103,0.1250446,0.3251771,1.070333,0.04574293,-0.0855368,1.183788,0.03275012,-0.4082999,1.161607,-0.1213488,0.09596502,1.179101,-0.01352646,-0.3937575,1.124991,-0.1820309,-0.1590406,1.170004,0.337412,0.149175,0.9863175,NA,NA,Unknown,Open,
0.9272461,-0.3242188,-0.0546875,-0.8100586,0.2612305,-0.4975586,0,0,1,-2,-1,1,0,0,9,-3,-2,-5,-4,-3,2,23,2.6875,2.6875,2.6875,0.1875,0.1875,0.1875,2.183932,3.038359,7.519904,9.190553,6.547218,5.932432,-0.1877505,-0.4881309,1.09083,0.1588504,0.3679814,1.025409,0.06617918,0.3342541,1.201949,-0.147369,-0.4712842,1.079247,0.1554325,0.3210014,1.065077,0.04569388,-0.08551873,1.183773,0.03268189,-0.4083283,1.161547,-0.1213409,0.09596068,1.179105,-0.01364158,-0.3937652,1.124952,-0.1820477,-0.1590347,1.170079,0.3373543,0.1489979,0.9862519,NA,NA,Unknown,Open,
0.9179688,-0.3164063,-0.06396484,-0.8198242,0.2631836,-0.4956055,-1,0,-1,-1,-1,-3,-1,-3,-9,-5,-2,1,-1,-10,-9,-15,4.0625,4.0625,4.0625,-6.0625,-6.0625,-6.0625,2.194364,3.038532,7.515632,9.178861,6.548626,5.92554,-0.187977,-0.4882554,1.090261,0.1589917,0.3674874,1.024104,0.06622102,0.3342292,1.201892,-0.1478587,-0.4728703,1.078751,0.1547563,0.3215507,1.069583,0.04568069,-0.08550356,1.183721,0.0326828,-0.4083205,1.161384,-0.12128,0.09595444,1.179084,-0.01366733,-0.3937691,1.124862,-0.1820342,-0.1590297,1.170055,0.3379424,0.147844,0.986413,NA,NA,Unknown,Open,
0.9287109,-0.3286133,-0.05517578,-0.8442383,0.2592773,-0.4951172,-2,-1,0,0,-1,0,0,0,-5,11,1,-1,-1,-1,-3,-16,-1.0625,-1.0625,-1.0625,-0.25,-0.25,-0.25,2.205077,3.038391,7.506043,9.173282,6.54964,5.921803,-0.1871703,-0.4879524,1.090103,0.1587393,0.3681212,1.022816,0.06620692,0.3342341,1.201898,-0.1493018,-0.4942122,1.083833,0.1187543,0.3280379,1.067,0.04567709,-0.08548846,1.183702,0.03269812,-0.4083071,1.161251,-0.121272,0.09594031,1.179089,-0.01371239,-0.3937713,1.124848,-0.1820485,-0.1590377,1.170066,0.3377159,0.1487503,0.9864157,NA,NA,NotTracked,Open,
0.925293,-0.3208008,-0.07519531,-0.8286133,0.2749023,-0.4985352,-2,-1,1,0,0,-2,-1,-1,3,0,-1,0,-3,1,3,1,-0.3125,-0.3125,-0.3125,0.3125,0.3125,0.3125,2.207719,3.036967,7.502166,9.17255,6.549567,5.920238,-0.1873244,-0.4936587,1.086171,0.1584067,0.3680563,1.023128,0.06619352,0.3342379,1.201907,-0.1482326,-0.4830632,1.080768,0.1485125,0.3236053,1.06925,0.04566449,-0.08548497,1.183627,0.0327344,-0.4083267,1.161024,-0.1212701,0.09593017,1.179093,-0.01369642,-0.3938025,1.124659,-0.1820422,-0.1590499,1.170048,0.3373143,0.1491549,0.9862474,NA,NA,NotTracked,Open,
0.9257813,-0.3261719,-0.06445313,-0.8066406,0.246582,-0.4980469,-1,0,-1,-2,0,-1,-3,0,-7,-3,-2,-3,-4,-17,-5,2,0.0625,0.0625,0.0625,-2.8125,-2.8125,-2.8125,2.207971,3.036592,7.501082,9.17847,6.550898,5.929794,-0.1875326,-0.4976299,1.085715,0.159003,0.3674447,1.022181,0.06614099,0.3342493,1.20188,-0.1416908,-0.4651041,1.072445,0.1254552,0.3288331,1.06975,0.04559249,-0.08544744,1.183533,0.03271384,-0.4083206,1.160807,-0.1212607,0.09588866,1.179078,-0.01376224,-0.3938013,1.124495,-0.1819803,-0.1591101,1.169924,0.3378007,0.1480327,0.9862899,NA,NA,Unknown,Open,
0.9291992,-0.324707,-0.0625,-0.8217773,0.2563477,-0.4887695,-1,0,-1,-1,-2,-1,-1,0,5,-7,-5,-2,-1,-1,-4,10,-0.75,-0.75,-0.75,2.25,2.25,2.25,2.20137,3.036067,7.5074,9.185121,6.552434,5.934981,-0.1865011,-0.4872334,1.088872,0.1589092,0.3690614,1.022713,0.06615458,0.3342514,1.201822,-0.1455288,-0.4766099,1.077908,0.1277713,0.327602,1.068364,0.04556921,-0.08543037,1.183502,0.03271095,-0.4083362,1.160685,-0.1212359,0.09587837,1.179064,-0.01379798,-0.3938105,1.124448,-0.181955,-0.1591191,1.169936,0.3379134,0.1470442,0.9861358,NA,NA,NotTracked,Open,
0.9262695,-0.3232422,-0.05712891,-0.8164063,0.2661133,-0.4667969,-2,-1,0,0,1,-1,0,-1,-3,0,2,-2,-8,-5,2,-30,1.1875,1.1875,1.1875,-1.375,-1.375,-1.375,2.194013,3.035601,7.516864,9.18399,6.556135,5.93382,-0.1868609,-0.4879987,1.08925,0.1597825,0.3686848,1.023322,0.06614321,0.3342517,1.201784,-0.1450274,-0.4755505,1.077466,0.1307799,0.3309443,1.0728,0.04556641,-0.08540116,1.183428,0.03276644,-0.4083068,1.160551,-0.1211848,0.09586653,1.179029,-0.0137591,-0.3937957,1.124349,-0.1819011,-0.1591315,1.16991,0.3377467,0.1468199,0.9859446,NA,NA,NotTracked,Open,
0.9262695,-0.3198242,-0.046875,-0.8085938,0.2524414,-0.4897461,-1,0,0,-2,-1,1,0,-2,8,3,0,-1,0,0,-2,-5,-0.8125,-0.8125,-0.8125,0.4375,0.4375,0.4375,2.187411,3.032508,7.524921,9.185783,6.561248,5.934646,-0.1864019,-0.4872481,1.088918,0.1593815,0.3683996,1.023147,0.06622908,0.3341834,1.201555,-0.1468775,-0.4841975,1.079905,0.1065824,0.3261144,1.0644,0.04554803,-0.08538395,1.183308,0.03286044,-0.4083477,1.160327,-0.1211812,0.09585439,1.179014,-0.01369104,-0.3938543,1.124172,-0.1817527,-0.1591889,1.169728,0.3374406,0.1472203,0.9857751,NA,NA,NotTracked,Open,
0.9233398,-0.3208008,-0.05712891,-0.8178711,0.2729492,-0.4858398,-2,0,0,0,-1,1,0,0,-8,11,5,0,-2,2,1,6,-0.125,-0.125,-0.125,-1.875,-1.875,-1.875,2.18618,3.032654,7.525578,9.180139,6.562534,5.929097,-0.186532,-0.4899693,1.087858,0.1587032,0.3687541,1.022533,0.06629506,0.3340831,1.201296,-0.1455255,-0.4750694,1.077553,0.1127363,0.3282394,1.066178,0.04552638,-0.08537101,1.183163,0.03291148,-0.4083389,1.160095,-0.1211225,0.09583028,1.178916,-0.01367194,-0.3938596,1.123919,-0.1816055,-0.1592458,1.169446,0.3375732,0.1463444,0.985534,NA,NA,NotTracked,Open,
0.9267578,-0.3227539,-0.06152344,-0.8339844,0.2553711,-0.4926758,0,0,1,-1,-1,2,-1,-1,-19,-18,1,2,-1,-2,0,-8,2.125,2.125,2.125,0.1875,0.1875,0.1875,2.192459,3.034333,7.522491,9.17672,6.562116,5.926268,-0.1866827,-0.4909824,1.087305,0.1597719,0.3675392,1.021711,0.06631227,0.3339882,1.201039,-0.1453687,-0.4729369,1.076651,0.1395436,0.3235261,1.062815,0.04550212,-0.08536015,1.183037,0.03290327,-0.4083518,1.159913,-0.121075,0.09581196,1.178848,-0.01370331,-0.3938728,1.123759,-0.1815734,-0.1592621,1.169355,0.3377456,0.1459116,0.9854275,NA,NA,NotTracked,Open,
0.9267578,-0.324707,-0.06347656,-0.8232422,0.2788086,-0.480957,-2,-2,-2,0,-1,-1,0,-1,-3,-20,-7,-3,-1,4,1,7,0.875,0.875,0.875,0.4375,0.4375,0.4375,2.195958,3.035422,7.52066,9.174279,6.561566,5.920422,-0.1858784,-0.4888982,1.087317,0.1602211,0.3671585,1.021931,0.06627573,0.3339695,1.200935,-0.1483935,-0.4958269,1.0825,0.1536174,0.3234518,1.069364,0.0454943,-0.08533409,1.182914,0.03287878,-0.4083064,1.159749,-0.1210411,0.09580968,1.178822,-0.01374552,-0.3937847,1.12359,-0.1814983,-0.1592779,1.169275,0.3376406,0.146454,0.9853889,NA,NA,NotTracked,Unknown,
0.9262695,-0.3217773,-0.06591797,-0.8266602,0.2646484,-0.4897461,-1,-1,-1,0,-2,0,-1,0,-5,-15,-2,1,2,2,2,-3,-1.9375,-1.9375,-1.9375,2.0625,2.0625,2.0625,2.19505,3.036344,7.520568,9.17576,6.562693,5.919304,-0.1865114,-0.4888709,1.086372,0.1609223,0.3669843,1.02167,0.06633513,0.3339294,1.200792,-0.1460045,-0.4745484,1.077853,0.1348417,0.3277289,1.067608,0.0455038,-0.08530345,1.182792,0.0328605,-0.4082674,1.159517,-0.1209707,0.09581585,1.178756,-0.0137989,-0.3937146,1.123284,-0.1814708,-0.1592652,1.169153,0.3381904,0.1453939,0.9854652,NA,NA,NotTracked,Open,
