ALX,ALY,ALZ,ARX,ARY,ARZ,EMG0L,EMG1L,EMG2L,EMG3L,EMG4L,EMG5L,EMG6L,EMG7L,EMG0R,EMG1R,EMG2R,EMG3R,EMG4R,EMG5R,EMG6R,EMG7R,GLX,GLY,GLZ,GRX,GRY,GRZ,ORL,OPL,OYL,ORR,OPR,OYR,LHNX,LHNY,LHNZ,RHNX,RHNY,RHNZ,HX,HY,HZ,LTX,LTY,LTZ,RTX,RTY,RTZ,SpineMidX,SpineMidY,SpineMidZ,SpineBaseX,SpineBaseY,SpineBaseZ,ShoulderLeftX,ShoulderLeftY,ShoulderLeftZ,ShoulderRightX,ShoulderRightY,ShoulderRightZ,ElbowLeftX,ElbowLeftY,ElbowLeftZ,ElbowRightX,ElbowRightY,ElbowRightZ,Myo_Pose_left,Myo_Pose_Right,Kinect_pose_left,Kinect_pose_right
0.8876953,0.3803711,-0.09130859,0.9150391,-0.3642578,-0.1181641,-2,-1,-1,-2,0,-1,1,-1,0,0,0,-1,-1,0,0,-2,-2,-2,-2,1,1,1,7.967597,3.170263,2.014982,1.979398,3.142532,7.406416,-0.08951628,-0.4824519,1.614869,0.2916306,-0.4755221,1.591723,0.1018237,0.3514686,1.722379,-0.03656062,-0.4655864,1.589734,0.2438296,-0.4737084,1.579217,0.1079588,-0.1056239,1.72026,0.112642,-0.4312771,1.692218,-0.07002655,0.07929469,1.711797,0.03134346,-0.4233063,1.656205,-0.1123878,-0.1914651,1.711455,0.3247716,-0.1854172,1.683338,NA,NA,NotTracked,NotTracked,
0.8920898,0.3813477,-0.08740234,0.9169922,-0.3681641,-0.112793,0,-1,-1,-2,-1,0,-2,0,-1,-1,-1,0,0,0,0,0,-1.5625,-1.5625,-1.5625,2,2,2,7.962911,3.170107,2.015594,1.979297,3.141849,7.410516,-0.08996534,-0.4828158,1.614963,0.2914183,-0.4756794,1.59084,0.1018973,0.3514729,1.722372,-0.03746935,-0.4560214,1.589555,0.2429084,-0.4873688,1.578609,0.1079785,-0.1056344,1.720236,0.1125076,-0.4313102,1.692191,-0.06995477,0.07942348,1.711636,0.03120597,-0.4232621,1.656129,-0.1124862,-0.1914057,1.711386,0.3246532,-0.1853772,1.683341,NA,NA,NotTracked,NotTracked,
0.8896484,0.3764648,-0.08984375,0.9145508,-0.3676758,-0.1123047,1,-2,-2,-2,-1,-1,-1,-3,-2,-1,-1,-1,0,-1,-2,-1,-1.875,-1.875,-1.875,1.3125,1.3125,1.3125,7.960884,3.16948,2.013268,1.979277,3.141152,7.41401,-0.0908618,-0.4801234,1.615349,0.2910269,-0.4756584,1.58998,0.102044,0.3515142,1.722381,-0.0360413,-0.4820435,1.587156,0.243753,-0.478875,1.578732,0.1079842,-0.1055926,1.720173,0.1124377,-0.4312586,1.692083,-0.06989398,0.07948349,1.711485,0.03112595,-0.4231871,1.655995,-0.1124947,-0.1914349,1.711351,0.3245694,-0.1854145,1.683342,NA,NA,NotTracked,NotTracked,
0.8916016,0.3813477,-0.08496094,0.9165039,-0.3696289,-0.112793,0,0,-3,-2,-2,-1,-3,1,-2,-1,-1,-3,0,-3,-2,-2,-0.375,-0.375,-0.375,0.5625,0.5625,0.5625,7.957418,3.169919,2.013922,1.981669,3.140873,7.41336,-0.09058338,-0.4801682,1.615631,0.2908959,-0.4758923,1.590665,0.1021589,0.3516394,1.722612,-0.03787396,-0.4588935,1.589571,0.2429108,-0.4875545,1.578883,0.1079353,-0.1055781,1.720125,0.1123179,-0.4312457,1.692068,-0.06990067,0.07952794,1.711523,0.03101836,-0.4231611,1.65598,-0.1126542,-0.1911482,1.711454,0.324483,-0.1853877,1.683452,NA,NA,NotTracked,NotTracked,
0.8925781,0.3769531,-0.08496094,0.921875,-0.3652344,-0.1210938,-1,-1,-1,-1,0,-1,1,1,-1,-2,-1,-1,-1,-1,1,1,0.6875,0.6875,0.6875,-0.3125,-0.3125,-0.3125,7.956951,3.170035,2.013548,1.982517,3.140849,7.412641,-0.09078052,-0.4802454,1.615666,0.2911373,-0.4758489,1.591577,0.1022328,0.3516935,1.722581,-0.03749657,-0.4626929,1.588893,0.2437438,-0.4802425,1.579085,0.1079203,-0.1055829,1.720115,0.1122261,-0.4312641,1.692015,-0.06987889,0.07952772,1.711425,0.03090638,-0.4231383,1.655859,-0.1127402,-0.1912285,1.711432,0.3244138,-0.1854704,1.683494,NA,NA,NotTracked,NotTracked,
0.9047852,0.3979492,-0.09667969,0.9174805,-0.3662109,-0.1210938,5,-6,-7,-1,1,-1,2,1,0,-1,-1,-3,-1,0,0,-3,2.1875,2.1875,2.1875,0.6875,0.6875,0.6875,7.960401,3.171894,2.0122,1.982667,3.140845,7.412622,-0.09077775,-0.4809537,1.615395,0.2906935,-0.4758464,1.590812,0.10236,0.3516767,1.722636,-0.03812125,-0.4521317,1.589451,0.2428875,-0.4761519,1.579486,0.1079037,-0.1055834,1.7201,0.1121382,-0.4312794,1.691989,-0.06987794,0.07955468,1.711443,0.03082565,-0.4231213,1.655823,-0.1127282,-0.1914101,1.711376,0.324374,-0.185425,1.68354,NA,NA,NotTracked,NotTracked,
0.9863281,0.7280273,-0.09423828,0.9243164,-0.3666992,-0.1186523,-6,-9,-4,-3,0,0,-2,-2,-1,-2,-2,-1,-2,-3,0,-2,-113.3125,-113.3125,-113.3125,0.5625,0.5625,0.5625,7.870434,3.238648,2.011811,1.984045,3.14079,7.414107,-0.09100642,-0.4826784,1.615167,0.289529,-0.4736279,1.588764,0.1024099,0.351731,1.722702,-0.03738609,-0.4610454,1.588971,0.2420788,-0.4424039,1.578284,0.1078841,-0.1055845,1.720082,0.1120271,-0.4312489,1.691931,-0.06988141,0.07962815,1.711408,0.03072856,-0.4230939,1.655769,-0.1127683,-0.1912753,1.711307,0.3242902,-0.1849336,1.683556,NA,NA,NotTracked,NotTracked,
1.097168,0.7749023,0.1049805,0.9150391,-0.3730469,-0.1230469,2,-1,7,18,11,0,2,1,0,-1,-1,0,-2,0,-2,-1,-171.5625,-171.5625,-171.5625,-4.75,-4.75,-4.75,7.392343,3.378573,2.22509,1.97363,3.140279,7.415116,-0.09166278,-0.4799914,1.615561,0.2804522,-0.4634303,1.56893,0.1024118,0.3517504,1.722822,-0.03639896,-0.485471,1.58778,0.2698477,-0.5105449,1.59125,0.1077834,-0.1056016,1.720145,0.1118795,-0.4312854,1.691983,-0.06993377,0.07962085,1.711404,0.03061894,-0.4230838,1.655781,-0.1128776,-0.1912446,1.711271,0.3243111,-0.1815557,1.685459,NA,NA,NotTracked,NotTracked,
1.005859,1.090332,0.4692383,0.9213867,-0.3510742,-0.1308594,1,-7,-6,1,-2,1,1,-4,-2,-1,-1,-1,0,-2,0,0,-101.0625,-101.0625,-101.0625,-4.625,-4.625,-4.625,6.977111,3.713638,2.489349,1.970455,3.144267,7.409993,-0.09222192,-0.4797207,1.614055,0.2617957,-0.4090809,1.493072,0.1021973,0.35176,1.723083,-0.03822602,-0.4575303,1.587716,0.2311094,-0.4223082,1.5275,0.1073383,-0.1056467,1.720141,0.1103278,-0.4313943,1.691803,-0.07002324,0.07969244,1.711364,0.02903273,-0.4228665,1.655487,-0.1133934,-0.1906261,1.711154,0.3242473,-0.1753334,1.690395,NA,NA,NotTracked,Unknown,
0.4423828,0.9848633,0.6582031,0.9130859,-0.3691406,-0.112793,-7,-12,-33,-34,-12,-7,-6,-4,-3,0,-2,-2,-1,-3,-1,-2,-103.125,-103.125,-103.125,-2,-2,-2,6.620333,4.423679,2.725137,1.973763,3.15005,7.402588,-0.09227668,-0.4795763,1.614098,0.2337279,-0.2912737,1.429809,0.1017561,0.3517786,1.723694,-0.03816807,-0.4604597,1.588701,0.186332,-0.3084729,1.5,0.1065587,-0.1057853,1.720407,0.108116,-0.4316188,1.69197,-0.07027693,0.07980251,1.711782,0.02735252,-0.4228742,1.655698,-0.1136368,-0.1905073,1.7111,0.3234548,-0.1612629,1.691692,NA,NA,NotTracked,Unknown,
0.1518555,0.8173828,0.590332,0.9213867,-0.3740234,-0.1259766,10,10,18,22,7,7,6,8,-1,0,-1,-3,-2,-2,-1,-1,-36.875,-36.875,-36.875,-3.625,-3.625,-3.625,6.499256,5.065896,2.827008,1.960993,3.154117,7.406483,-0.09256893,-0.4793551,1.614029,0.2131602,-0.1361778,1.386459,0.1010486,0.3517181,1.724666,-0.03851113,-0.4561363,1.587829,0.157911,-0.1153017,1.3896,0.1062545,-0.1057846,1.72086,0.1080223,-0.4314064,1.692117,-0.07034389,0.07981585,1.712039,0.02728221,-0.4228473,1.655928,-0.1139699,-0.1909404,1.711127,0.3434948,-0.1349362,1.64646,NA,NA,NotTracked,Open,
-0.109375,0.7993164,0.5786133,0.9223633,-0.3789063,-0.1333008,-5,-3,-7,-12,-10,-7,-8,-11,-3,-1,-1,0,-3,-1,1,-2,-34.25,-34.25,-34.25,-5.8125,-5.8125,-5.8125,6.475739,5.496548,2.892353,1.95145,3.160618,7.407291,-0.09412648,-0.4785292,1.613844,0.2106784,0.02358821,1.397094,0.1011286,0.3513388,1.726938,-0.03840838,-0.4756204,1.585982,0.1528342,0.07123348,1.424,0.1054831,-0.1065544,1.722371,0.1077603,-0.4318438,1.692822,-0.06994492,0.07973072,1.712687,0.02709105,-0.4236554,1.657362,-0.1145978,-0.1913218,1.711151,0.3262698,-0.1398525,1.584352,NA,NA,NotTracked,Unknown,
-0.387207,0.3857422,0.5297852,0.921875,-0.378418,-0.1303711,-16,-18,-2,2,3,1,-2,-5,-1,-2,0,-1,-1,-1,-2,-1,-4.625,-4.625,-4.625,-0.3125,-0.3125,-0.3125,6.50747,6.269166,3.040029,1.958347,3.172963,7.395831,-0.09508529,-0.4776949,1.614124,0.2233747,0.1366383,1.4439,0.09998408,0.3513346,1.729562,-0.03974893,-0.4606903,1.588577,0.274639,0.1482789,1.48,0.1046649,-0.1067329,1.723277,0.1067975,-0.4324773,1.692781,-0.06974227,0.0797304,1.71424,0.02548614,-0.4245546,1.659238,-0.115429,-0.1895473,1.711941,0.3221066,-0.09850512,1.550679,NA,NA,NotTracked,Unknown,
-0.5581055,0.2392578,0.2368164,0.902832,-0.3925781,-0.1142578,-8,14,3,1,-2,-2,-3,-6,0,-1,-2,-1,0,-3,-1,-2,-4.375,-4.375,-4.375,4.75,4.75,4.75,6.821096,6.865959,3.426224,1.976387,3.187863,7.382431,-0.09535822,-0.4777573,1.612814,0.2313309,0.1964118,1.492307,0.09916876,0.3513804,1.731985,-0.03983975,-0.4966657,1.584601,0.2397924,0.2118171,1.462705,0.1051004,-0.1055281,1.723914,0.1049528,-0.4314657,1.692632,-0.06841418,0.08004344,1.716054,0.02301702,-0.4231135,1.659838,-0.1166557,-0.1831019,1.714353,0.3462422,-0.0995659,1.525243,NA,NA,NotTracked,Unknown,
-0.6264648,0.1660156,0.03808594,0.8984375,-0.3789063,-0.1186523,19,12,3,1,1,5,12,18,-1,-2,-1,0,-2,0,-1,-1,-6.0625,-6.0625,-6.0625,11.125,11.125,11.125,7.581006,7.136116,4.238449,1.981667,3.190206,7.394693,-0.09750169,-0.4752106,1.615601,0.2191876,0.2462185,1.550932,0.0987976,0.3513707,1.734059,-0.04304794,-0.4587469,1.58959,0.2314649,0.2785315,1.53855,0.1048578,-0.1051418,1.723925,0.1033229,-0.4304629,1.692302,-0.06699459,0.08031884,1.71751,0.02132093,-0.4219044,1.660038,-0.1173091,-0.1829275,1.715094,0.3156064,0.0317881,1.455315,NA,NA,NotTracked,Closed,
-0.7998047,0.09228516,-0.2353516,0.8999023,-0.3759766,-0.1240234,-7,-4,1,3,0,-3,-8,-9,-2,-2,0,-2,0,-2,-2,-2,-4.9375,-4.9375,-4.9375,5.4375,5.4375,5.4375,8.812677,7.175147,5.503638,1.971562,3.183689,7.420263,-0.09930596,-0.4754268,1.617401,0.1884486,0.2899231,1.613451,0.09877617,0.3510824,1.735578,-0.0445236,-0.4579222,1.590317,0.1626888,0.3880354,1.606083,0.1045904,-0.1045649,1.72375,0.1018532,-0.4293501,1.691615,-0.0662573,0.08068293,1.718211,0.01969075,-0.4204964,1.660103,-0.1179154,-0.1825276,1.715762,0.3155284,0.03289853,1.454852,NA,NA,NotTracked,NotTracked,
-0.8618164,0.09814453,-0.1826172,0.9331055,-0.3891602,-0.1396484,-4,-15,-8,0,3,5,8,2,0,-1,-3,-2,-3,-1,1,0,-13.875,-13.875,-13.875,6.375,6.375,6.375,8.984507,7.151023,5.697522,1.954424,3.176266,7.453602,-0.1002449,-0.4767629,1.620303,0.1862064,0.2886858,1.618838,0.09904931,0.3506174,1.736907,-0.04318228,-0.4598914,1.589916,0.1392131,0.2358502,1.650591,0.1043437,-0.1039446,1.723632,0.1008321,-0.4285443,1.691333,-0.06581271,0.08107512,1.719442,0.01847659,-0.4194966,1.660589,-0.1186613,-0.1826946,1.716658,0.3139148,0.0311842,1.454596,NA,NA,NotTracked,NotTracked,
-0.949707,0.1206055,-0.3208008,0.8999023,-0.3823242,-0.1391602,-1,-44,-22,-6,2,0,7,1,-1,-1,0,-1,0,-1,0,1,-4.25,-4.25,-4.25,0.25,0.25,0.25,8.90989,7.166453,5.62942,1.948837,3.170031,7.464427,-0.09986298,-0.4764645,1.621032,0.1860874,0.2864175,1.617061,0.09903972,0.3505449,1.737732,-0.04276078,-0.4940163,1.586091,0.2112222,0.2138626,1.666533,0.1042679,-0.1033184,1.723369,0.100045,-0.4277303,1.690837,-0.06556706,0.08115395,1.719633,0.01764872,-0.4186608,1.660666,-0.1190592,-0.1827236,1.717968,0.3120321,0.0316587,1.45379,NA,NA,NotTracked,NotTracked,
-1.169922,-0.08837891,-0.5483398,0.8833008,-0.4257813,-0.1254883,-6,-3,0,5,16,5,6,-4,-1,0,-2,-1,-2,0,0,-1,14.4375,14.4375,14.4375,-1.8125,-1.8125,-1.8125,7.809269,7.23858,4.501291,1.950652,3.168588,7.460106,-0.1008349,-0.4778109,1.623637,0.1886605,0.2876296,1.608828,0.09895977,0.3506849,1.73844,-0.04623765,-0.4506272,1.590838,0.2084528,0.2174748,1.64915,0.1042544,-0.103042,1.723258,0.09965685,-0.4274523,1.690672,-0.06521686,0.08115894,1.71989,0.01716961,-0.4182546,1.660866,-0.1192322,-0.1826105,1.719486,0.3099302,0.03017007,1.453464,NA,NA,NotTracked,NotTracked,
-0.9414063,0.1235352,0.01464844,0.9145508,-0.402832,-0.1298828,5,-36,-18,-14,-4,-7,-4,-1,0,-2,-1,0,-2,0,-1,0,-2.25,-2.25,-2.25,-5.4375,-5.4375,-5.4375,6.338698,6.977573,2.985312,1.942444,3.16519,7.463471,-0.1030454,-0.4746927,1.624457,0.2384292,0.2403003,1.48432,0.0989593,0.3506491,1.739138,-0.04935937,-0.4486295,1.593727,0.2139776,0.2447074,1.5825,0.1038858,-0.1033288,1.723202,0.09941348,-0.4279356,1.690472,-0.06473389,0.08086826,1.720009,0.01698061,-0.4186805,1.660659,-0.1196043,-0.1838539,1.720051,0.3070288,0.03477836,1.448961,NA,NA,NotTracked,Closed,
-0.4511719,0.3813477,0.7314453,0.9155273,-0.3803711,-0.1464844,-23,-36,-21,-9,-10,-23,-22,-30,-1,-2,-2,-3,-1,0,-1,-1,30.6875,30.6875,30.6875,-13,-13,-13,6.033926,6.558812,2.599552,1.921363,3.169046,7.462081,-0.1037154,-0.475278,1.6239,0.2489123,0.2430785,1.391382,0.09951625,0.3508115,1.742061,-0.04760889,-0.4696257,1.592428,0.2061854,0.2613061,1.4022,0.1035547,-0.1039479,1.723208,0.09943328,-0.4287207,1.690233,-0.06409305,0.08089767,1.720696,0.01713451,-0.419687,1.660056,-0.1198569,-0.1855979,1.720434,0.2953081,0.07296513,1.441543,NA,NA,NotTracked,Unknown,
-0.293457,0.4604492,0.9892578,0.9160156,-0.3886719,-0.1298828,-5,12,-3,1,-3,0,3,2,-1,-2,-1,-1,0,-1,0,-2,7.9375,7.9375,7.9375,-8.5,-8.5,-8.5,5.972257,6.290821,2.49174,1.931832,3.180887,7.430157,-0.1033572,-0.4741904,1.621891,0.2587963,0.2359038,1.331828,0.09986664,0.3506311,1.745042,-0.04985556,-0.4491344,1.594945,0.2156658,0.2580238,1.365857,0.1036239,-0.1043608,1.723862,0.09950657,-0.428826,1.690193,-0.06543791,0.08114932,1.722129,0.01744031,-0.420093,1.659972,-0.1201065,-0.1863272,1.720812,0.2969547,0.06054207,1.433069,NA,NA,NotTracked,Unknown,
-0.7270508,0.4306641,0.730957,0.9208984,-0.3808594,-0.125,2,-4,6,-3,-6,1,5,4,-2,-2,-2,-3,0,-2,-1,0,-10.3125,-10.3125,-10.3125,11.1875,11.1875,11.1875,5.939218,6.181013,2.43945,1.966466,3.193128,7.407331,-0.1031835,-0.4724217,1.619089,0.2619054,0.2263769,1.316222,0.1001988,0.3510142,1.745968,-0.04932813,-0.4535866,1.593899,0.2141274,0.2688982,1.375023,0.1036981,-0.1047448,1.72455,0.09956347,-0.4289801,1.690206,-0.06589903,0.08113435,1.722564,0.01768024,-0.4206003,1.660069,-0.1202338,-0.1864063,1.720871,0.2994613,0.05162293,1.424459,NA,NA,NotTracked,Closed,
-0.7416992,0.4360352,0.652832,0.8798828,-0.3686523,-0.1494141,13,30,4,0,-4,2,-4,-5,1,0,-1,2,-2,0,-1,0,-10.1875,-10.1875,-10.1875,-4.375,-4.375,-4.375,5.908842,6.171875,2.427204,1.954331,3.190615,7.423881,-0.1036065,-0.4724772,1.620091,0.2619728,0.2249385,1.316056,0.1005213,0.3513902,1.746711,-0.04991109,-0.4521563,1.5947,0.214573,0.270535,1.3878,0.1037025,-0.1050523,1.72519,0.09952552,-0.4291515,1.690279,-0.06619712,0.0813607,1.722991,0.01769854,-0.4210038,1.660173,-0.1203819,-0.1864867,1.720857,0.3001243,0.04919966,1.42127,NA,NA,NotTracked,Closed,
-0.7167969,0.4165039,0.6196289,0.9033203,-0.3745117,-0.1420898,-4,-35,-6,-4,-4,-3,-7,-8,0,-1,0,-1,-3,0,-1,-1,4.9375,4.9375,4.9375,-10.5,-10.5,-10.5,5.909571,6.173183,2.426749,1.929599,3.184572,7.431956,-0.1048911,-0.4728033,1.620751,0.2616596,0.2229173,1.315893,0.1010123,0.3513662,1.746938,-0.04945203,-0.4542375,1.593748,0.2151471,0.2674705,1.38535,0.1037544,-0.1053599,1.725448,0.09946656,-0.4295238,1.690258,-0.06700161,0.08128399,1.722754,0.01769741,-0.4216628,1.6601,-0.1205024,-0.1865785,1.720796,0.3000054,0.0485365,1.417519,NA,NA,NotTracked,Closed,
-0.6679688,0.3920898,0.6186523,0.9106445,-0.3950195,-0.1401367,1,-9,2,5,3,1,3,1,1,1,1,-1,0,-2,-1,0,8.0625,8.0625,8.0625,-7.4375,-7.4375,-7.4375,5.920662,6.170156,2.428078,1.911967,3.180027,7.434879,-0.1059555,-0.4730587,1.621279,0.2613055,0.2225053,1.316709,0.1013625,0.3513402,1.746893,-0.04820875,-0.4918522,1.590609,0.2143515,0.2692948,1.385196,0.1036993,-0.1056841,1.725592,0.09935209,-0.4297987,1.69021,-0.06688493,0.08131821,1.722658,0.01761044,-0.4220794,1.660055,-0.1209807,-0.1872379,1.720187,0.3001944,0.04512563,1.417263,NA,NA,NotTracked,Closed,
-0.6416016,0.3911133,0.59375,0.90625,-0.3764648,-0.1484375,5,7,5,-6,-5,-2,2,2,-3,-3,-2,-2,-1,-1,-1,-1,7.1875,7.1875,7.1875,1.9375,1.9375,1.9375,5.932953,6.164713,2.422899,1.907865,3.178141,7.442644,-0.1063081,-0.4720711,1.62117,0.2635226,0.2201085,1.317578,0.1017058,0.3514612,1.746804,-0.05142412,-0.444349,1.596231,0.2221203,0.24963,1.3845,0.1036287,-0.1058409,1.725682,0.09917317,-0.430026,1.690138,-0.06670862,0.08150151,1.722418,0.01748205,-0.4222519,1.659897,-0.1212476,-0.1873026,1.720017,0.3009059,0.04300124,1.417888,NA,NA,NotTracked,Closed,
-0.3681641,0.3911133,0.4321289,0.9130859,-0.3911133,-0.1318359,0,4,1,1,1,0,0,-1,-1,-1,-2,-2,0,0,-1,-1,40.875,40.875,40.875,-9,-9,-9,6.001325,6.128696,2.440425,1.903646,3.17518,7.43753,-0.1069679,-0.4725204,1.619817,0.2629255,0.2178966,1.317405,0.1020845,0.3515128,1.746423,-0.05344669,-0.4371086,1.59407,0.2146439,0.2604672,1.377963,0.1036348,-0.1059226,1.725683,0.09904796,-0.4301623,1.690068,-0.06676078,0.08167457,1.721934,0.01738933,-0.4223896,1.659763,-0.121607,-0.1879807,1.719555,0.3029768,0.03803172,1.42057,NA,NA,NotTracked,Closed,
-0.2983398,0.3427734,0.3999023,0.894043,-0.3735352,-0.1303711,0,1,-1,2,1,1,-4,-4,0,-1,-1,-1,0,-1,-1,-1,83,83,83,3.5625,3.5625,3.5625,6.165158,6.036393,2.520518,1.903266,3.173987,7.433359,-0.1075504,-0.4723221,1.618909,0.2580093,0.2076983,1.312798,0.1023736,0.3517569,1.746094,-0.0528309,-0.4486997,1.594269,0.2022719,0.2411963,1.363714,0.103615,-0.1059347,1.725645,0.09889539,-0.4302329,1.689999,-0.06680652,0.08193186,1.721461,0.01728795,-0.4224204,1.659624,-0.1220441,-0.1881528,1.718962,0.3085927,0.0227142,1.427717,NA,NA,NotTracked,Closed,
-0.1586914,0.4633789,0.4106445,0.9091797,-0.3579102,-0.1342773,0,-3,0,-1,-4,-3,-1,-1,0,-1,-1,-2,-1,-1,-1,-2,132.125,132.125,132.125,10,10,10,6.438428,5.847705,2.662952,1.916598,3.174664,7.429615,-0.1075633,-0.4717108,1.617652,0.2455196,0.1592669,1.30362,0.1025176,0.3522857,1.745047,-0.05383004,-0.4505812,1.594708,0.19314,0.2082211,1.362,0.1033766,-0.1054447,1.725502,0.09880058,-0.4296176,1.689924,-0.06775924,0.08210924,1.720414,0.01720069,-0.4213592,1.659038,-0.1227273,-0.1867092,1.71815,0.3222297,-0.03082124,1.470605,NA,NA,NotTracked,Unknown,
-0.1777344,0.7270508,0.453125,0.9101563,-0.3686523,-0.1191406,-2,-1,-1,-1,-2,-1,-2,0,-2,-3,0,-1,-1,-1,0,0,114.5,114.5,114.5,8.125,8.125,8.125,6.714051,5.512463,2.822084,1.950184,3.171438,7.418547,-0.1067036,-0.472231,1.617871,0.226972,0.06999185,1.288322,0.1023524,0.3524614,1.744185,-0.05238841,-0.4477704,1.594223,0.1751732,0.08869699,1.294083,0.1024827,-0.105625,1.72517,0.09885509,-0.4305582,1.689935,-0.06838474,0.08213539,1.719454,0.01729779,-0.4221365,1.658794,-0.1230017,-0.1869998,1.717744,0.3665558,-0.1151778,1.521024,NA,NA,NotTracked,Unknown,
-0.01855469,0.9628906,0.4868164,0.921875,-0.371582,-0.1274414,-2,-1,-3,-5,-5,-1,3,-1,-1,0,-1,0,-2,-2,0,0,49.4375,49.4375,49.4375,2.0625,2.0625,2.0625,6.893519,4.880351,2.945649,1.952923,3.160811,7.422548,-0.1059517,-0.4754696,1.618089,0.2126858,-0.06794886,1.298247,0.1018722,0.3529725,1.743285,-0.05281315,-0.4353832,1.593186,0.1612577,-0.03525858,1.3122,0.1022377,-0.1055312,1.724945,0.09916501,-0.4304616,1.690081,-0.06973611,0.08162997,1.718552,0.01803341,-0.4221637,1.658687,-0.1233712,-0.1882164,1.717071,0.3546705,-0.08606125,1.555408,NA,NA,NotTracked,Closed,
0.3505859,0.9091797,0.4399414,0.9042969,-0.3745117,-0.1318359,14,42,8,-1,1,-1,1,0,0,0,-1,-2,-3,-2,-1,-2,36.4375,36.4375,36.4375,2.5,2.5,2.5,6.946416,4.376678,2.950927,1.957639,3.153427,7.423721,-0.1049931,-0.4772016,1.618336,0.2243898,-0.2053076,1.337936,0.1008537,0.3534947,1.741801,-0.04938669,-0.4801511,1.58903,0.1808539,-0.20097,1.341,0.1017586,-0.1054431,1.724303,0.09921984,-0.4305993,1.68987,-0.07062029,0.08147153,1.717474,0.01817097,-0.4221948,1.657087,-0.1234515,-0.18832,1.716879,0.4133254,-0.1007288,1.605223,NA,NA,NotTracked,Closed,
0.7407227,1.088379,0.3256836,0.9208984,-0.3955078,-0.1220703,10,10,15,6,2,3,7,19,-2,-1,-2,-2,-1,-1,-2,0,87.375,87.375,87.375,-5.875,-5.875,-5.875,7.094581,3.92691,2.904352,1.951914,3.14985,7.424427,-0.1038796,-0.4774687,1.618644,0.2522985,-0.3220952,1.407762,0.09974923,0.3537932,1.740201,-0.05150791,-0.4511801,1.591292,0.2163417,-0.3651968,1.466667,0.1003134,-0.105598,1.722692,0.09788311,-0.4310508,1.688752,-0.07156272,0.08122242,1.716699,0.01679065,-0.4221414,1.654782,-0.1234295,-0.1886604,1.716298,0.4047536,-0.1096198,1.641215,NA,NA,NotTracked,Unknown,
1.006348,1.071289,0.07177734,0.9248047,-0.3701172,-0.1308594,-7,-15,-2,-1,0,1,-5,-17,-2,-1,0,1,-2,1,-1,-2,45.0625,45.0625,45.0625,-1.1875,-1.1875,-1.1875,7.438149,3.508082,2.637611,1.94331,3.150218,7.430579,-0.1026137,-0.4799361,1.615281,0.2727978,-0.4089023,1.469517,0.09884618,0.3541679,1.73838,-0.05043571,-0.4571647,1.590094,0.2372436,-0.4448479,1.491846,0.1000412,-0.1057749,1.72173,0.0977463,-0.4314078,1.688183,-0.07248974,0.08109942,1.715695,0.01662431,-0.4222037,1.653628,-0.1230677,-0.1892285,1.715357,0.3496077,-0.1470162,1.653521,NA,NA,NotTracked,Closed,
0.9243164,0.8056641,-0.07177734,0.934082,-0.3745117,-0.1430664,-8,-15,-4,-1,0,0,1,-1,-1,-1,-1,-1,-1,-1,-1,-2,-28.9375,-28.9375,-28.9375,-2.5625,-2.5625,-2.5625,7.652516,3.308245,2.368348,1.934952,3.152038,7.433448,-0.1015879,-0.4791985,1.613663,0.2989723,-0.4550511,1.527709,0.09880605,0.3540826,1.736919,-0.0506223,-0.443682,1.5906,0.2686186,-0.4594937,1.553667,0.1002419,-0.1058838,1.720873,0.0985919,-0.4316546,1.687673,-0.07272799,0.08115176,1.714325,0.01775524,-0.4223318,1.652342,-0.1227251,-0.1892936,1.714458,0.344345,-0.1639391,1.665705,NA,NA,NotTracked,Closed,
0.9506836,0.5825195,-0.06640625,0.8842773,-0.3320313,-0.1342773,0,0,0,-2,-1,1,1,0,-2,-1,0,-2,-1,-1,-1,0,-12.5,-12.5,-12.5,-15.3125,-15.3125,-15.3125,7.949383,3.173361,1.977826,1.929795,3.144899,7.42145,-0.1006486,-0.4787779,1.613086,0.3085392,-0.4770054,1.579936,0.09929679,0.3545267,1.734435,-0.04948376,-0.4510143,1.589283,0.25779,-0.442118,1.582535,0.1012361,-0.1059352,1.71977,0.1009806,-0.4319595,1.686779,-0.0726144,0.08119796,1.712178,0.02031814,-0.4226694,1.650706,-0.1221601,-0.1884376,1.712699,0.3395793,-0.1768117,1.676023,NA,NA,NotTracked,NotTracked,
0.9291992,0.5141602,-0.09570313,0.8901367,-0.371582,-0.1210938,-2,-2,-3,0,-1,1,-3,-3,2,-2,-2,0,-2,0,-1,-2,-37.875,-37.875,-37.875,-22.9375,-22.9375,-22.9375,8.065515,3.136414,1.794552,1.906778,3.135761,7.404404,-0.09933251,-0.4787007,1.613778,0.3151169,-0.4858863,1.605876,0.1000239,0.3543909,1.732286,-0.04744731,-0.4519794,1.588263,0.2606606,-0.4757441,1.586075,0.102121,-0.1059942,1.719139,0.1034124,-0.4321951,1.686732,-0.07214166,0.08126862,1.710099,0.02278366,-0.4229947,1.650146,-0.1213795,-0.1888049,1.710885,0.3359653,-0.1880628,1.686374,NA,NA,NotTracked,NotTracked,
0.9116211,0.4453125,-0.06494141,0.9345703,-0.3618164,-0.1318359,-1,-2,0,0,-2,-2,0,1,-1,-2,-2,-1,-1,0,-2,-1,-30.5,-30.5,-30.5,-4.375,-4.375,-4.375,8.072742,3.11357,1.716015,1.894561,3.132639,7.401287,-0.09854353,-0.4789615,1.612663,0.3159093,-0.4879417,1.616877,0.1010398,0.3536706,1.730008,-0.04367701,-0.4871792,1.58442,0.2634647,-0.4796765,1.587755,0.103027,-0.1061249,1.718737,0.1054268,-0.4322959,1.687122,-0.07148816,0.08101539,1.708023,0.02472459,-0.4232514,1.650038,-0.1204966,-0.1894759,1.708522,0.3337025,-0.1916038,1.692791,NA,NA,NotTracked,NotTracked,
0.8569336,0.394043,-0.1806641,0.9399414,-0.3271484,-0.1352539,-1,-2,-1,-2,-1,-1,2,3,0,-2,-1,2,-1,3,4,0,0.0625,0.0625,0.0625,-1.1875,-1.1875,-1.1875,8.083455,3.125959,1.671609,1.894082,3.129254,7.398302,-0.09827295,-0.4789343,1.610851,0.3130893,-0.4860961,1.620939,0.1016377,0.353128,1.728624,-0.04572023,-0.4464484,1.587783,0.263629,-0.5003467,1.588786,0.1038379,-0.1061517,1.718567,0.1075691,-0.4321019,1.687921,-0.07098523,0.08102324,1.706031,0.02677328,-0.42332,1.650555,-0.1200429,-0.1897021,1.70712,0.332054,-0.1928066,1.697973,NA,NA,NotTracked,NotTracked,
0.8911133,0.3994141,-0.1606445,0.9321289,-0.3305664,-0.1323242,-2,-1,-1,0,-1,-1,-1,0,1,0,1,0,1,4,0,0,13.0625,13.0625,13.0625,-4.125,-4.125,-4.125,8.16124,3.135372,1.60869,1.905187,3.126784,7.380688,-0.09668844,-0.4775441,1.610101,0.3095163,-0.488465,1.619256,0.1023278,0.3528551,1.726924,-0.04307394,-0.4673359,1.587718,0.260891,-0.4638398,1.587745,0.1044395,-0.1061021,1.71855,0.1095362,-0.4319881,1.688823,-0.07075748,0.08100689,1.705092,0.02862143,-0.4234089,1.651062,-0.1194857,-0.1893566,1.706299,0.3308178,-0.1926037,1.701317,NA,NA,NotTracked,NotTracked,
0.8964844,0.3837891,-0.09667969,0.9238281,-0.3554688,-0.1420898,0,1,-2,-1,0,0,1,0,-1,-2,0,-1,2,0,-1,0,-23.875,-23.875,-23.875,-2.25,-2.25,-2.25,8.103526,3.141977,1.654215,1.914189,3.121934,7.361597,-0.09452318,-0.4776356,1.610734,0.3091845,-0.4912429,1.619096,0.1027389,0.3527699,1.725599,-0.04458568,-0.4568421,1.588808,0.2600992,-0.4530613,1.58861,0.1054461,-0.1059369,1.718858,0.1114526,-0.4317255,1.690038,-0.07061197,0.08090488,1.704454,0.030501,-0.4234046,1.651919,-0.1189657,-0.1892265,1.705736,0.3300351,-0.192596,1.703332,NA,NA,NotTracked,NotTracked,
0.9003906,0.1645508,-0.1137695,0.9238281,-0.3413086,-0.1362305,0,-1,-2,-2,-2,-1,0,-1,2,1,1,5,3,-7,-5,1,-1.5625,-1.5625,-1.5625,4,4,4,8.065197,3.133666,1.659767,1.916516,3.117429,7.362213,-0.09415089,-0.4780763,1.612254,0.3081448,-0.4905732,1.619206,0.1029534,0.3526091,1.72484,-0.04389406,-0.4574723,1.588835,0.2584845,-0.5033742,1.590433,0.1061375,-0.1057402,1.719336,0.1135226,-0.4314279,1.692092,-0.07062589,0.08096895,1.704063,0.03250479,-0.4233195,1.653454,-0.1185019,-0.189385,1.7054,0.3296014,-0.1923483,1.704655,NA,NA,NotTracked,NotTracked,
0.8896484,0.4008789,-0.1357422,0.9272461,-0.3364258,-0.1245117,-2,-1,0,0,0,-1,1,0,-4,-2,0,-2,-4,-2,-4,-9,23.8125,23.8125,23.8125,5.0625,5.0625,5.0625,8.127048,3.137127,1.673615,1.923986,3.114655,7.363304,-0.09379869,-0.4779533,1.613733,0.3063087,-0.4905716,1.619395,0.103111,0.3523477,1.724149,-0.04336234,-0.4567648,1.589934,0.258066,-0.4723099,1.591285,0.106511,-0.1056483,1.719537,0.1140744,-0.4313069,1.692716,-0.07057536,0.0809978,1.703701,0.03309601,-0.4232531,1.654093,-0.1182086,-0.1895751,1.705344,0.3294601,-0.192136,1.705467,NA,NA,NotTracked,NotTracked,
0.8925781,0.3476563,-0.1445313,0.921875,-0.3481445,-0.1152344,0,-1,0,-2,1,0,-2,1,6,0,-3,2,3,2,2,5,4.25,4.25,4.25,5.5625,5.5625,5.5625,8.14084,3.136566,1.670804,1.930454,3.110771,7.371221,-0.09328641,-0.4780471,1.616855,0.305305,-0.4901946,1.620919,0.1032182,0.35223,1.723598,-0.04266957,-0.4548397,1.591847,0.2563865,-0.4859995,1.590773,0.1067165,-0.1055841,1.719743,0.1142772,-0.4312476,1.693268,-0.07052619,0.08096673,1.703659,0.0333101,-0.4232499,1.654664,-0.1179457,-0.1898385,1.705464,0.3292608,-0.192072,1.70617,NA,NA,NotTracked,NotTracked,
