ALX,ALY,ALZ,ARX,ARY,ARZ,EMG0L,EMG1L,EMG2L,EMG3L,EMG4L,EMG5L,EMG6L,EMG7L,EMG0R,EMG1R,EMG2R,EMG3R,EMG4R,EMG5R,EMG6R,EMG7R,GLX,GLY,GLZ,GRX,GRY,GRZ,ORL,OPL,OYL,ORR,OPR,OYR,LHNX,LHNY,LHNZ,RHNX,RHNY,RHNZ,HX,HY,HZ,LTX,LTY,LTZ,RTX,RTY,RTZ,SpineMidX,SpineMidY,SpineMidZ,SpineBaseX,SpineBaseY,SpineBaseZ,ShoulderLeftX,ShoulderLeftY,ShoulderLeftZ,ShoulderRightX,ShoulderRightY,ShoulderRightZ,ElbowLeftX,ElbowLeftY,ElbowLeftZ,ElbowRightX,ElbowRightY,ElbowRightZ,Myo_Pose_left,Myo_Pose_Right,Kinect_pose_left,Kinect_pose_right
0.8676758,0.4199219,-0.08056641,0.9116211,-0.3818359,-0.09716797,-1,-2,-2,-1,0,0,-2,-2,-2,-1,0,0,0,-2,-1,-2,3.0625,3.0625,3.0625,-4.75,-4.75,-4.75,7.885386,3.264843,5.798763,2.051092,3.160456,6.7653,-0.05673933,-0.4685143,1.634552,0.3411298,-0.4798609,1.593088,0.1406385,0.3490178,1.73172,-0.1075034,-0.483355,1.628607,0.295979,-0.4410716,1.592978,0.1451809,-0.1058705,1.733094,0.1526493,-0.4316345,1.702813,-0.03289302,0.08187918,1.726505,0.07105497,-0.4237077,1.666974,-0.07329542,-0.1928431,1.725377,0.3660518,-0.1888802,1.694471,NA,NA,NotTracked,NotTracked,
0.8637695,0.4335938,-0.08105469,0.9116211,-0.3818359,-0.09716797,1,-1,-1,0,-1,-2,-1,0,-2,-1,0,0,0,-2,-1,-2,4.8125,4.8125,4.8125,-4.75,-4.75,-4.75,7.884315,3.263079,5.806549,2.051092,3.160456,6.7653,-0.05631675,-0.470252,1.635723,0.341821,-0.4800277,1.59397,0.1408772,0.3489304,1.731223,-0.112253,-0.4698678,1.639462,0.2962486,-0.4390627,1.594037,0.1454774,-0.1058145,1.732897,0.1527981,-0.4316132,1.702788,-0.03247171,0.0819447,1.725652,0.07118256,-0.4236746,1.666955,-0.07313422,-0.1931746,1.725127,0.3664448,-0.1889496,1.694201,NA,NA,NotTracked,NotTracked,
0.8652344,0.4370117,-0.08935547,0.9116211,-0.3818359,-0.09716797,-1,0,-1,0,-1,-1,-1,1,-2,-1,0,0,0,-2,-1,-2,0.0625,0.0625,0.0625,-4.75,-4.75,-4.75,7.884052,3.262737,5.809222,2.051092,3.160456,6.7653,-0.05497979,-0.4704989,1.634554,0.3416257,-0.4799292,1.593526,0.1413038,0.3489332,1.730747,-0.1057911,-0.4875583,1.62568,0.2961077,-0.4378121,1.593295,0.1456533,-0.1058023,1.732717,0.1530267,-0.4315432,1.702682,-0.03226488,0.08199212,1.725414,0.07137166,-0.423613,1.666886,-0.0730691,-0.1932491,1.725019,0.3669254,-0.1892106,1.693998,NA,NA,NotTracked,NotTracked,
0.8642578,0.4389648,-0.08642578,0.9116211,-0.3818359,-0.09716797,1,-1,-2,-2,-2,0,-1,-1,-2,-1,0,0,0,-2,-1,-2,-3.8125,-3.8125,-3.8125,-4.75,-4.75,-4.75,7.8836,3.261886,5.803879,2.051092,3.160456,6.7653,-0.05408993,-0.4684403,1.63598,0.3425758,-0.4799784,1.594253,0.1414013,0.3489922,1.730563,-0.1049584,-0.4741469,1.630706,0.3324015,-0.5314471,1.629667,0.1459707,-0.105774,1.732608,0.1535403,-0.4314492,1.702727,-0.03212122,0.08215227,1.725218,0.07186387,-0.4235377,1.666836,-0.07287607,-0.1931982,1.724996,0.3672559,-0.1890291,1.693997,NA,NA,NotTracked,NotTracked,
0.8676758,0.4384766,-0.08154297,0.9116211,-0.3818359,-0.09716797,-1,-1,1,-1,-2,0,-1,0,-2,-1,0,0,0,-2,-1,-2,-4.875,-4.875,-4.875,-4.75,-4.75,-4.75,7.882101,3.260171,5.795166,2.051092,3.160456,6.7653,-0.05238594,-0.4677329,1.636197,0.3431797,-0.4800001,1.593976,0.1416706,0.3488972,1.730257,-0.1031133,-0.4929316,1.639059,0.2988015,-0.4372283,1.596128,0.146233,-0.105758,1.732531,0.153917,-0.4314329,1.702845,-0.03199429,0.08217593,1.725118,0.07223697,-0.4235649,1.666947,-0.07239017,-0.1933996,1.724945,0.3674399,-0.1890081,1.694043,NA,NA,NotTracked,NotTracked,
0.8681641,0.4301758,-0.078125,0.9116211,-0.3818359,-0.09716797,0,-1,-2,-1,-2,2,2,-2,-2,-1,0,0,0,-2,-1,-2,-1.1875,-1.1875,-1.1875,-4.75,-4.75,-4.75,7.88249,3.25895,5.78824,2.051092,3.160456,6.7653,-0.05071081,-0.4689983,1.636079,0.3435061,-0.4800551,1.594474,0.1418884,0.3488306,1.730195,-0.1035288,-0.4821844,1.636928,0.299271,-0.438338,1.596542,0.1465333,-0.1057716,1.732461,0.1544871,-0.4314651,1.702966,-0.03178359,0.08220179,1.724974,0.07279952,-0.423641,1.667093,-0.07187823,-0.1938971,1.725049,0.3675516,-0.188988,1.694036,NA,NA,NotTracked,NotTracked,
0.8671875,0.4350586,-0.07763672,0.9116211,-0.3818359,-0.09716797,0,-1,-1,0,-2,-1,-2,-1,-2,-1,0,0,0,-2,-1,-2,4.3125,4.3125,4.3125,-4.75,-4.75,-4.75,7.885103,3.26059,5.791146,2.051092,3.160456,6.7653,-0.04946574,-0.471632,1.63581,0.3433416,-0.4802072,1.595124,0.1421264,0.3487813,1.729921,-0.1033156,-0.4817898,1.635743,0.3325603,-0.5317041,1.630444,0.1466959,-0.1057819,1.732518,0.1547452,-0.431549,1.70318,-0.03167946,0.0821853,1.724977,0.07300825,-0.4237109,1.667243,-0.07135048,-0.1943866,1.725199,0.3678201,-0.1889303,1.694067,NA,NA,NotTracked,NotTracked,
0.8955078,0.4628906,-0.09472656,0.9116211,-0.3818359,-0.09716797,-2,-1,-1,-2,1,-1,-1,-4,-2,-1,0,0,0,-2,-1,-2,-1.8125,-1.8125,-1.8125,-4.75,-4.75,-4.75,7.884368,3.266388,5.796085,2.051092,3.160456,6.7653,-0.0501213,-0.4706352,1.636835,0.3433512,-0.4796929,1.595407,0.1422979,0.3487605,1.729829,-0.1033129,-0.4791908,1.636127,0.3003241,-0.4410279,1.598619,0.146872,-0.1058103,1.732634,0.1550306,-0.4316114,1.703506,-0.03149148,0.0822034,1.725019,0.07332325,-0.4237823,1.667646,-0.07120483,-0.1943593,1.725259,0.3681616,-0.188679,1.694393,NA,NA,NotTracked,NotTracked,
0.9960938,0.5551758,-0.1040039,0.9116211,-0.3818359,-0.09716797,-1,-3,-4,1,-2,-1,0,1,-2,-1,0,0,0,-2,-1,-2,-22.875,-22.875,-22.875,-4.75,-4.75,-4.75,7.817625,3.284071,5.839509,2.051092,3.160456,6.7653,-0.05049692,-0.4707018,1.637557,0.3402535,-0.4747469,1.589595,0.1423565,0.3487543,1.729777,-0.1044288,-0.4704578,1.639267,0.3006136,-0.4364349,1.598667,0.1469394,-0.105776,1.732712,0.1551902,-0.4316204,1.703712,-0.03144036,0.08222813,1.725048,0.07345858,-0.4237875,1.667749,-0.07084296,-0.1948353,1.725613,0.368708,-0.1877638,1.695334,NA,NA,NotTracked,NotTracked,
1.036133,0.7319336,-0.02490234,0.9116211,-0.3818359,-0.09716797,-3,-4,-14,-2,3,1,1,-1,-2,-1,0,0,0,-2,-1,-2,-13.8125,-13.8125,-13.8125,-4.75,-4.75,-4.75,7.539911,3.416805,6.116123,2.051092,3.160456,6.7653,-0.05045521,-0.4711898,1.638329,0.3253611,-0.4362942,1.57867,0.142556,0.3487646,1.729452,-0.103555,-0.4783947,1.636808,0.3067188,-0.4892392,1.5972,0.1469173,-0.105747,1.732748,0.1551636,-0.43156,1.703927,-0.03138758,0.08226936,1.725019,0.07344385,-0.4237347,1.667886,-0.07078653,-0.1949711,1.725724,0.3709277,-0.1808406,1.700823,NA,NA,NotTracked,NotTracked,
1.052246,0.8935547,0.2172852,0.9116211,-0.3818359,-0.09716797,-4,4,-1,1,0,-4,-3,-6,-2,-1,0,0,0,-2,-1,-2,7.125,7.125,7.125,-4.75,-4.75,-4.75,7.294558,3.644851,6.419728,2.051092,3.160456,6.7653,-0.0511254,-0.4726208,1.640074,0.2841032,-0.3820616,1.562593,0.1427805,0.3486581,1.72925,-0.1040875,-0.473807,1.637121,0.2343841,-0.4231304,1.574326,0.1464107,-0.1056678,1.732829,0.1532916,-0.4314647,1.70434,-0.03129884,0.08229374,1.724982,0.0716398,-0.4233373,1.668045,-0.07099895,-0.1939613,1.726384,0.3762686,-0.1623619,1.711584,NA,NA,NotTracked,Unknown,
0.8330078,1.093262,0.3657227,0.9116211,-0.3818359,-0.09716797,-5,-7,1,-16,-9,-5,-6,-6,-2,-1,0,0,0,-2,-1,-2,4.5,4.5,4.5,-4.75,-4.75,-4.75,7.12504,4.006606,6.683279,2.051092,3.160456,6.7653,-0.05185171,-0.4709351,1.641533,0.2308064,-0.3172127,1.527897,0.1436619,0.3487124,1.728591,-0.1032407,-0.5064675,1.633214,0.1713813,-0.2877557,1.542514,0.1461962,-0.1056259,1.732885,0.151992,-0.4313013,1.704795,-0.03096886,0.08248239,1.724735,0.07069463,-0.4230587,1.668195,-0.07098628,-0.1937618,1.726532,0.3657647,-0.1716288,1.703091,NA,NA,NotTracked,Unknown,
0.4853516,1.024414,0.3569336,0.9116211,-0.3818359,-0.09716797,-4,-5,-5,0,-6,1,3,-1,-2,-1,0,0,0,-2,-1,-2,-27.125,-27.125,-27.125,-4.75,-4.75,-4.75,7.006809,4.472612,6.890876,2.051092,3.160456,6.7653,-0.0526671,-0.4711746,1.641872,0.2152804,-0.1687381,1.521561,0.145516,0.3483463,1.727653,-0.1045497,-0.4737371,1.6388,0.1824325,-0.1136497,1.559667,0.1464363,-0.1055454,1.733165,0.1526253,-0.4307356,1.70583,-0.03024866,0.08268613,1.724354,0.07141048,-0.4226551,1.669046,-0.07095095,-0.1933682,1.726719,0.4069434,-0.1338424,1.698999,NA,NA,NotTracked,Unknown,
-0.008300781,0.6542969,0.2070313,0.9116211,-0.3818359,-0.09716797,0,-1,-8,-4,-3,-1,0,-2,-2,-1,0,0,0,-2,-1,-2,-1.3125,-1.3125,-1.3125,-4.75,-4.75,-4.75,6.918655,5.158161,7.145295,2.051092,3.160456,6.7653,-0.05206859,-0.4726467,1.641997,0.198738,-0.04281722,1.541149,0.148654,0.3478794,1.726735,-0.1039192,-0.4849024,1.638701,0.2041036,0.01826686,1.590355,0.1469217,-0.1054171,1.733776,0.15326,-0.4300128,1.707214,-0.0294871,0.08292025,1.723852,0.07222698,-0.4220854,1.670509,-0.07095629,-0.1932712,1.726694,0.421466,-0.1250101,1.673881,NA,NA,NotTracked,Unknown,
-0.4555664,0.5273438,0.04931641,0.9116211,-0.3818359,-0.09716797,-4,-7,-6,-4,-5,1,-3,-1,-2,-1,0,0,0,-2,-1,-2,71.9375,71.9375,71.9375,-4.75,-4.75,-4.75,7.034286,5.686,7.294661,2.051092,3.160456,6.7653,-0.04947209,-0.4711812,1.639512,0.2086875,0.04403843,1.559626,0.1524525,0.3475174,1.725666,-0.09998123,-0.4770606,1.638957,0.2553075,0.06043909,1.504987,0.1471378,-0.1056864,1.733453,0.1533485,-0.4301776,1.707686,-0.02914394,0.08324675,1.72382,0.07195217,-0.4227034,1.671736,-0.07062783,-0.1925283,1.726673,0.452566,-0.1182894,1.66203,NA,NA,NotTracked,Unknown,
-0.487793,0.6142578,0.1279297,0.9116211,-0.3818359,-0.09716797,-2,0,-4,-4,-3,-1,0,-2,-2,-1,0,0,0,-2,-1,-2,83.8125,83.8125,83.8125,-4.75,-4.75,-4.75,7.29236,6.222126,7.367885,2.051092,3.160456,6.7653,-0.04655557,-0.4720075,1.636657,0.2292597,0.1191213,1.580877,0.154441,0.3477054,1.724677,-0.09674808,-0.4797526,1.636548,0.2978916,0.1183932,1.540077,0.1464303,-0.10693,1.731529,0.1526576,-0.4328348,1.708428,-0.02920959,0.08349688,1.723859,0.07037089,-0.4261644,1.674955,-0.07025054,-0.1919446,1.726398,0.4351071,-0.1062064,1.615934,NA,NA,NotTracked,Unknown,
-0.4589844,0.4506836,0.2075195,0.9116211,-0.3818359,-0.09716797,-2,-7,-7,-7,-5,-3,-3,0,-2,-1,0,0,0,-2,-1,-2,31.25,31.25,31.25,-4.75,-4.75,-4.75,7.374461,6.400947,7.386724,2.051092,3.160456,6.7653,-0.04553311,-0.4716614,1.635776,0.2447527,0.1792705,1.545237,0.1604149,0.3462541,1.721106,-0.09817487,-0.4814484,1.639997,0.3008568,0.1650199,1.536929,0.1476987,-0.1071904,1.730774,0.1525294,-0.4329559,1.708357,-0.02703162,0.08438578,1.722774,0.0700153,-0.4261847,1.674952,-0.06910364,-0.1868101,1.726473,0.4396804,-0.09996852,1.608742,NA,NA,NotTracked,Unknown,
-0.5009766,0.4990234,0.262207,0.9116211,-0.3818359,-0.09716797,-5,-17,-11,-4,-2,-3,-5,-7,-2,-1,0,0,0,-2,-1,-2,-3.25,-3.25,-3.25,-4.75,-4.75,-4.75,7.438153,6.364021,7.469823,2.051092,3.160456,6.7653,-0.04581078,-0.4695803,1.636107,0.2485796,0.1557787,1.550171,0.1634287,0.3462938,1.719333,-0.09728235,-0.4798478,1.635912,0.2474935,0.1786776,1.515,0.1482046,-0.1073709,1.729812,0.1524976,-0.4330366,1.708347,-0.02590832,0.08546399,1.722395,0.06982866,-0.4261457,1.674992,-0.06896363,-0.185979,1.726304,0.4476325,-0.09020235,1.600945,NA,NA,NotTracked,Unknown,
-0.8549805,0.7158203,-0.06591797,0.9116211,-0.3818359,-0.09716797,-4,6,11,2,-1,-2,2,10,-2,-1,0,0,0,-2,-1,-2,-0.125,-0.125,-0.125,-4.75,-4.75,-4.75,7.536515,6.229722,7.640007,2.051092,3.160456,6.7653,-0.04693003,-0.472847,1.637062,0.2567548,0.1218823,1.580901,0.1645003,0.3466762,1.719487,-0.09889954,-0.4789303,1.637318,0.2958242,0.1075559,1.53028,0.1476122,-0.1079646,1.728804,0.1521695,-0.4342576,1.708644,-0.02554208,0.08590898,1.722116,0.06933831,-0.4271379,1.675859,-0.06889591,-0.1858932,1.726063,0.4541115,-0.08389733,1.598906,NA,NA,NotTracked,Unknown,
-0.8706055,0.7290039,-0.1958008,0.9116211,-0.3818359,-0.09716797,8,-2,2,6,8,-2,0,2,-2,-1,0,0,0,-2,-1,-2,10.5,10.5,10.5,-4.75,-4.75,-4.75,7.670791,6.278565,7.753026,2.051092,3.160456,6.7653,-0.04777222,-0.4713085,1.637593,0.2630696,0.1394292,1.585679,0.1667905,0.346769,1.718422,-0.09621584,-0.4768632,1.627075,0.293569,0.1242985,1.534495,0.1472479,-0.1081203,1.727728,0.1517766,-0.4346261,1.70843,-0.02535425,0.08672047,1.719863,0.06888796,-0.4272754,1.675834,-0.06904457,-0.185976,1.725671,0.4592363,-0.07762163,1.596081,NA,NA,NotTracked,Unknown,
-0.6191406,0.5444336,-0.01806641,0.9116211,-0.3818359,-0.09716797,-9,-3,-1,-7,-5,-1,1,0,-2,-1,0,0,0,-2,-1,-2,30.3125,30.3125,30.3125,-4.75,-4.75,-4.75,7.670723,6.40506,7.688819,2.051092,3.160456,6.7653,-0.04902052,-0.4694578,1.637278,0.2375841,0.196517,1.575331,0.1711334,0.3462425,1.716557,-0.09859382,-0.5146741,1.62975,0.2490869,0.1166665,1.661,0.1488794,-0.1079729,1.727259,0.1516463,-0.4343724,1.70812,-0.02313458,0.08783745,1.719085,0.06846561,-0.4264605,1.675052,-0.06920876,-0.1849672,1.72502,0.4650726,-0.07697064,1.592173,NA,NA,NotTracked,Unknown,
-0.5634766,0.5024414,0.1171875,0.9116211,-0.3818359,-0.09716797,1,-22,-5,-6,-2,-1,-4,0,-2,-1,0,0,0,-2,-1,-2,12.625,12.625,12.625,-4.75,-4.75,-4.75,7.661328,6.414364,7.661037,2.051092,3.160456,6.7653,-0.05003716,-0.4684576,1.636101,0.2601074,0.1590358,1.572217,0.1728376,0.3459954,1.715315,-0.1035707,-0.4786265,1.637696,0.2775106,0.1091207,1.656067,0.1495526,-0.1078651,1.726854,0.1515407,-0.4342627,1.707843,-0.02207809,0.08840879,1.718472,0.06821679,-0.4260148,1.67446,-0.06943596,-0.1832524,1.72412,0.4705296,-0.07399332,1.589169,NA,NA,NotTracked,Unknown,
-0.8955078,0.7641602,-0.2348633,0.9116211,-0.3818359,-0.09716797,3,42,17,2,-1,-1,-5,5,-2,-1,0,0,0,-2,-1,-2,26.3125,26.3125,26.3125,-4.75,-4.75,-4.75,7.752919,6.273188,7.777679,2.051092,3.160456,6.7653,-0.04907474,-0.4684021,1.634967,0.2706464,0.1397819,1.583315,0.1730454,0.3459538,1.715238,-0.1019325,-0.4722505,1.635923,0.2741243,0.09761085,1.649819,0.1492171,-0.1079001,1.725937,0.1514587,-0.4344347,1.707586,-0.0225281,0.08818951,1.717004,0.06814504,-0.4260791,1.67438,-0.06944799,-0.1832597,1.723691,0.4735881,-0.06891108,1.588666,NA,NA,NotTracked,Unknown,
-0.8652344,0.7983398,-0.2348633,0.9116211,-0.3818359,-0.09716797,2,12,2,-1,-9,-11,-1,-3,-2,-1,0,0,0,-2,-1,-2,34.0625,34.0625,34.0625,-4.75,-4.75,-4.75,7.792189,6.313715,7.772275,2.051092,3.160456,6.7653,-0.04798317,-0.4682906,1.634435,0.1925328,0.244835,1.597723,0.1742003,0.3458335,1.714552,-0.09969664,-0.4908631,1.636077,0.1743383,0.1956147,1.652174,0.1500884,-0.1079317,1.725536,0.1512266,-0.4342328,1.707118,-0.02155128,0.08854559,1.71666,0.06786045,-0.4255575,1.67372,-0.06931356,-0.1832209,1.723294,0.478307,-0.06758168,1.586476,NA,NA,NotTracked,Unknown,
-0.6142578,0.4672852,0.04785156,0.9116211,-0.3818359,-0.09716797,-2,-7,-4,-6,-1,2,3,-1,-2,-1,0,0,0,-2,-1,-2,9.4375,9.4375,9.4375,-4.75,-4.75,-4.75,7.759805,6.493953,7.648197,2.051092,3.160456,6.7653,-0.04702573,-0.4696617,1.631988,0.2333264,0.2225385,1.569752,0.1752297,0.3454016,1.713402,-0.09851804,-0.4770797,1.633056,0.1959512,0.2070034,1.640667,0.1515175,-0.1072081,1.725966,0.1509137,-0.431962,1.705963,-0.02019733,0.08883648,1.715889,0.06736999,-0.4221033,1.671102,-0.06897824,-0.1815024,1.722343,0.4779326,-0.06539375,1.584521,NA,NA,NotTracked,Unknown,
-0.7363281,0.5375977,-0.02197266,0.9116211,-0.3818359,-0.09716797,10,73,32,11,8,7,-1,-10,-2,-1,0,0,0,-2,-1,-2,-36.75,-36.75,-36.75,-4.75,-4.75,-4.75,7.749201,6.395893,7.68828,2.051092,3.160456,6.7653,-0.04587423,-0.4705575,1.632372,0.2635399,0.168238,1.562066,0.1754332,0.345551,1.712771,-0.09865893,-0.4844439,1.64216,0.2891511,0.1224259,1.653187,0.1519613,-0.1070542,1.725647,0.1508677,-0.4317431,1.705557,-0.0199105,0.0889901,1.715747,0.06730303,-0.4218677,1.670777,-0.0689204,-0.1806553,1.72216,0.4785995,-0.06224938,1.584219,NA,NA,NotTracked,Unknown,
-0.8686523,0.8076172,-0.2563477,0.9116211,-0.3818359,-0.09716797,-2,-3,3,0,0,3,0,1,-2,-1,0,0,0,-2,-1,-2,18.3125,18.3125,18.3125,-4.75,-4.75,-4.75,7.803301,6.290667,7.762471,2.051092,3.160456,6.7653,-0.0466045,-0.4704134,1.633047,0.2663471,0.1520342,1.57331,0.1750576,0.3456371,1.712717,-0.09524648,-0.514736,1.625769,0.2861909,0.1088574,1.654333,0.1511414,-0.1072994,1.724473,0.1508125,-0.4321804,1.705114,-0.0222178,0.08860335,1.71436,0.06724904,-0.422473,1.670622,-0.06893101,-0.1806621,1.722038,0.4788169,-0.06013047,1.584866,NA,NA,NotTracked,Unknown,
-0.8183594,0.6035156,-0.1782227,0.9116211,-0.3818359,-0.09716797,5,-7,-4,0,2,-5,2,5,-2,-1,0,0,0,-2,-1,-2,24.8125,24.8125,24.8125,-4.75,-4.75,-4.75,7.824593,6.425187,7.740423,2.051092,3.160456,6.7653,-0.04749909,-0.4710132,1.63171,0.269926,0.1720561,1.576516,0.1749135,0.3453301,1.712211,-0.09828202,-0.4826839,1.628484,0.2901742,0.1304841,1.659333,0.1510682,-0.1072565,1.723934,0.1506703,-0.4320289,1.704565,-0.02258781,0.08843353,1.713645,0.06712961,-0.4223576,1.670131,-0.06895515,-0.1806549,1.721667,0.4792252,-0.06021288,1.584775,NA,NA,NotTracked,Unknown,
-0.6479492,0.4462891,-0.02246094,0.9116211,-0.3818359,-0.09716797,-5,-3,-4,-7,1,-3,-1,-14,-2,-1,0,0,0,-2,-1,-2,23.0625,23.0625,23.0625,-4.75,-4.75,-4.75,7.807654,6.532089,7.669092,2.051092,3.160456,6.7653,-0.04763481,-0.4712357,1.632092,0.2365238,0.2201594,1.5735,0.1750304,0.3454049,1.711792,-0.1014386,-0.4805648,1.637381,0.1943145,0.2061469,1.645667,0.1515153,-0.1070582,1.724485,0.1504378,-0.4306938,1.703902,-0.02195707,0.08863337,1.713505,0.06691661,-0.4207343,1.669038,-0.06901179,-0.1804214,1.72137,0.4795612,-0.05933594,1.582597,NA,NA,NotTracked,Unknown,
-0.7138672,0.4726563,-0.01074219,0.9116211,-0.3818359,-0.09716797,-21,17,9,-2,-1,-5,-13,-10,-2,-1,0,0,0,-2,-1,-2,-25,-25,-25,-4.75,-4.75,-4.75,7.799855,6.480508,7.676645,2.051092,3.160456,6.7653,-0.04823501,-0.4701194,1.631438,0.2767946,0.1614058,1.572621,0.1750014,0.3454036,1.71167,-0.1013381,-0.4804527,1.633809,0.2755773,0.107878,1.651588,0.1518012,-0.1070118,1.724362,0.150458,-0.430549,1.703572,-0.02170783,0.08869137,1.713344,0.06695333,-0.4206421,1.668716,-0.0692095,-0.1799164,1.720929,0.4787208,-0.05849978,1.582999,NA,NA,NotTracked,Unknown,
-0.8232422,0.6655273,-0.1772461,0.9116211,-0.3818359,-0.09716797,-6,-8,0,-2,-1,0,-9,-10,-2,-1,0,0,0,-2,-1,-2,-31.8125,-31.8125,-31.8125,-4.75,-4.75,-4.75,7.775836,6.388655,7.709452,2.051092,3.160456,6.7653,-0.04898063,-0.4714622,1.630676,0.2726519,0.1530589,1.576766,0.1743595,0.3455017,1.711193,-0.1014034,-0.4863725,1.630957,0.2871403,0.1062252,1.653554,0.1513122,-0.1070942,1.723358,0.1503236,-0.4309374,1.702927,-0.02273751,0.08861136,1.712722,0.06684963,-0.4211482,1.668401,-0.06939063,-0.1799629,1.720393,0.4779149,-0.05787639,1.583647,NA,NA,NotTracked,Unknown,
-0.8393555,0.6503906,-0.1542969,0.9116211,-0.3818359,-0.09716797,-1,-6,1,1,-1,0,4,2,-2,-1,0,0,0,-2,-1,-2,-17.125,-17.125,-17.125,-4.75,-4.75,-4.75,7.725134,6.40727,7.681365,2.051092,3.160456,6.7653,-0.0488449,-0.4698211,1.629985,0.2593307,0.1612214,1.580466,0.1741251,0.3455724,1.710917,-0.1019774,-0.4787607,1.633154,0.2728158,0.1058261,1.651682,0.1512914,-0.1070197,1.722804,0.1502297,-0.4311537,1.702475,-0.02267961,0.08859403,1.712633,0.0667704,-0.4215121,1.668046,-0.06950235,-0.180516,1.719959,0.4755274,-0.06082509,1.585567,NA,NA,NotTracked,Unknown,
-0.7070313,0.5678711,-0.03369141,0.9116211,-0.3818359,-0.09716797,-2,0,0,0,-1,-2,-2,-1,-2,-1,0,0,0,-2,-1,-2,-3.8125,-3.8125,-3.8125,-4.75,-4.75,-4.75,7.628034,6.426554,7.579116,2.051092,3.160456,6.7653,-0.04819124,-0.4709904,1.62904,0.2587822,0.1577251,1.57209,0.1735533,0.3459813,1.710503,-0.1011425,-0.4787528,1.631704,0.2722432,0.1066146,1.651446,0.1512181,-0.1070307,1.722592,0.150135,-0.4312606,1.702369,-0.0226539,0.0885281,1.712577,0.06665554,-0.4217042,1.667991,-0.06971893,-0.1805034,1.719397,0.4718268,-0.06561727,1.58683,NA,NA,NotTracked,Unknown,
-0.6533203,0.5571289,-0.03857422,0.9116211,-0.3818359,-0.09716797,-4,-7,-3,-1,1,-1,0,-5,-2,-1,0,0,0,-2,-1,-2,-24.625,-24.625,-24.625,-4.75,-4.75,-4.75,7.554915,6.373467,7.525916,2.051092,3.160456,6.7653,-0.04838045,-0.4706936,1.628303,0.2453451,0.1510944,1.560913,0.1725299,0.3467556,1.710449,-0.1008169,-0.4773225,1.630635,0.2516491,0.1012319,1.643247,0.1506035,-0.1070424,1.72207,0.1499567,-0.4317971,1.702183,-0.02260054,0.08853497,1.712522,0.06647463,-0.4224151,1.667991,-0.06979299,-0.1804988,1.719079,0.4681892,-0.07173661,1.588403,NA,NA,NotTracked,Unknown,
-0.6430664,0.5712891,0.08105469,0.9116211,-0.3818359,-0.09716797,-5,-10,-2,0,-1,-2,0,-1,-2,-1,0,0,0,-2,-1,-2,-30.625,-30.625,-30.625,-4.75,-4.75,-4.75,7.383267,6.222762,7.377596,2.051092,3.160456,6.7653,-0.04838469,-0.4700902,1.628452,0.2010614,0.1472776,1.529188,0.1695455,0.3478546,1.710999,-0.1022351,-0.4750497,1.637126,0.1765034,0.1208623,1.565,0.1492497,-0.1078564,1.721393,0.1498002,-0.4337021,1.702098,-0.02329548,0.08832707,1.712751,0.06640318,-0.4251009,1.669094,-0.06984468,-0.1825503,1.718218,0.4616582,-0.08489234,1.596899,NA,NA,NotTracked,Closed,
-0.5131836,0.6313477,0.1787109,0.9116211,-0.3818359,-0.09716797,-2,8,-1,-2,0,-1,2,-1,-2,-1,0,0,0,-2,-1,-2,-43.25,-43.25,-43.25,-4.75,-4.75,-4.75,7.235184,6.02019,7.250707,2.051092,3.160456,6.7653,-0.04800011,-0.4711092,1.629697,0.2285604,0.06410059,1.515733,0.1679714,0.3481325,1.711469,-0.09973338,-0.4741321,1.627954,0.2164629,0.02476706,1.584069,0.1486505,-0.1081198,1.721886,0.1499241,-0.4340044,1.702051,-0.02599771,0.08789208,1.713373,0.06664079,-0.4256608,1.66923,-0.06994286,-0.1843421,1.717819,0.4492728,-0.09916337,1.611549,NA,NA,NotTracked,Unknown,
-0.3417969,0.6967773,0.2783203,0.9116211,-0.3818359,-0.09716797,-3,-8,-4,-4,-2,1,3,-1,-2,-1,0,0,0,-2,-1,-2,-56.1875,-56.1875,-56.1875,-4.75,-4.75,-4.75,7.021532,5.61824,7.108905,2.051092,3.160456,6.7653,-0.04819237,-0.470546,1.630998,0.2075438,9.945071E-05,1.4827,0.1669978,0.3482451,1.712083,-0.09991523,-0.4722191,1.630827,0.1707274,-0.0132982,1.538417,0.1484123,-0.10772,1.722911,0.1502331,-0.4333011,1.702061,-0.02683779,0.08760028,1.713006,0.06747133,-0.4249887,1.668286,-0.06955287,-0.1868268,1.718009,0.4320984,-0.1082301,1.626377,NA,NA,NotTracked,Unknown,
-0.1723633,0.8803711,0.2617188,0.9116211,-0.3818359,-0.09716797,0,3,1,-2,0,-3,0,-2,-2,-1,0,0,0,-2,-1,-2,-52.8125,-52.8125,-52.8125,-4.75,-4.75,-4.75,6.913801,5.256058,7.005623,2.051092,3.160456,6.7653,-0.04764509,-0.4746474,1.631552,0.2058697,-0.09670957,1.472209,0.1653574,0.3486782,1.712551,-0.09539708,-0.4923671,1.62422,0.1704673,-0.1331347,1.537063,0.1483317,-0.1071699,1.723651,0.150808,-0.4321454,1.702241,-0.02684117,0.08712236,1.713443,0.06882422,-0.4236538,1.667537,-0.06942278,-0.1875584,1.718487,0.4238809,-0.1163232,1.641508,NA,NA,NotTracked,Unknown,
0.0234375,0.8588867,0.3505859,0.9116211,-0.3818359,-0.09716797,-5,-16,-4,-4,-3,1,0,0,-2,-1,0,0,0,-2,-1,-2,-33.375,-33.375,-33.375,-4.75,-4.75,-4.75,6.840644,4.86192,6.915258,2.051092,3.160456,6.7653,-0.04692784,-0.4739967,1.632861,0.2171248,-0.1856034,1.493444,0.1624876,0.348998,1.713269,-0.09628127,-0.4987476,1.632857,0.1895706,-0.2405748,1.530652,0.1483655,-0.1069463,1.72394,0.1513992,-0.4315136,1.702143,-0.02689393,0.08641972,1.714055,0.06978463,-0.4230657,1.667071,-0.06946952,-0.1879476,1.718958,0.4102693,-0.1290678,1.678007,NA,NA,NotTracked,Closed,
0.4125977,0.8066406,0.3393555,0.9116211,-0.3818359,-0.09716797,-2,-5,-1,2,-1,1,-2,1,-2,-1,0,0,0,-2,-1,-2,12.625,12.625,12.625,-4.75,-4.75,-4.75,6.83682,4.457231,6.816101,2.051092,3.160456,6.7653,-0.04630287,-0.4743998,1.631925,0.2243224,-0.2799924,1.508849,0.1591113,0.3496732,1.713938,-0.09502842,-0.5010467,1.624158,0.2159883,-0.3451532,1.529429,0.1482488,-0.1068766,1.72413,0.1514282,-0.4314817,1.702017,-0.0271661,0.08549219,1.714942,0.06997546,-0.4230993,1.666678,-0.06920948,-0.1892658,1.719619,0.3844734,-0.1403434,1.699279,NA,NA,NotTracked,Closed,
0.5371094,0.9799805,0.1953125,0.9116211,-0.3818359,-0.09716797,0,0,0,-2,0,0,-1,0,-2,-1,0,0,0,-2,-1,-2,-12.1875,-12.1875,-12.1875,-4.75,-4.75,-4.75,6.897192,4.073603,6.700744,2.051092,3.160456,6.7653,-0.04731565,-0.4754174,1.632228,0.257606,-0.3520001,1.532424,0.156564,0.3496614,1.714844,-0.09620019,-0.4928882,1.626019,0.2131928,-0.4032749,1.559317,0.1477699,-0.1069272,1.724394,0.1507795,-0.4316714,1.701558,-0.02755312,0.0845762,1.715878,0.06943775,-0.423133,1.666048,-0.06905078,-0.1902567,1.720009,0.3793159,-0.1424206,1.702747,NA,NA,NotTracked,Unknown,
0.9980469,0.8408203,0.2167969,0.9116211,-0.3818359,-0.09716797,-1,1,-1,1,-3,-1,-2,1,-2,-1,0,0,0,-2,-1,-2,5.0625,5.0625,5.0625,-4.75,-4.75,-4.75,7.053649,3.638866,6.465311,2.051092,3.160456,6.7653,-0.04717581,-0.4756639,1.630841,0.3030987,-0.4107984,1.539145,0.1541954,0.3496858,1.715762,-0.09373453,-0.5034962,1.613714,0.2773283,-0.3930522,1.568147,0.1468054,-0.1069213,1.724283,0.148683,-0.4319553,1.699655,-0.02784671,0.08326989,1.716304,0.06704288,-0.4229813,1.663723,-0.06908286,-0.1908941,1.720118,0.3721693,-0.1500298,1.704061,NA,NA,NotTracked,Unknown,
1.037109,0.6166992,0.07763672,0.9116211,-0.3818359,-0.09716797,0,-2,-1,-1,-2,-2,-2,-3,-2,-1,0,0,0,-2,-1,-2,39.375,39.375,39.375,-4.75,-4.75,-4.75,7.302924,3.404675,6.20426,2.051092,3.160456,6.7653,-0.04831206,-0.4763024,1.629525,0.3232204,-0.4431002,1.577982,0.1525549,0.3496595,1.716701,-0.1019692,-0.4918795,1.636,0.2764244,-0.4269158,1.575717,0.1465563,-0.1068614,1.724357,0.1487383,-0.4319695,1.699136,-0.02820223,0.08304279,1.716975,0.06710973,-0.4229655,1.663074,-0.06917242,-0.1916031,1.720263,0.3691661,-0.1666673,1.699324,NA,NA,NotTracked,Unknown,
1.069336,0.484375,-0.09130859,0.9116211,-0.3818359,-0.09716797,-2,-4,-4,-1,-1,1,-2,-1,-2,-1,0,0,0,-2,-1,-2,-47.75,-47.75,-47.75,-4.75,-4.75,-4.75,7.724247,3.233709,5.765694,2.051092,3.160456,6.7653,-0.04942759,-0.4757885,1.629912,0.3420487,-0.4641829,1.60273,0.1516194,0.3498135,1.717091,-0.1022101,-0.4893655,1.629227,0.2875262,-0.4730542,1.5844,0.1465534,-0.1068123,1.724462,0.1493392,-0.4320036,1.699122,-0.02849708,0.08296634,1.717333,0.06784216,-0.4231007,1.662836,-0.06942242,-0.1925717,1.720234,0.3689084,-0.1794122,1.696153,NA,NA,NotTracked,NotTracked,
1.029785,0.3339844,-0.09960938,0.9116211,-0.3818359,-0.09716797,0,-1,0,0,-1,-3,-2,-1,-2,-1,0,0,0,-2,-1,-2,-28.25,-28.25,-28.25,-4.75,-4.75,-4.75,7.900193,3.188265,5.497705,2.051092,3.160456,6.7653,-0.05106425,-0.4751388,1.629528,0.3537539,-0.4734919,1.615886,0.150721,0.349913,1.717445,-0.09796115,-0.4980007,1.611167,0.2985767,-0.4565527,1.591015,0.1466314,-0.1067947,1.724538,0.1505208,-0.4320238,1.699014,-0.02864481,0.08292975,1.717585,0.06910999,-0.4233752,1.6627,-0.06962947,-0.1929163,1.720262,0.3687356,-0.1835127,1.697071,NA,NA,NotTracked,NotTracked,
