ALX,ALY,ALZ,ARX,ARY,ARZ,EMG0L,EMG1L,EMG2L,EMG3L,EMG4L,EMG5L,EMG6L,EMG7L,EMG0R,EMG1R,EMG2R,EMG3R,EMG4R,EMG5R,EMG6R,EMG7R,GLX,GLY,GLZ,GRX,GRY,GRZ,ORL,OPL,OYL,ORR,OPR,OYR,LHNX,LHNY,LHNZ,RHNX,RHNY,RHNZ,HX,HY,HZ,LTX,LTY,LTZ,RTX,RTY,RTZ,SpineMidX,SpineMidY,SpineMidZ,SpineBaseX,SpineBaseY,SpineBaseZ,ShoulderLeftX,ShoulderLeftY,ShoulderLeftZ,ShoulderRightX,ShoulderRightY,ShoulderRightZ,ElbowLeftX,ElbowLeftY,ElbowLeftZ,ElbowRightX,ElbowRightY,ElbowRightZ,Myo_Pose_left,Myo_Pose_Right,Kinect_pose_left,Kinect_pose_right
0.9199219,-0.3618164,-0.09130859,0.8867188,0.3730469,-0.1245117,1,-1,-1,0,-2,-2,0,0,2,0,0,1,-1,0,-1,1,0.125,0.125,0.125,-2.8125,-2.8125,-2.8125,2.076534,3.127486,5.748532,8.098683,3.180403,8.40528,-0.0732327,-0.4834421,1.629179,0.3236184,-0.4777404,1.601095,0.117004,0.3506381,1.715151,-0.023158,-0.4728653,1.600154,0.2755058,-0.460151,1.586509,0.1220556,-0.1041183,1.72111,0.1270488,-0.427979,1.695905,-0.05542456,0.08183049,1.716754,0.04543038,-0.4197201,1.662998,-0.09460185,-0.192453,1.725453,0.3434314,-0.189503,1.693968,NA,NA,NotTracked,NotTracked,
0.9213867,-0.3632813,-0.09130859,0.8857422,0.3769531,-0.1235352,1,-2,0,-3,-2,-1,1,1,-1,0,-1,0,-1,-1,-1,1,-0.875,-0.875,-0.875,-2.25,-2.25,-2.25,2.074582,3.127242,5.750566,8.095053,3.181449,8.403146,-0.07338903,-0.4839893,1.62942,0.3236839,-0.4773259,1.601612,0.1172863,0.3505443,1.715034,-0.02391127,-0.4637642,1.601162,0.275329,-0.4605916,1.585859,0.1221777,-0.1041281,1.720885,0.127161,-0.4279935,1.69569,-0.05533759,0.08184303,1.7167,0.04557296,-0.4197382,1.662691,-0.09452619,-0.192473,1.72543,0.3435307,-0.189613,1.693807,NA,NA,NotTracked,NotTracked,
0.9228516,-0.3647461,-0.09912109,0.8876953,0.3740234,-0.121582,1,-1,-1,-1,0,2,-1,-1,0,-2,-1,-1,-2,-1,0,-1,-2.3125,-2.3125,-2.3125,-0.875,-0.875,-0.875,2.073631,3.127203,5.750328,8.094711,3.181616,8.398177,-0.07331985,-0.4836274,1.628564,0.3240149,-0.4777506,1.601681,0.1173891,0.3504592,1.714956,-0.02335742,-0.4704314,1.600464,0.275493,-0.4602413,1.586167,0.1222629,-0.1041743,1.72066,0.127245,-0.4280559,1.695455,-0.05525776,0.08167994,1.71657,0.04565042,-0.4197907,1.662436,-0.09429207,-0.1927097,1.72535,0.3437574,-0.1897766,1.693669,NA,NA,NotTracked,NotTracked,
0.9228516,-0.3637695,-0.09521484,0.894043,0.3764648,-0.1254883,-1,-1,-3,0,-1,0,-2,1,0,-2,-1,-3,-1,-4,-1,-1,-4.1875,-4.1875,-4.1875,-0.0625,-0.0625,-0.0625,2.068666,3.126505,5.746739,8.094598,3.181833,8.396725,-0.07342667,-0.4838109,1.627926,0.3242155,-0.4779235,1.602123,0.1176302,0.3504826,1.714726,-0.0232565,-0.4647984,1.600328,0.2727246,-0.4834539,1.583691,0.122331,-0.1041485,1.720574,0.1273019,-0.4280372,1.695348,-0.05520766,0.08166485,1.716583,0.0457076,-0.4197681,1.662337,-0.09409308,-0.1928377,1.725323,0.3438774,-0.1895596,1.693689,NA,NA,NotTracked,NotTracked,
0.9223633,-0.3671875,-0.09326172,0.8891602,0.3730469,-0.1210938,-1,0,-3,-1,-1,0,0,1,-1,0,-2,-1,-1,0,0,-1,-3.625,-3.625,-3.625,-0.8125,-0.8125,-0.8125,2.067328,3.126831,5.74362,8.094392,3.182338,8.395555,-0.07289682,-0.4836569,1.628757,0.324333,-0.4777209,1.601829,0.1177666,0.3505223,1.714575,-0.02302046,-0.4722257,1.60035,0.2745181,-0.4642883,1.584261,0.1224653,-0.1041474,1.720494,0.1274008,-0.4280682,1.695299,-0.05505016,0.08158656,1.716475,0.04580399,-0.4197977,1.662295,-0.09402131,-0.1925258,1.725189,0.3440687,-0.1898144,1.693561,NA,NA,NotTracked,NotTracked,
0.9228516,-0.362793,-0.1020508,0.8857422,0.3730469,-0.1264648,0,-3,-1,-1,-1,-3,-2,-2,0,-1,0,-1,0,-1,-2,-1,-1,-1,-1,-1.625,-1.625,-1.625,2.067642,3.127046,5.740454,8.092619,3.182935,8.3929,-0.07274966,-0.4833534,1.628059,0.3242511,-0.4776171,1.602043,0.1178714,0.3505222,1.714555,-0.02227643,-0.4805203,1.599414,0.2748388,-0.4620346,1.58471,0.122544,-0.1041548,1.720417,0.127486,-0.4280743,1.695232,-0.0548289,0.08182056,1.716364,0.04590935,-0.4197958,1.662208,-0.09387444,-0.1927273,1.725129,0.3440956,-0.1898207,1.693583,NA,NA,NotTracked,NotTracked,
0.9287109,-0.3618164,-0.09472656,0.890625,0.3779297,-0.1191406,0,-1,-2,-2,-3,0,-2,-2,-1,0,0,0,-1,1,0,0,2.1875,2.1875,2.1875,-1.75,-1.75,-1.75,2.067766,3.126054,5.742464,8.091097,3.182583,8.389643,-0.07263276,-0.4841551,1.627566,0.3242325,-0.4771182,1.601238,0.1179619,0.3505412,1.71449,-0.02250923,-0.4696605,1.599344,0.2750698,-0.4640373,1.584452,0.1226223,-0.1041755,1.720299,0.1275883,-0.4280928,1.695112,-0.05476574,0.0818068,1.716226,0.04603912,-0.419812,1.661999,-0.09374686,-0.1928356,1.725061,0.3441461,-0.1898692,1.693483,NA,NA,NotTracked,NotTracked,
0.9179688,-0.3608398,-0.09619141,0.887207,0.3740234,-0.1196289,2,1,-2,0,-2,-1,-1,0,-1,0,-1,-2,-1,0,-2,-1,3.875,3.875,3.875,-3.375,-3.375,-3.375,2.07106,3.125179,5.745229,8.087791,3.183775,8.384011,-0.07229924,-0.4866132,1.628267,0.324538,-0.4779878,1.602947,0.1180976,0.3504885,1.714289,-0.02259001,-0.4726307,1.599403,0.2728934,-0.494904,1.584903,0.1226456,-0.104179,1.720229,0.1276054,-0.4280965,1.695066,-0.05479929,0.0817626,1.716236,0.04604611,-0.4198264,1.661973,-0.09370528,-0.192853,1.725061,0.344205,-0.1899832,1.693461,NA,NA,NotTracked,NotTracked,
0.9160156,-0.3652344,-0.09228516,0.894043,0.3798828,-0.1206055,-1,-2,0,-1,-1,1,2,0,-4,-3,-1,-1,0,-2,-2,-2,3.5625,3.5625,3.5625,0.125,0.125,0.125,2.073447,3.124643,5.744917,8.087152,3.183676,8.382011,-0.07260171,-0.4861638,1.629878,0.324611,-0.4779311,1.603919,0.1181187,0.3504396,1.71423,-0.02242832,-0.466324,1.600714,0.2754077,-0.4628942,1.586094,0.1227035,-0.1041736,1.720189,0.1277005,-0.428094,1.695056,-0.05475445,0.08170438,1.71621,0.04615383,-0.4198251,1.661959,-0.09369068,-0.1928611,1.725149,0.344261,-0.1900121,1.693542,NA,NA,NotTracked,NotTracked,
0.9287109,-0.3623047,-0.09423828,0.9248047,0.4042969,-0.1582031,-2,-2,0,-2,1,-1,1,-1,-1,2,0,2,-2,2,0,2,0.8125,0.8125,0.8125,-4.5,-4.5,-4.5,2.085436,3.117183,5.736517,8.073475,3.193664,8.392857,-0.07177474,-0.4852841,1.62868,0.3242125,-0.4781166,1.603625,0.1180926,0.3504657,1.714065,-0.02217366,-0.4732326,1.599509,0.2733484,-0.4943765,1.585727,0.122714,-0.1041647,1.720161,0.1277374,-0.4280996,1.695075,-0.05475619,0.08162839,1.716164,0.04617909,-0.4198249,1.661996,-0.09364012,-0.1927859,1.725307,0.3443465,-0.1899878,1.693736,NA,NA,NotTracked,NotTracked,
0.9902344,-0.409668,-0.08496094,1.083496,0.5112305,-0.09716797,-2,-1,-3,1,1,-7,-6,-7,3,16,28,7,2,3,1,-1,27.0625,27.0625,27.0625,-22.375,-22.375,-22.375,2.166171,3.109617,5.676576,7.958032,3.22042,8.480208,-0.06874703,-0.4762484,1.62804,0.3192584,-0.4711901,1.601019,0.1180386,0.3504508,1.713903,-0.02014017,-0.4607108,1.600564,0.2742884,-0.4412941,1.584192,0.1226505,-0.104171,1.720104,0.1276776,-0.4280954,1.695082,-0.05477682,0.08163042,1.716126,0.04610572,-0.4198198,1.662033,-0.0935952,-0.1915767,1.72619,0.3447629,-0.1894588,1.694382,NA,NA,NotTracked,NotTracked,
0.9838867,-0.5048828,-0.03515625,1.018555,0.6567383,0.09716797,-2,-1,-1,0,3,1,2,0,-1,3,4,2,-2,-1,0,0,25.875,25.875,25.875,-78.625,-78.625,-78.625,2.40584,3.16255,5.461979,7.444913,3.341518,8.918968,-0.06349828,-0.457857,1.617539,0.3042651,-0.4479058,1.586937,0.1179771,0.3505497,1.713798,-0.02311234,-0.4486734,1.57734,0.2614149,-0.4224766,1.57736,0.1225296,-0.1041067,1.7199,0.127559,-0.4279878,1.694967,-0.05478244,0.08169892,1.716045,0.04588566,-0.4196863,1.66188,-0.09412939,-0.1877414,1.730905,0.3466775,-0.1819141,1.699988,NA,NA,NotTracked,NotTracked,
0.9477539,-0.6621094,0.07470703,0.9008789,0.7119141,0.2163086,-3,-3,-3,-3,0,-3,-7,-5,1,-3,-4,1,-1,1,-1,4,1.1875,1.1875,1.1875,-74.625,-74.625,-74.625,2.724865,3.368229,5.142578,7.11643,3.536084,9.168699,-0.05212041,-0.4161365,1.597508,0.2830819,-0.4165095,1.552964,0.1178082,0.3507274,1.713604,-0.02606121,-0.4019221,1.5392,0.2691719,-0.454365,1.581815,0.122022,-0.1037792,1.71948,0.126759,-0.4275208,1.694712,-0.05483346,0.08175776,1.715948,0.04477114,-0.4191385,1.661554,-0.09687381,-0.1752902,1.740326,0.3487427,-0.1681975,1.710106,NA,NA,NotTracked,NotTracked,
0.8271484,-0.9008789,0.2529297,0.7700195,0.7880859,0.203125,-6,-3,-1,-1,-2,-1,-8,-11,3,-1,-1,-3,-3,0,1,4,38.625,38.625,38.625,-131.1875,-131.1875,-131.1875,2.906743,3.615396,4.956264,6.865425,3.797743,9.263189,-0.02541233,-0.3656854,1.577458,0.2555008,-0.3594499,1.548037,0.1174616,0.3511364,1.713137,-0.04022115,-0.4563029,1.6205,0.2738189,-0.4479742,1.574,0.1218361,-0.1035235,1.719363,0.1263087,-0.4271443,1.695038,-0.05481486,0.08206192,1.715613,0.04423419,-0.4187741,1.662116,-0.09954111,-0.1657373,1.743979,0.3492856,-0.1604573,1.712837,NA,NA,Unknown,Unknown,
0.7578125,-0.7573242,0.171875,0.6225586,0.4975586,0.1015625,-1,-2,-6,-2,-1,1,-1,-4,1,5,3,1,0,-5,2,5,102.125,102.125,102.125,-126.125,-126.125,-126.125,3.060405,3.89538,4.929515,6.600883,4.127745,9.159603,-0.04863997,-0.3112122,1.5012,0.2603514,-0.3160486,1.504615,0.1170102,0.351632,1.71251,0.006670031,-0.3567753,1.566647,0.2146438,-0.3383777,1.476267,0.1217075,-0.1032565,1.719432,0.1258492,-0.426497,1.696507,-0.05447461,0.08322532,1.715376,0.04395746,-0.4183024,1.664034,-0.1015908,-0.1565049,1.745686,0.3472886,-0.1491377,1.71568,NA,NA,Unknown,Unknown,
0.6513672,-0.5556641,0.09521484,0.4785156,0.5058594,0.1669922,-7,3,0,-3,-4,-10,-13,-14,-10,-5,-3,-3,-3,-7,-2,-3,109.5,109.5,109.5,-55.1875,-55.1875,-55.1875,3.19531,4.135522,5.022785,6.547637,4.294059,9.02342,-0.08425107,-0.2509513,1.463737,0.3141894,-0.2322426,1.426008,0.1166197,0.3522411,1.711811,-0.02819655,-0.2696202,1.419286,0.2663422,-0.2611601,1.393667,0.1213846,-0.1025311,1.719585,0.1252086,-0.4251523,1.698546,-0.05388694,0.08463327,1.714799,0.04344594,-0.4171159,1.66654,-0.1039132,-0.1376827,1.750274,0.3460495,-0.1353045,1.720641,NA,NA,Unknown,Unknown,
0.5810547,-0.4516602,0.1191406,0.4047852,0.2739258,0.4926758,-2,-7,-2,0,3,1,-3,2,13,-4,-3,-3,-1,1,0,6,72.375,72.375,72.375,-27.125,-27.125,-27.125,3.265575,4.2907,5.162065,6.513663,4.295846,8.92134,-0.1324314,-0.2127497,1.479421,0.3593249,-0.2104383,1.436989,0.1160607,0.3529903,1.711051,-0.07604113,-0.2497532,1.436667,0.3101436,-0.2411838,1.4084,0.1212596,-0.1017874,1.719629,0.1247506,-0.4239322,1.700084,-0.05328362,0.08694176,1.714414,0.0430439,-0.4160559,1.668134,-0.1047727,-0.133974,1.753334,0.3492331,-0.1252002,1.730886,NA,NA,Unknown,Unknown,
0.605957,-0.3051758,0.4541016,0.2885742,0.3129883,0.8959961,1,-2,-4,-2,2,6,8,3,1,0,-4,-3,-7,-4,-1,0,24.125,24.125,24.125,49.25,49.25,49.25,3.29371,4.280259,5.278335,6.505198,4.188542,8.918172,-0.1564633,-0.2223505,1.513417,0.3880692,-0.225661,1.474767,0.1155833,0.353436,1.710492,-0.1974371,-0.1678125,1.467375,0.3556913,-0.2516918,1.477,0.1210179,-0.1009967,1.719271,0.1243615,-0.4231135,1.700361,-0.05296139,0.08801294,1.71402,0.04257978,-0.4153029,1.668362,-0.1100247,-0.1293378,1.764718,0.3574842,-0.1168033,1.746409,NA,NA,Unknown,Unknown,
0.3408203,-0.6479492,0.7163086,0.4223633,0.7666016,0.7617188,-2,-4,0,-1,0,-3,0,-5,7,1,-2,-2,-2,-1,-3,-5,-35.1875,-35.1875,-35.1875,49.6875,49.6875,49.6875,3.353488,4.056703,5.148757,6.496961,4.011345,9.116992,-0.126973,-0.2591269,1.53367,0.363492,-0.2628222,1.508351,0.1152174,0.3539032,1.709895,-0.1752266,-0.2057623,1.472625,0.3891083,-0.2071815,1.444818,0.1210253,-0.1002774,1.718724,0.1244965,-0.4225241,1.700346,-0.05289795,0.0889491,1.713717,0.04268308,-0.4147878,1.668241,-0.1160766,-0.126038,1.773055,0.3618583,-0.1147234,1.751121,NA,NA,Unknown,Unknown,
0.4101563,-1.030762,0.5307617,0.3759766,1.068359,0.6191406,3,1,0,1,1,6,11,7,-7,-3,-3,-3,-1,-2,-1,-4,-65.4375,-65.4375,-65.4375,16,16,16,3.376753,3.987476,4.937402,6.473324,4.08211,9.270689,-0.07190128,-0.2840423,1.547963,0.2965902,-0.2875116,1.536958,0.1151225,0.3541136,1.709501,-0.1360811,-0.2218633,1.472348,0.252246,-0.343706,1.5679,0.1210781,-0.09981915,1.717929,0.1246696,-0.4220931,1.699874,-0.0530225,0.08941218,1.713307,0.04292108,-0.4142931,1.667527,-0.1176064,-0.1259055,1.774042,0.3620192,-0.116659,1.749635,NA,NA,Unknown,Unknown,
0.5449219,-1.224609,0.3959961,0.5395508,0.9189453,0.328125,2,0,0,-1,-3,0,-1,2,-3,-4,0,-1,1,0,-3,-6,-0.3125,-0.3125,-0.3125,-43.125,-43.125,-43.125,3.343546,4.081464,4.872761,6.443669,4.293969,9.240105,-0.0583258,-0.2665473,1.539822,0.2758229,-0.2603599,1.519335,0.1149899,0.3544932,1.709064,-0.1239023,-0.2058369,1.467593,0.2310379,-0.276162,1.4485,0.1209753,-0.09945246,1.717555,0.1247085,-0.421867,1.699725,-0.05312363,0.08950169,1.713197,0.04300746,-0.4140448,1.667266,-0.1171295,-0.125585,1.772776,0.3581871,-0.1191711,1.745762,NA,NA,Unknown,Unknown,
0.6010742,-0.7001953,0.1674805,0.543457,0.6162109,0.1591797,-2,-2,-3,-1,3,1,3,1,-1,-1,-1,-2,-5,-5,-1,2,45.5,45.5,45.5,-34.625,-34.625,-34.625,3.350306,4.266366,5.01036,6.442682,4.407926,9.104188,-0.1022269,-0.2200146,1.484796,0.3207296,-0.1940432,1.456542,0.1149448,0.3546208,1.708862,-0.146529,-0.171298,1.464056,0.2776841,-0.2245224,1.4681,0.1209826,-0.09924527,1.717625,0.1249515,-0.4215924,1.700257,-0.05290337,0.08987912,1.712704,0.04321727,-0.4138863,1.667596,-0.1137364,-0.1248467,1.770127,0.3509152,-0.1195246,1.740681,NA,NA,Unknown,Unknown,
0.6269531,-0.4414063,0.2612305,0.4804688,0.4189453,0.4262695,-4,3,8,2,-1,-4,-15,-11,-5,-2,-2,2,1,0,-1,-3,22.3125,22.3125,22.3125,-2.75,-2.75,-2.75,3.339105,4.318927,5.147327,6.464729,4.389791,8.993171,-0.1300196,-0.2072166,1.488365,0.3540911,-0.1819566,1.463156,0.1148721,0.3547889,1.708566,-0.1780925,-0.1570131,1.468625,0.2980412,-0.2171043,1.429715,0.1209619,-0.09907912,1.717691,0.1250398,-0.4213677,1.700686,-0.05274138,0.09047356,1.712345,0.04327964,-0.4136908,1.66792,-0.1111709,-0.1245869,1.767831,0.3493862,-0.119185,1.740424,NA,NA,Unknown,Unknown,
0.6591797,-0.453125,0.5307617,0.5942383,0.5292969,0.8251953,4,5,-1,2,-1,1,0,5,0,0,-3,-1,-4,-3,0,-2,-13.3125,-13.3125,-13.3125,19,19,19,3.326259,4.229849,5.204967,6.450996,4.203362,9.001995,-0.1392451,-0.2318851,1.508508,0.3741591,-0.2102859,1.471221,0.1147175,0.3548006,1.708107,-0.1891959,-0.1804383,1.46676,0.3253485,-0.2455105,1.443714,0.1208934,-0.09894769,1.717479,0.1251001,-0.421299,1.700714,-0.0525691,0.09077928,1.711553,0.04331011,-0.4136578,1.667917,-0.1112546,-0.1242018,1.768678,0.3592317,-0.1138156,1.749141,NA,NA,Unknown,Unknown,
0.5688477,-0.7607422,0.7558594,0.402832,0.7387695,0.8198242,2,-2,-5,-2,-2,-1,4,5,5,1,1,5,4,0,2,3,-17.125,-17.125,-17.125,19.6875,19.6875,19.6875,3.406714,4.045895,5.069364,6.393017,4.111006,9.127357,-0.1152692,-0.2606173,1.525903,0.3594229,-0.2369606,1.502191,0.1145715,0.3551498,1.707683,-0.1729329,-0.2058123,1.473,0.3954866,-0.1853686,1.43924,0.120921,-0.09873918,1.717093,0.1252349,-0.4211928,1.70057,-0.05259167,0.09077971,1.711179,0.04348317,-0.4135599,1.667568,-0.1132252,-0.1253762,1.773398,0.3595421,-0.1140287,1.750553,NA,NA,Unknown,Unknown,
0.3442383,-1.017578,0.5253906,0.2304688,0.9267578,0.6181641,-1,0,-1,-1,0,2,-8,-2,15,-2,-4,-1,0,1,1,5,-15.625,-15.625,-15.625,17.0625,17.0625,17.0625,3.46025,4.039228,4.909455,6.361282,4.134674,9.260798,-0.07265379,-0.2671306,1.546803,0.3048272,-0.2719352,1.541886,0.1145406,0.3553691,1.706903,-0.1381635,-0.2118792,1.481375,0.3568794,-0.1963808,1.479128,0.1209167,-0.09850372,1.716075,0.1253472,-0.4209462,1.699872,-0.05270678,0.09063978,1.710943,0.04360042,-0.4133352,1.666706,-0.1136466,-0.1254924,1.774412,0.3595115,-0.1149196,1.751682,NA,NA,Unknown,Unknown,
0.3095703,-1.057129,0.2866211,0.3242188,0.9594727,0.4956055,3,-2,-1,-3,-4,-7,-5,5,0,5,1,-1,-2,-2,0,1,-6.125,-6.125,-6.125,-3.9375,-3.9375,-3.9375,3.434583,4.192464,4.865847,6.372237,4.242995,9.299808,-0.05810918,-0.253495,1.540617,0.2864058,-0.2489592,1.525345,0.1146688,0.3554826,1.706425,-0.1254653,-0.1945606,1.476621,0.3407753,-0.176469,1.43875,0.1208832,-0.0983495,1.715704,0.1253065,-0.4208358,1.69959,-0.05270422,0.09064472,1.710582,0.04357856,-0.4132726,1.666469,-0.1130021,-0.1254881,1.774074,0.3583224,-0.1162894,1.751015,NA,NA,Open,Unknown,
0.5219727,-0.847168,0.2714844,0.565918,0.7006836,0.300293,-4,-5,-3,-1,-1,1,2,-5,5,0,-2,-1,3,2,2,0,2.4375,2.4375,2.4375,-24.625,-24.625,-24.625,3.360595,4.31081,4.969298,6.416322,4.390763,9.150752,-0.09536804,-0.2158161,1.505477,0.3191691,-0.2005461,1.464864,0.1148898,0.3556032,1.705305,-0.145293,-0.1705028,1.468425,0.3536908,-0.152273,1.4248,0.1209048,-0.09834727,1.715519,0.1253393,-0.4208984,1.699469,-0.05267947,0.09048644,1.710267,0.04361156,-0.4133526,1.666302,-0.1110021,-0.1247862,1.770431,0.3537728,-0.1176276,1.744877,NA,NA,Unknown,Unknown,
0.6679688,-0.5200195,0.3149414,0.6044922,0.4785156,0.4023438,-2,-4,-4,-2,-2,-7,-13,-7,4,-3,1,0,3,13,1,-2,10.0625,10.0625,10.0625,-30.625,-30.625,-30.625,3.301303,4.351737,5.133992,6.439633,4.402046,8.967732,-0.1347086,-0.2015196,1.487655,0.3571818,-0.1853393,1.471255,0.1150637,0.3556166,1.704879,-0.183094,-0.1538971,1.467114,0.391682,-0.1348989,1.426917,0.120912,-0.09826278,1.715496,0.1253774,-0.4208424,1.69948,-0.05248328,0.09095962,1.709751,0.04363186,-0.4133099,1.666296,-0.1104268,-0.1242693,1.767105,0.3519546,-0.1176425,1.744182,NA,NA,Unknown,Unknown,
0.7236328,-0.5073242,0.581543,0.6108398,0.4316406,0.7089844,0,-8,-8,0,-2,0,-2,2,3,-3,-5,-16,-13,-8,-2,3,17.4375,17.4375,17.4375,-2.25,-2.25,-2.25,3.303291,4.267501,5.290494,6.432917,4.31962,8.855143,-0.161055,-0.2116137,1.51015,0.3909193,-0.198001,1.469086,0.115284,0.3558214,1.704465,-0.2109592,-0.1667625,1.472389,0.426662,-0.1451782,1.429222,0.1209385,-0.09825721,1.715429,0.1254447,-0.4208294,1.699548,-0.05223659,0.09133073,1.70925,0.04368989,-0.4132994,1.666379,-0.1105131,-0.1242086,1.766934,0.3515461,-0.1169236,1.747104,NA,NA,Unknown,Unknown,
0.5991211,-0.6459961,0.6855469,0.4194336,0.6430664,0.8530273,-8,-4,1,-3,-6,-7,-9,-16,7,1,0,-2,0,1,0,1,-16.8125,-16.8125,-16.8125,24.5625,24.5625,24.5625,3.347505,4.146169,5.242116,6.383039,4.16942,8.956721,-0.1485441,-0.234328,1.523119,0.3813031,-0.2253997,1.502359,0.1154879,0.3559161,1.703472,-0.2004993,-0.1897769,1.478849,0.4206277,-0.1737265,1.453722,0.1210134,-0.09821365,1.715129,0.1254759,-0.4207508,1.699433,-0.05185422,0.09169887,1.708361,0.04371357,-0.4132346,1.666304,-0.111728,-0.1240465,1.769276,0.353251,-0.1170767,1.754041,NA,NA,Unknown,Unknown,
0.3945313,-0.8769531,0.5849609,0.262207,0.840332,0.6733398,4,0,0,0,2,4,1,4,-2,-2,1,2,-1,3,-1,1,-23.8125,-23.8125,-23.8125,16.3125,16.3125,16.3125,3.403865,4.083432,5.081074,6.351573,4.157718,9.090692,-0.1172235,-0.2441601,1.524411,0.3453175,-0.2399728,1.517407,0.1159714,0.3558974,1.702149,-0.1701183,-0.1975126,1.475818,0.3828058,-0.1885161,1.470511,0.1211897,-0.09818131,1.714357,0.1256619,-0.420716,1.698908,-0.0516825,0.09163639,1.707902,0.04386223,-0.4132012,1.665804,-0.1121838,-0.1234749,1.773918,0.3531042,-0.1176452,1.756692,NA,NA,Unknown,Lasso,
0.3203125,-0.9760742,0.4472656,0.3217773,0.8320313,0.5292969,-2,0,-1,-2,-1,-4,-11,-5,-4,-2,2,0,-6,-2,-5,-6,6.6875,6.6875,6.6875,-29.0625,-29.0625,-29.0625,3.441614,4.122683,4.978611,6.315946,4.243719,9.133655,-0.0927943,-0.2408485,1.526601,0.3096399,-0.2477027,1.535711,0.11616,0.3556783,1.700752,-0.1472559,-0.1947446,1.479536,0.3606198,-0.1799296,1.466024,0.1212771,-0.09809858,1.713495,0.1257815,-0.4206243,1.698198,-0.05167732,0.09146882,1.707458,0.04398343,-0.4130965,1.665161,-0.1095779,-0.1235727,1.774874,0.3524284,-0.1185323,1.757087,NA,NA,Open,Unknown,
0.3334961,-0.8735352,0.340332,0.4370117,0.6948242,0.4350586,-4,-2,0,-1,-3,-7,-16,-12,-5,-4,-3,-1,0,-1,-1,-2,28.5625,28.5625,28.5625,-10.8125,-10.8125,-10.8125,3.458248,4.209027,4.986238,6.308205,4.287911,9.108814,-0.09526484,-0.2281663,1.516754,0.3068928,-0.2400745,1.53063,0.1163157,0.3555945,1.700275,-0.1474733,-0.183139,1.4782,0.3570914,-0.1735409,1.461673,0.1212885,-0.09809707,1.713374,0.1258212,-0.4205929,1.698139,-0.0516573,0.09131745,1.707428,0.04404016,-0.4130559,1.665114,-0.1056178,-0.1238182,1.77448,0.3500316,-0.11981,1.756103,NA,NA,Unknown,Unknown,
0.503418,-0.6704102,0.4033203,0.5126953,0.6337891,0.5522461,0,0,-2,1,0,-2,0,-1,2,1,0,1,0,0,-1,0,7.5625,7.5625,7.5625,8.5625,8.5625,8.5625,3.445651,4.278554,5.063863,6.333374,4.290319,9.095346,-0.1084979,-0.2199707,1.500279,0.3135385,-0.2331176,1.516875,0.1164185,0.3554533,1.699721,-0.1575978,-0.1756475,1.46903,0.3596133,-0.1756026,1.46346,0.1213685,-0.09812806,1.713251,0.1259286,-0.4205777,1.698084,-0.05160088,0.09125622,1.70737,0.044156,-0.41305,1.665058,-0.1005719,-0.1259571,1.771786,0.347191,-0.1202891,1.754,NA,NA,Unknown,Unknown,
0.5786133,-0.6005859,0.4423828,0.4179688,0.5224609,0.5605469,0,-1,-1,-1,-2,-6,-9,-1,-1,0,-1,-2,-2,-1,-3,0,-19.6875,-19.6875,-19.6875,7.1875,7.1875,7.1875,3.405994,4.231685,5.0959,6.343341,4.234226,9.087342,-0.110643,-0.2309002,1.498066,0.3202032,-0.2372533,1.508795,0.1164166,0.355394,1.699698,-0.1620584,-0.1862972,1.461862,0.3578981,-0.1848626,1.473372,0.1214678,-0.09816122,1.713169,0.1260111,-0.4206024,1.698,-0.0516045,0.090991,1.707398,0.04423478,-0.4130723,1.664983,-0.09968585,-0.1269967,1.769035,0.346599,-0.120771,1.752172,NA,NA,Unknown,Unknown,
0.4672852,-0.5673828,0.4501953,0.3842773,0.4946289,0.5888672,-7,-2,-1,-1,-2,2,0,-1,1,0,-2,-2,0,-3,-3,-1,-41.25,-41.25,-41.25,13.5,13.5,13.5,3.36636,4.150401,5.084401,6.351624,4.162537,9.077614,-0.1018,-0.2529265,1.513212,0.3224182,-0.2523728,1.507612,0.1165473,0.3553891,1.69986,-0.1511537,-0.2015156,1.4584,0.3556083,-0.2024798,1.479787,0.121495,-0.098139,1.713169,0.1260135,-0.4205711,1.697973,-0.05165583,0.09091713,1.707561,0.04424426,-0.4130358,1.664995,-0.1005651,-0.1276877,1.768342,0.3466958,-0.121073,1.751594,NA,NA,Unknown,Unknown,
0.4453125,-0.5966797,0.4360352,0.4057617,0.4853516,0.503418,-7,-4,-3,-3,-1,-2,-3,-4,-2,0,-1,0,-2,-2,0,1,-78.5,-78.5,-78.5,46.625,46.625,46.625,3.274835,4.048653,5.07141,6.402818,4.068362,9.069193,-0.06623142,-0.3031381,1.543562,0.3231157,-0.2809181,1.478455,0.1166849,0.3552992,1.699899,-0.1190017,-0.2480664,1.464667,0.3435197,-0.2342931,1.428625,0.1215643,-0.09821769,1.713151,0.1260707,-0.4206694,1.697806,-0.05181266,0.09051,1.707828,0.04431849,-0.4131322,1.66491,-0.1023813,-0.1297176,1.766691,0.347489,-0.127172,1.747774,NA,NA,Unknown,Unknown,
0.7304688,-0.6464844,0.3188477,0.5478516,0.6176758,0.362793,0,-2,-2,-5,-8,-2,-1,-1,0,-1,-2,2,0,-1,0,0,-82.625,-82.625,-82.625,78.9375,78.9375,78.9375,3.125274,3.824951,5.029044,6.540383,3.923494,9.037392,-0.04507606,-0.3589329,1.577168,0.3005664,-0.3384081,1.523871,0.1173014,0.3548271,1.700267,-0.07626946,-0.3160893,1.4684,0.3286061,-0.2836103,1.443032,0.1217516,-0.09835142,1.713196,0.1262745,-0.420831,1.697522,-0.05186354,0.08977432,1.70824,0.0445913,-0.4133152,1.664581,-0.1014728,-0.1414941,1.759543,0.3473334,-0.132348,1.744098,NA,NA,Unknown,Unknown,
0.7739258,-0.6152344,0.1489258,0.8769531,0.6875,0.3154297,-1,-1,-3,-2,-2,-3,1,0,-1,1,1,0,-1,-4,0,1,-74.125,-74.125,-74.125,94.25,94.25,94.25,2.999483,3.62961,5.027654,6.801201,3.674753,8.94663,-0.07083332,-0.3877183,1.564696,0.3188482,-0.3782523,1.495874,0.1182976,0.3542366,1.700568,-0.06804907,-0.3742572,1.51,0.2860706,-0.4135315,1.5195,0.1221894,-0.09875537,1.713482,0.126685,-0.4213758,1.696985,-0.05153043,0.08831416,1.708507,0.04495624,-0.4138044,1.66403,-0.1000051,-0.1538812,1.750605,0.3480324,-0.1447257,1.73515,NA,NA,Unknown,Unknown,
0.9345703,-0.6328125,0.07958984,0.96875,0.6010742,0.2016602,-5,-2,-3,-1,-3,-1,-1,-3,0,-1,8,3,0,-2,-2,-1,-50.9375,-50.9375,-50.9375,114.25,114.25,114.25,2.803251,3.430414,5.126097,7.073616,3.51597,8.82195,-0.06336056,-0.4298432,1.587788,0.3236896,-0.4152185,1.523662,0.1188688,0.3535204,1.700879,-0.0814328,-0.4522038,1.521154,0.2863199,-0.4018365,1.572033,0.1226009,-0.09939779,1.713812,0.1273118,-0.4222924,1.695953,-0.05126717,0.08661106,1.708758,0.04549599,-0.41469,1.66293,-0.09495497,-0.1697806,1.740082,0.3494714,-0.1582205,1.72296,NA,NA,NotTracked,NotTracked,
1.066895,-0.4506836,-0.1591797,0.9956055,0.5102539,0.07226563,0,-3,-1,0,-3,-4,-3,-2,-2,-2,-1,-2,-2,1,-1,-1,-41.625,-41.625,-41.625,75.5,75.5,75.5,2.45532,3.199951,5.400727,7.341058,3.403729,8.678203,-0.06193987,-0.4583103,1.60977,0.3259678,-0.4340432,1.557161,0.1195142,0.3526168,1.701713,-0.1095875,-0.4405497,1.604756,0.2981529,-0.4232297,1.602884,0.1232184,-0.1005669,1.714566,0.1277693,-0.4235187,1.695331,-0.05077093,0.08469553,1.709065,0.04584324,-0.4156415,1.662359,-0.09193748,-0.1802072,1.7322,0.3502164,-0.1684084,1.711155,NA,NA,NotTracked,NotTracked,
0.9946289,-0.3481445,-0.09179688,0.9169922,0.5151367,-0.1381836,-1,-3,-2,-2,-2,-1,-1,0,-1,-1,-1,-1,-2,0,-2,1,-33.875,-33.875,-33.875,57.375,57.375,57.375,2.161773,3.13272,5.627909,7.619023,3.294682,8.511801,-0.06724103,-0.4776214,1.621814,0.3273914,-0.4593738,1.582087,0.1197686,0.3519182,1.702369,-0.1173019,-0.4821657,1.614238,0.2831662,-0.4517469,1.589556,0.1239137,-0.1014803,1.715202,0.1283431,-0.4245238,1.694978,-0.05013852,0.08360386,1.709479,0.04637559,-0.4163902,1.66203,-0.09051932,-0.1862013,1.728082,0.3497072,-0.1765902,1.702534,NA,NA,NotTracked,NotTracked,
1.02002,-0.4316406,-0.125,0.8725586,0.4995117,-0.07177734,0,0,-1,-1,-1,-1,1,-1,-1,-1,-1,1,-3,-1,-1,-2,9.8125,9.8125,9.8125,20.75,20.75,20.75,2.027649,3.121024,5.761742,7.74123,3.255293,8.445585,-0.07433905,-0.4834828,1.629081,0.3275046,-0.4664215,1.594201,0.1200295,0.3510218,1.702861,-0.1269153,-0.4782255,1.62944,0.2772846,-0.4434474,1.581304,0.1243259,-0.1020468,1.71543,0.1285557,-0.4252509,1.694414,-0.0497214,0.08214276,1.709829,0.04657755,-0.4168262,1.661704,-0.09027129,-0.1894645,1.726558,0.349218,-0.1809693,1.699533,NA,NA,NotTracked,NotTracked,
0.9248047,-0.3271484,-0.09765625,0.855957,0.5024414,-0.05322266,0,1,-1,-1,-1,-1,-1,0,-3,0,-1,-1,-1,0,0,0,10.8125,10.8125,10.8125,-19,-19,-19,1.986299,3.110113,5.846929,7.793796,3.232484,8.37119,-0.07746185,-0.4856487,1.633226,0.3273547,-0.4728352,1.602486,0.1205012,0.350496,1.703714,-0.1281112,-0.4816278,1.623128,0.280922,-0.4508231,1.585347,0.1247264,-0.102477,1.71568,0.1286819,-0.4256539,1.694182,-0.04938267,0.08162779,1.710387,0.04673764,-0.4171553,1.661498,-0.09036444,-0.1907671,1.726744,0.3492729,-0.1829351,1.699198,NA,NA,NotTracked,NotTracked,
0.9086914,-0.4199219,-0.04833984,0.8920898,0.3974609,-0.03173828,-1,-2,-1,1,1,1,-1,-3,-2,0,-2,-1,-1,-2,-1,1,-5.3125,-5.3125,-5.3125,-9.4375,-9.4375,-9.4375,2.003664,3.126219,5.817234,7.794131,3.213629,8.332168,-0.08001924,-0.4846731,1.632371,0.3273441,-0.4746106,1.603208,0.121039,0.3501897,1.704205,-0.1337797,-0.4835746,1.627037,0.2809658,-0.4499037,1.584471,0.1253751,-0.1029842,1.715905,0.1290283,-0.4262564,1.693901,-0.04921205,0.08145502,1.710698,0.04712476,-0.4176062,1.66113,-0.09069617,-0.1911559,1.727275,0.3493741,-0.1845805,1.699239,NA,NA,NotTracked,NotTracked,
