ALX,ALY,ALZ,ARX,ARY,ARZ,EMG0L,EMG1L,EMG2L,EMG3L,EMG4L,EMG5L,EMG6L,EMG7L,EMG0R,EMG1R,EMG2R,EMG3R,EMG4R,EMG5R,EMG6R,EMG7R,GLX,GLY,GLZ,GRX,GRY,GRZ,ORL,OPL,OYL,ORR,OPR,OYR,LHNX,LHNY,LHNZ,RHNX,RHNY,RHNZ,HX,HY,HZ,LTX,LTY,LTZ,RTX,RTY,RTZ,SpineMidX,SpineMidY,SpineMidZ,SpineBaseX,SpineBaseY,SpineBaseZ,ShoulderLeftX,ShoulderLeftY,ShoulderLeftZ,ShoulderRightX,ShoulderRightY,ShoulderRightZ,ElbowLeftX,ElbowLeftY,ElbowLeftZ,ElbowRightX,ElbowRightY,ElbowRightZ,Myo_Pose_left,Myo_Pose_Right,Kinect_pose_left,Kinect_pose_right
-0.9785156,0.1699219,-0.1132813,-1.123047,-0.2954102,0.2504883,3,-1,2,2,4,7,9,4,-10,-1,-7,-5,-20,-2,3,-4,4.0625,4.0625,4.0625,22.5625,22.5625,22.5625,8.171022,7.151949,8.727958,2.783282,7.033484,8.192391,-0.1222713,-0.4078987,1.523141,0.2322777,-0.4005865,1.451356,0.06778502,0.2273573,1.683786,-0.07629682,-0.4359128,1.541246,0.2537266,-0.3825448,1.431155,0.06401098,-0.1916498,1.675511,0.06664836,-0.4919012,1.659465,-0.1069268,-0.01507026,1.67945,-0.01022061,-0.4829262,1.62873,-0.1548434,-0.2279635,1.702651,0.2708009,-0.2281183,1.675977,NA,NA,Unknown,Closed,
-0.9785156,0.1699219,-0.1132813,-1.060547,-0.3198242,0.2973633,3,-1,2,2,4,7,9,4,0,-2,6,-7,6,4,8,4,4.0625,4.0625,4.0625,15.75,15.75,15.75,8.171022,7.151949,8.727958,3.191871,6.94751,8.600808,-0.1238942,-0.3582501,1.481973,0.2257372,-0.3457707,1.420471,0.06822325,0.227948,1.683966,-0.09263066,-0.4134177,1.510429,0.258315,-0.3252886,1.415096,0.06449788,-0.1908695,1.674487,0.06767702,-0.490447,1.656988,-0.1063474,-0.01420959,1.678955,-0.009217224,-0.481896,1.625981,-0.1573612,-0.2174648,1.695021,0.2761293,-0.2271987,1.667619,NA,NA,Unknown,Unknown,
-0.9785156,0.1699219,-0.1132813,-1.089844,-0.3037109,0.3520508,3,-1,2,2,4,7,9,4,13,18,32,54,42,19,7,10,4.0625,4.0625,4.0625,22.0625,22.0625,22.0625,8.171022,7.151949,8.727958,3.53512,6.814915,8.944898,-0.1264237,-0.2996607,1.443092,0.2172519,-0.2904291,1.385548,0.06863619,0.228603,1.684468,-0.08611677,-0.3171658,1.443059,0.2508286,-0.285448,1.37375,0.06480747,-0.1903281,1.674191,0.06812083,-0.4897975,1.656004,-0.1035934,-0.01301798,1.677894,-0.008770724,-0.4808077,1.624301,-0.1643757,-0.2146305,1.687052,0.2796692,-0.2277332,1.656037,NA,NA,Closed,Unknown,
-0.9785156,0.1699219,-0.1132813,-1.096191,-0.3203125,0.3691406,3,-1,2,2,4,7,9,4,1,0,-3,-15,6,4,0,0,4.0625,4.0625,4.0625,12.5,12.5,12.5,8.171022,7.151949,8.727958,3.785538,6.64052,9.208765,-0.1235551,-0.246031,1.413769,0.2113281,-0.2327052,1.362872,0.06890033,0.2291436,1.685272,-0.08401059,-0.2668095,1.404759,0.2404182,-0.2381892,1.322818,0.0657532,-0.1892666,1.674141,0.06865952,-0.4887141,1.655119,-0.102965,-0.0121991,1.677644,-0.008296284,-0.4797466,1.623265,-0.1760626,-0.2109582,1.674798,0.2848538,-0.2266401,1.641382,NA,NA,Closed,Unknown,
-0.9785156,0.1699219,-0.1132813,-0.9755859,-0.3491211,0.3803711,3,-1,2,2,4,7,9,4,-8,-18,-31,-55,-46,-28,-16,-12,4.0625,4.0625,4.0625,6,6,6,8.171022,7.151949,8.727958,3.931792,6.453525,9.377001,-0.1170263,-0.2022828,1.367681,0.2022966,-0.1810165,1.343339,0.0691215,0.2299792,1.686556,-0.08174845,-0.2181185,1.377375,0.2362037,-0.1849616,1.323909,0.06653114,-0.1885317,1.674389,0.06918237,-0.4880722,1.654822,-0.1005843,-0.0111533,1.676854,-0.007896396,-0.4793293,1.623071,-0.1885053,-0.2031294,1.637179,0.3366103,-0.1974434,1.600829,NA,NA,Unknown,Unknown,
-0.9785156,0.1699219,-0.1132813,-0.9755859,-0.3491211,0.3803711,3,-1,2,2,4,7,9,4,-8,-18,-31,-55,-46,-28,-16,-12,4.0625,4.0625,4.0625,6,6,6,8.171022,7.151949,8.727958,3.931792,6.453525,9.377001,-0.1088893,-0.1519904,1.360301,0.1936692,-0.1329159,1.333478,0.06912398,0.2305908,1.687437,-0.1003392,-0.1249722,1.350371,0.2227849,-0.1382501,1.30908,0.06718431,-0.1875391,1.674438,0.069675,-0.4870357,1.654133,-0.09990761,-0.01103617,1.676232,-0.007499338,-0.4786653,1.622402,-0.1930373,-0.2000536,1.632928,0.2935861,-0.2000109,1.559725,NA,NA,Unknown,Closed,
-0.9785156,0.1699219,-0.1132813,-0.8544922,-0.3935547,0.3642578,3,-1,2,2,4,7,9,4,-8,-6,-6,-19,-12,-9,-7,-6,4.0625,4.0625,4.0625,6.0625,6.0625,6.0625,8.171022,7.151949,8.727958,4.017577,6.279801,9.482597,-0.1040945,-0.1125146,1.352052,0.1895214,-0.09056757,1.33025,0.0691476,0.2311077,1.688309,-0.1196132,-0.09230655,1.34131,0.2211466,-0.09405651,1.307616,0.06806335,-0.1867426,1.674924,0.07017392,-0.4863852,1.653902,-0.09748592,-0.009804696,1.675169,-0.007088742,-0.4781854,1.622133,-0.1870373,-0.1952445,1.606406,0.286615,-0.1987683,1.552728,NA,NA,Unknown,Closed,
-0.9785156,0.1699219,-0.1132813,-0.8007813,-0.3583984,0.3598633,3,-1,2,2,4,7,9,4,-2,0,-7,-11,-9,-5,-2,-1,4.0625,4.0625,4.0625,8.875,8.875,8.875,8.171022,7.151949,8.727958,4.066713,6.141431,9.544496,-0.1016139,-0.08129848,1.348336,0.1875889,-0.06004409,1.329219,0.0692947,0.2316504,1.689604,-0.1333559,-0.07879242,1.33013,0.2143331,-0.0665921,1.300704,0.06849794,-0.1863458,1.675275,0.07029057,-0.486177,1.653778,-0.09503435,-0.007978354,1.674071,-0.006952472,-0.4779958,1.622013,-0.1783753,-0.1903534,1.587423,0.2844434,-0.1937528,1.542362,NA,NA,Unknown,Unknown,
-0.9785156,0.1699219,-0.1132813,-0.7104492,-0.3144531,0.3046875,3,-1,2,2,4,7,9,4,6,13,16,23,14,8,4,5,4.0625,4.0625,4.0625,-1.5,-1.5,-1.5,8.171022,7.151949,8.727958,4.088772,6.049456,9.581868,-0.09858483,-0.06332,1.341454,0.1836486,-0.03993479,1.327298,0.06890688,0.2322479,1.690993,-0.129503,-0.06276989,1.318318,0.2150211,-0.04463079,1.302241,0.0687427,-0.1861339,1.675404,0.07061558,-0.4858655,1.653352,-0.09329402,-0.006888489,1.673184,-0.006629775,-0.4776384,1.621559,-0.1756594,-0.1878759,1.581974,0.2838509,-0.187886,1.532374,NA,NA,Unknown,Unknown,
-0.9785156,0.1699219,-0.1132813,-0.609375,-0.3476563,0.3959961,3,-1,2,2,4,7,9,4,-3,-5,-5,-10,-5,-2,-3,-5,4.0625,4.0625,4.0625,-8.6875,-8.6875,-8.6875,8.171022,7.151949,8.727958,4.082108,5.993074,9.605203,-0.0949681,-0.05869852,1.331104,0.1783317,-0.02835536,1.320812,0.06871966,0.2325009,1.691771,-0.1238505,-0.05458172,1.309419,0.2071423,-0.02463639,1.299187,0.06897811,-0.1859207,1.675483,0.07071231,-0.4856672,1.652931,-0.08744776,-0.003747339,1.669442,-0.006552529,-0.4774629,1.621296,-0.1716932,-0.18191,1.57365,0.2843328,-0.1834556,1.525392,NA,NA,Unknown,Unknown,
-0.9785156,0.1699219,-0.1132813,-0.6181641,-0.3022461,0.3798828,3,-1,2,2,4,7,9,4,1,1,3,2,0,4,2,2,4.0625,4.0625,4.0625,-6.5,-6.5,-6.5,8.171022,7.151949,8.727958,4.078045,6.003849,9.606954,-0.0865013,-0.07403696,1.309747,0.1819889,-0.03986671,1.313101,0.06848373,0.2332327,1.69431,-0.1168962,-0.06635058,1.295586,0.2133702,-0.03925585,1.291688,0.06933457,-0.1853862,1.675705,0.07101603,-0.4851467,1.651967,-0.08727953,-0.003486784,1.669495,-0.006252398,-0.4768126,1.620236,-0.1633628,-0.1784431,1.559838,0.2843622,-0.1809705,1.52104,NA,NA,Unknown,Unknown,
-0.9785156,0.1699219,-0.1132813,-0.6464844,-0.2763672,0.5043945,3,-1,2,2,4,7,9,4,-7,-13,-17,-19,-23,-18,-9,-1,4.0625,4.0625,4.0625,-19.5,-19.5,-19.5,8.171022,7.151949,8.727958,4.066952,6.092494,9.615695,-0.08367897,-0.09436943,1.298419,0.1831066,-0.05833306,1.303864,0.06838575,0.2334066,1.694697,-0.1140733,-0.09087286,1.278839,0.2127027,-0.05814595,1.282065,0.06959336,-0.1849322,1.67568,0.07142619,-0.4846325,1.651311,-0.08705302,-0.003704356,1.669084,-0.005768897,-0.4762637,1.619524,-0.1600674,-0.179001,1.555192,0.2829339,-0.1769675,1.52232,NA,NA,Closed,Unknown,
-0.9785156,0.1699219,-0.1132813,-0.6289063,-0.3203125,0.5517578,3,-1,2,2,4,7,9,4,0,1,3,12,5,-3,-36,-2,4.0625,4.0625,4.0625,-29.3125,-29.3125,-29.3125,8.171022,7.151949,8.727958,4.050782,6.135616,9.614031,-0.06885202,-0.1191519,1.276466,0.1821346,-0.0856787,1.296973,0.06816527,0.2335008,1.695288,-0.09209686,-0.1172362,1.253,0.2121226,-0.08910197,1.275829,0.06991493,-0.184551,1.675629,0.07205248,-0.4838241,1.650363,-0.08709148,-0.003989779,1.668906,-0.005085296,-0.4754146,1.618608,-0.1604747,-0.1794817,1.555087,0.2820139,-0.1758438,1.523906,NA,NA,Closed,Unknown,
-0.9785156,0.1699219,-0.1132813,-0.7392578,-0.3481445,0.5151367,3,-1,2,2,4,7,9,4,-3,-6,-11,-9,-10,-8,-3,-3,4.0625,4.0625,4.0625,-20.6875,-20.6875,-20.6875,8.171022,7.151949,8.727958,4.026207,6.230174,9.616735,-0.08250654,-0.1822353,1.279346,0.18162,-0.1546229,1.284593,0.06772891,0.2337817,1.695864,-0.1101299,-0.1732603,1.263574,0.2137731,-0.1477796,1.264057,0.07023197,-0.1841471,1.675343,0.07220066,-0.4835307,1.648827,-0.08727795,-0.005725895,1.667985,-0.004883818,-0.4750545,1.617167,-0.1707518,-0.1745594,1.549039,0.3073554,-0.1753709,1.534689,NA,NA,Closed,Closed,
-0.9785156,0.1699219,-0.1132813,-0.8354492,-0.4008789,0.5981445,3,-1,2,2,4,7,9,4,-6,-12,-15,-17,-4,2,2,-4,4.0625,4.0625,4.0625,-11.0625,-11.0625,-11.0625,8.171022,7.151949,8.727958,4.01056,6.361396,9.630144,-0.08370581,-0.2158313,1.28332,0.1818485,-0.1925805,1.283221,0.06763642,0.2338093,1.696074,-0.1064449,-0.2006818,1.264325,0.2131547,-0.1832664,1.260088,0.07026257,-0.1840244,1.674983,0.07221597,-0.4837133,1.647445,-0.08798948,-0.008872641,1.664915,-0.004845719,-0.4750869,1.616092,-0.1728349,-0.1772236,1.551004,0.3131044,-0.1815474,1.543238,NA,NA,Closed,Closed,
-0.9785156,0.1699219,-0.1132813,-0.9033203,-0.3979492,0.6381836,3,-1,2,2,4,7,9,4,9,6,8,1,4,-1,-1,7,4.0625,4.0625,4.0625,-17.0625,-17.0625,-17.0625,8.171022,7.151949,8.727958,3.997902,6.435788,9.636497,-0.0835794,-0.249916,1.286615,0.1829596,-0.2311647,1.285531,0.06751174,0.2338578,1.696225,-0.09892036,-0.2282715,1.265957,0.2174126,-0.2199966,1.2568,0.07039449,-0.1840365,1.674551,0.07252824,-0.4842806,1.645897,-0.08952856,-0.01267215,1.662009,-0.004513646,-0.4754868,1.61445,-0.1725058,-0.1834025,1.550632,0.3117138,-0.1891561,1.548084,NA,NA,Closed,Unknown,
-0.9785156,0.1699219,-0.1132813,-0.9638672,-0.4536133,0.6147461,3,-1,2,2,4,7,9,4,-10,-4,14,34,3,3,9,-14,4.0625,4.0625,4.0625,-21.75,-21.75,-21.75,8.171022,7.151949,8.727958,3.985752,6.493332,9.645226,-0.08564769,-0.281049,1.294767,0.1847718,-0.2684655,1.292798,0.06752545,0.2338994,1.69627,-0.1142515,-0.2886561,1.267351,0.2195962,-0.2593859,1.26,0.07054557,-0.1840046,1.67371,0.07278942,-0.4846333,1.644004,-0.08984538,-0.01436352,1.660441,-0.004243346,-0.4758055,1.612702,-0.169166,-0.1929667,1.560872,0.3083352,-0.1944344,1.550823,NA,NA,Closed,Unknown,
-0.9785156,0.1699219,-0.1132813,-0.8613281,-0.4277344,0.5053711,3,-1,2,2,4,7,9,4,22,24,25,15,21,10,5,19,4.0625,4.0625,4.0625,-28.25,-28.25,-28.25,8.171022,7.151949,8.727958,3.948958,6.543922,9.639606,-0.0893421,-0.3065623,1.308513,0.1906063,-0.3033273,1.303152,0.06755003,0.2338948,1.696306,-0.1184018,-0.3201352,1.278969,0.2134129,-0.2862077,1.26731,0.07060013,-0.1842457,1.67282,0.07272309,-0.4854234,1.642341,-0.09089724,-0.01609706,1.659197,-0.004234615,-0.4764279,1.610954,-0.1678573,-0.1968596,1.562071,0.3039008,-0.2003436,1.552657,NA,NA,Closed,Unknown,
-0.9785156,0.1699219,-0.1132813,-0.9091797,-0.4736328,0.3144531,3,-1,2,2,4,7,9,4,-6,-13,-13,-6,-20,-14,-41,-6,4.0625,4.0625,4.0625,-23.4375,-23.4375,-23.4375,8.171022,7.151949,8.727958,3.8933,6.586175,9.60792,-0.09553068,-0.3362772,1.328096,0.2029852,-0.3513478,1.320156,0.0677611,0.233908,1.696276,-0.1233741,-0.3582114,1.300855,0.2387916,-0.3691327,1.298188,0.07047641,-0.1851616,1.670051,0.07160404,-0.4872164,1.638615,-0.09162685,-0.01760196,1.657745,-0.005194773,-0.4776298,1.607484,-0.1390705,-0.2155511,1.579926,0.2725388,-0.2177543,1.562212,NA,NA,Closed,Unknown,
-0.9785156,0.1699219,-0.1132813,-0.9575195,-0.4077148,0.3066406,3,-1,2,2,4,7,9,4,-2,1,4,3,6,5,12,-11,4.0625,4.0625,4.0625,-10.875,-10.875,-10.875,8.171022,7.151949,8.727958,3.84168,6.618574,9.571889,-0.09859262,-0.3484047,1.334697,0.2079663,-0.3675755,1.326051,0.06778191,0.2339341,1.696256,-0.1249673,-0.3821411,1.311,0.2397941,-0.3929994,1.310769,0.0701028,-0.1855802,1.668948,0.07125264,-0.4879285,1.637504,-0.09198669,-0.01822717,1.657356,-0.005539382,-0.4782034,1.60627,-0.1389555,-0.2165501,1.580384,0.2706049,-0.219226,1.563128,NA,NA,Closed,Unknown,
-0.9785156,0.1699219,-0.1132813,-0.9526367,-0.3847656,0.3862305,3,-1,2,2,4,7,9,4,-4,-6,-8,-5,-8,-4,-6,-5,4.0625,4.0625,4.0625,7.125,7.125,7.125,8.171022,7.151949,8.727958,3.822462,6.641921,9.547585,-0.1028792,-0.357453,1.33922,0.2125769,-0.3752109,1.327675,0.06789338,0.2339832,1.695816,-0.1336361,-0.3813152,1.318278,0.2475051,-0.3888719,1.3065,0.06996576,-0.1857558,1.667374,0.07086818,-0.4882089,1.63599,-0.09191004,-0.01777457,1.65791,-0.005920209,-0.4782939,1.604759,-0.138869,-0.2164574,1.582095,0.2759677,-0.2185539,1.56202,NA,NA,Closed,Closed,
-0.9785156,0.1699219,-0.1132813,-0.902832,-0.3618164,0.3500977,3,-1,2,2,4,7,9,4,2,1,3,0,0,-2,-8,4,4.0625,4.0625,4.0625,32.625,32.625,32.625,8.171022,7.151949,8.727958,3.828012,6.655637,9.521235,-0.1087193,-0.3667075,1.343868,0.2168307,-0.3811221,1.329544,0.06819943,0.2339779,1.695226,-0.1401269,-0.3965561,1.328059,0.2481371,-0.4093046,1.31325,0.06971333,-0.186174,1.666099,0.07056709,-0.4888818,1.63484,-0.09265331,-0.01872712,1.656802,-0.006320472,-0.4788248,1.6035,-0.1391182,-0.2182306,1.583387,0.2793916,-0.2187142,1.562067,NA,NA,Closed,Closed,
-0.9785156,0.1699219,-0.1132813,-0.9121094,-0.3554688,0.246582,3,-1,2,2,4,7,9,4,-8,-5,-3,-6,-4,2,61,-32,4.0625,4.0625,4.0625,52.25,52.25,52.25,8.171022,7.151949,8.727958,3.836077,6.675126,9.472379,-0.1133808,-0.3755379,1.349466,0.2208345,-0.3841897,1.330052,0.06863552,0.2339654,1.694412,-0.1445142,-0.4149692,1.3354,0.2569697,-0.4009354,1.3164,0.06978601,-0.1864226,1.665231,0.07040149,-0.4894225,1.634018,-0.09302828,-0.01903606,1.655966,-0.006567272,-0.4791912,1.602614,-0.1397768,-0.2191469,1.584945,0.2807611,-0.2193909,1.562348,NA,NA,Closed,Closed,
-0.9785156,0.1699219,-0.1132813,-0.9311523,-0.4082031,0.2089844,3,-1,2,2,4,7,9,4,-2,2,2,2,2,-3,-14,2,4.0625,4.0625,4.0625,68.8125,68.8125,68.8125,8.171022,7.151949,8.727958,3.822129,6.701221,9.382852,-0.1250542,-0.3970841,1.364274,0.2271711,-0.3908792,1.335328,0.06900775,0.2340632,1.693419,-0.1614705,-0.4478985,1.369,0.2584974,-0.408081,1.328737,0.0696617,-0.1867057,1.66449,0.0702096,-0.4900298,1.633499,-0.09394444,-0.02006358,1.6543,-0.006843006,-0.4796908,1.602064,-0.1425736,-0.2213778,1.589734,0.2880876,-0.2211891,1.5698,NA,NA,Closed,Closed,
-0.9785156,0.1699219,-0.1132813,-0.9189453,-0.2753906,0.1782227,3,-1,2,2,4,7,9,4,-2,-3,-1,-2,-2,-1,2,-1,4.0625,4.0625,4.0625,84.4375,84.4375,84.4375,8.171022,7.151949,8.727958,3.820445,6.747295,9.280544,-0.1305071,-0.4073596,1.373358,0.2312661,-0.3954318,1.341932,0.06925609,0.2339335,1.692495,-0.1689238,-0.4304599,1.368,0.2576703,-0.4259184,1.340467,0.06980751,-0.1870145,1.663824,0.07016903,-0.4904886,1.633203,-0.09403501,-0.02023278,1.653672,-0.006934973,-0.4800901,1.601763,-0.1444378,-0.2220721,1.593331,0.2927342,-0.2221622,1.576182,NA,NA,Closed,Closed,
-0.9785156,0.1699219,-0.1132813,-0.9448242,-0.1918945,0.2001953,3,-1,2,2,4,7,9,4,0,0,1,0,0,0,1,-1,4.0625,4.0625,4.0625,46.625,46.625,46.625,8.171022,7.151949,8.727958,3.767585,6.809384,9.150138,-0.135013,-0.4254567,1.384764,0.2378968,-0.4027083,1.351346,0.06947442,0.2338358,1.691432,-0.1697458,-0.4722458,1.391,0.2585035,-0.4335136,1.340715,0.06985115,-0.1872627,1.663455,0.07018854,-0.4909309,1.633122,-0.09432951,-0.02053882,1.65325,-0.006926539,-0.4805302,1.601624,-0.1464138,-0.222858,1.597352,0.2974166,-0.2228164,1.584786,NA,NA,Closed,Unknown,
-0.9785156,0.1699219,-0.1132813,-0.9848633,-0.2158203,0.2641602,3,-1,2,2,4,7,9,4,2,8,10,10,6,1,-14,-5,4.0625,4.0625,4.0625,-8.5625,-8.5625,-8.5625,8.171022,7.151949,8.727958,3.642774,6.871191,9.006679,-0.1417878,-0.4408106,1.400163,0.2453188,-0.4150132,1.36338,0.06956722,0.2337655,1.690411,-0.1779988,-0.4764896,1.405143,0.2074134,-0.4563788,1.3615,0.06977972,-0.1874927,1.662941,0.07021099,-0.4911713,1.633025,-0.09446174,-0.02072249,1.652952,-0.006915369,-0.4807566,1.601554,-0.1478988,-0.2242018,1.602967,0.2837602,-0.2288721,1.593186,NA,NA,Unknown,Unknown,
-0.9785156,0.1699219,-0.1132813,-1.004395,-0.3442383,0.3056641,3,-1,2,2,4,7,9,4,-2,-4,-6,-10,-4,0,6,-2,4.0625,4.0625,4.0625,-19.75,-19.75,-19.75,8.171022,7.151949,8.727958,3.371663,6.938492,8.757661,-0.1553876,-0.4739095,1.438364,0.2635516,-0.4494305,1.402968,0.06980176,0.2330422,1.688087,-0.1404799,-0.5093526,1.427333,0.290234,-0.4599988,1.389643,0.06982026,-0.1880551,1.661856,0.07050459,-0.4916308,1.632938,-0.09525882,-0.02137482,1.652411,-0.006595978,-0.4813507,1.601359,-0.1511217,-0.234024,1.614847,0.2798768,-0.2317843,1.605377,NA,NA,Closed,Unknown,
-0.9785156,0.1699219,-0.1132813,-1.005859,-0.2915039,0.1972656,3,-1,2,2,4,7,9,4,8,3,1,2,1,6,0,7,4.0625,4.0625,4.0625,1.6875,1.6875,1.6875,8.171022,7.151949,8.727958,3.191942,6.9793,8.570215,-0.16099,-0.4893787,1.461652,0.2744781,-0.463455,1.429018,0.06962352,0.2328397,1.686881,-0.1950656,-0.4832764,1.465913,0.3018281,-0.4646651,1.4185,0.06976792,-0.1881219,1.661429,0.07050955,-0.4916289,1.632939,-0.09504389,-0.02000464,1.654751,-0.006573937,-0.4813753,1.601342,-0.1534489,-0.2400647,1.622061,0.2790578,-0.232575,1.612614,NA,NA,Closed,Unknown,
-0.9785156,0.1699219,-0.1132813,-1.041504,-0.1987305,0.1391602,3,-1,2,2,4,7,9,4,-20,-14,-10,-4,-6,-9,-11,-20,4.0625,4.0625,4.0625,-1.1875,-1.1875,-1.1875,8.171022,7.151949,8.727958,3.010794,7.015166,8.375959,-0.1637896,-0.5034451,1.486441,0.2814349,-0.4802457,1.453419,0.06977717,0.2325153,1.685256,-0.1983689,-0.4904309,1.489471,0.3047781,-0.4911121,1.438056,0.0695482,-0.1881897,1.660769,0.0705244,-0.4917113,1.632902,-0.09625255,-0.0204165,1.654423,-0.00654167,-0.4815153,1.601238,-0.156067,-0.2482424,1.629126,0.2789411,-0.2358025,1.621043,NA,NA,Unknown,Unknown,
-0.9785156,0.1699219,-0.1132813,-1.030273,-0.1660156,0.1435547,3,-1,2,2,4,7,9,4,31,19,6,5,2,7,12,30,4.0625,4.0625,4.0625,-20.625,-20.625,-20.625,8.171022,7.151949,8.727958,2.837321,7.060215,8.210811,-0.1673638,-0.5100371,1.511158,0.2859165,-0.4968632,1.477813,0.06967249,0.232311,1.683348,-0.2004712,-0.5001304,1.512737,0.3107906,-0.5029835,1.461529,0.06934765,-0.1883373,1.659957,0.07061585,-0.4918445,1.632813,-0.09748835,-0.02138406,1.653553,-0.006423142,-0.4817173,1.601102,-0.1574853,-0.2501237,1.635171,0.279229,-0.2405836,1.629151,NA,NA,Unknown,Unknown,
-0.9785156,0.1699219,-0.1132813,-0.9472656,-0.2866211,0.07177734,3,-1,2,2,4,7,9,4,3,1,-2,1,-1,-3,-1,0,4.0625,4.0625,4.0625,-24.75,-24.75,-24.75,8.171022,7.151949,8.727958,2.644144,7.08992,8.039248,-0.1681903,-0.5219182,1.558526,0.2927804,-0.5198655,1.524627,0.06908217,0.2316404,1.679363,-0.1945127,-0.5233079,1.534462,0.3183569,-0.5253578,1.516833,0.0690681,-0.1884244,1.658254,0.07087839,-0.4920186,1.632483,-0.09982906,-0.02289909,1.652509,-0.006090759,-0.4821275,1.600506,-0.1588426,-0.2566735,1.650686,0.2788141,-0.2504385,1.64141,NA,NA,NotTracked,NotTracked,
-0.9785156,0.1699219,-0.1132813,-1.023926,-0.3320313,0.04541016,3,-1,2,2,4,7,9,4,-9,3,2,5,5,1,6,-13,4.0625,4.0625,4.0625,5.9375,5.9375,5.9375,8.171022,7.151949,8.727958,2.464904,7.099461,7.856041,-0.1683467,-0.5256895,1.579559,0.2961102,-0.5273037,1.546439,0.06856292,0.2315349,1.67777,-0.1941514,-0.5381026,1.553895,0.3252242,-0.5238918,1.542833,0.06893063,-0.1885916,1.657428,0.07096888,-0.4920968,1.632412,-0.1002424,-0.02299884,1.652237,-0.005973869,-0.4822733,1.600376,-0.1593337,-0.2602082,1.65768,0.2783434,-0.252605,1.645771,NA,NA,NotTracked,NotTracked,
-0.9785156,0.1699219,-0.1132813,-1.01416,-0.2739258,0.01513672,3,-1,2,2,4,7,9,4,13,0,-4,0,-4,-4,2,8,4.0625,4.0625,4.0625,17.875,17.875,17.875,8.171022,7.151949,8.727958,2.358431,7.113359,7.726535,-0.1665349,-0.5300046,1.597,0.2973979,-0.5324218,1.565269,0.06810088,0.2310779,1.675848,-0.1979911,-0.5149784,1.595909,0.3241559,-0.526495,1.554158,0.06872292,-0.1886863,1.656587,0.07099625,-0.4920968,1.632322,-0.1005364,-0.02291775,1.652118,-0.005940132,-0.4823515,1.600128,-0.1577369,-0.2625216,1.665702,0.2775561,-0.2556833,1.65073,NA,NA,NotTracked,NotTracked,
-0.9785156,0.1699219,-0.1132813,-1.025879,-0.2392578,-0.02050781,3,-1,2,2,4,7,9,4,34,14,4,0,-2,0,5,28,4.0625,4.0625,4.0625,20.8125,20.8125,20.8125,8.171022,7.151949,8.727958,2.262954,7.129758,7.604495,-0.1624079,-0.5371233,1.612206,0.2968559,-0.5352938,1.581538,0.06757158,0.2307205,1.67426,-0.1940201,-0.5204728,1.605684,0.3224246,-0.5284496,1.565583,0.06853468,-0.1886905,1.656013,0.07099523,-0.4921069,1.632316,-0.1009012,-0.02265145,1.652081,-0.005947035,-0.4823797,1.600088,-0.1563047,-0.2648571,1.670994,0.2767932,-0.2582254,1.654501,NA,NA,NotTracked,NotTracked,
-0.9785156,0.1699219,-0.1132813,-0.9902344,-0.2426758,-0.03759766,3,-1,2,2,4,7,9,4,-3,2,0,-4,-4,-5,-4,-11,4.0625,4.0625,4.0625,7.375,7.375,7.375,8.171022,7.151949,8.727958,2.158248,7.147198,7.483063,-0.1593426,-0.5390013,1.624946,0.2964926,-0.5383593,1.591433,0.06712117,0.2301169,1.671772,-0.1517535,-0.571692,1.6416,0.3084017,-0.5307224,1.561478,0.06820205,-0.1889415,1.655341,0.07093091,-0.4922282,1.632372,-0.1012469,-0.02277304,1.65205,-0.006006976,-0.4824876,1.600146,-0.154433,-0.2684969,1.675996,0.275416,-0.260786,1.657583,NA,NA,NotTracked,NotTracked,
-0.9785156,0.1699219,-0.1132813,-1.005859,-0.2524414,-0.06054688,3,-1,2,2,4,7,9,4,-13,-2,2,-2,-4,-5,-9,-6,4.0625,4.0625,4.0625,1.4375,1.4375,1.4375,8.171022,7.151949,8.727958,2.060279,7.159143,7.379532,-0.1537341,-0.5430689,1.645886,0.2942696,-0.5447742,1.609546,0.06652556,0.2296499,1.669083,-0.1837361,-0.5223798,1.638235,0.3088651,-0.5484908,1.580379,0.06770902,-0.1892228,1.654964,0.07058714,-0.4925209,1.633053,-0.1000307,-0.02079052,1.65531,-0.006299945,-0.4827431,1.600923,-0.1485964,-0.2708963,1.684611,0.2732692,-0.2642718,1.663947,NA,NA,NotTracked,NotTracked,
-0.9785156,0.1699219,-0.1132813,-0.9663086,-0.2412109,-0.06494141,3,-1,2,2,4,7,9,4,-2,-1,-1,-3,-2,2,7,2,4.0625,4.0625,4.0625,0.875,0.875,0.875,8.171022,7.151949,8.727958,1.986004,7.171378,7.303064,-0.1503517,-0.5433347,1.650642,0.2921866,-0.5453028,1.612795,0.06578621,0.2295783,1.667444,-0.1807663,-0.5296447,1.641166,0.3185826,-0.5309016,1.605833,0.06754345,-0.1893319,1.654945,0.07042274,-0.4928072,1.634205,-0.1003862,-0.02097986,1.65516,-0.006352364,-0.4830891,1.602666,-0.1456669,-0.2733297,1.688178,0.2722978,-0.2643659,1.665201,NA,NA,NotTracked,NotTracked,
-0.9785156,0.1699219,-0.1132813,-0.9633789,-0.2270508,-0.08740234,3,-1,2,2,4,7,9,4,48,18,6,3,3,8,10,63,4.0625,4.0625,4.0625,-4.9375,-4.9375,-4.9375,8.171022,7.151949,8.727958,1.943261,7.1763,7.261491,-0.1479779,-0.5452638,1.653836,0.2905387,-0.5449003,1.616723,0.06476373,0.2293297,1.666054,-0.1795241,-0.524341,1.645001,0.3190578,-0.5294901,1.61925,0.06736284,-0.1895038,1.654946,0.07023243,-0.4930774,1.635498,-0.09960893,-0.0198707,1.657041,-0.00640323,-0.4831915,1.603819,-0.1437022,-0.2744786,1.690287,0.2715873,-0.2642452,1.666072,NA,NA,NotTracked,NotTracked,
-0.9785156,0.1699219,-0.1132813,-0.9912109,-0.2211914,-0.09179688,3,-1,2,2,4,7,9,4,2,4,2,-1,0,6,9,6,4.0625,4.0625,4.0625,-11.5,-11.5,-11.5,8.171022,7.151949,8.727958,1.916519,7.17951,7.247364,-0.1453404,-0.5459408,1.656528,0.2871373,-0.5458505,1.61782,0.06406318,0.2291363,1.665007,-0.1739527,-0.5153151,1.6572,0.2999489,-0.5445458,1.589629,0.06698825,-0.1896257,1.655027,0.06960755,-0.4931443,1.63673,-0.09902153,-0.01917942,1.658227,-0.006971919,-0.4831609,1.605159,-0.1428911,-0.274235,1.691335,0.2708584,-0.265016,1.667312,NA,NA,NotTracked,NotTracked,
-0.9785156,0.1699219,-0.1132813,-0.9946289,-0.222168,-0.09082031,3,-1,2,2,4,7,9,4,13,11,6,3,-1,-3,-18,9,4.0625,4.0625,4.0625,-5.625,-5.625,-5.625,8.171022,7.151949,8.727958,1.914751,7.179076,7.253545,-0.1427777,-0.5446227,1.657119,0.2852207,-0.5443684,1.619963,0.06306643,0.2282346,1.663083,-0.1712671,-0.5348715,1.652643,0.3123076,-0.5271222,1.619929,0.06628053,-0.1899991,1.65535,0.06883164,-0.493269,1.639123,-0.1000846,-0.01977011,1.65802,-0.007637935,-0.4831783,1.60816,-0.1411172,-0.273693,1.692696,0.2700195,-0.265044,1.668494,NA,NA,NotTracked,NotTracked,
-0.9785156,0.1699219,-0.1132813,-0.9887695,-0.2109375,-0.1123047,3,-1,2,2,4,7,9,4,-12,-18,-10,-7,-6,-5,-3,-4,4.0625,4.0625,4.0625,-7.6875,-7.6875,-7.6875,8.171022,7.151949,8.727958,1.912761,7.178236,7.264208,-0.1442086,-0.5447823,1.657367,0.2843233,-0.5450943,1.619711,0.06261128,0.2277447,1.662288,-0.17752,-0.5246735,1.665625,0.2990917,-0.5414259,1.591919,0.06597008,-0.1903722,1.655525,0.0685734,-0.4936919,1.640026,-0.100731,-0.01995423,1.65797,-0.007831724,-0.483584,1.608978,-0.1404802,-0.2735472,1.693065,0.2695863,-0.2649575,1.669016,NA,NA,NotTracked,NotTracked,
-0.9785156,0.1699219,-0.1132813,-0.9838867,-0.1806641,-0.1171875,3,-1,2,2,4,7,9,4,-2,-18,-10,-2,1,-5,-23,18,4.0625,4.0625,4.0625,-8.75,-8.75,-8.75,8.171022,7.151949,8.727958,1.914949,7.178187,7.275869,-0.1457497,-0.5457382,1.65244,0.2858276,-0.5448689,1.618899,0.06206325,0.2274907,1.66139,-0.175185,-0.5196167,1.648821,0.2992863,-0.5428643,1.590605,0.06556696,-0.1906799,1.655813,0.0684586,-0.4938307,1.640748,-0.1003854,-0.01897033,1.659624,-0.007881355,-0.4837032,1.609846,-0.1398089,-0.2737137,1.693635,0.2686152,-0.2652148,1.669912,NA,NA,NotTracked,NotTracked,
-0.9785156,0.1699219,-0.1132813,-0.9926758,-0.2021484,-0.1049805,3,-1,2,2,4,7,9,4,7,9,7,5,2,-9,-31,-1,4.0625,4.0625,4.0625,-9.0625,-9.0625,-9.0625,8.171022,7.151949,8.727958,1.914523,7.176623,7.287282,-0.1462393,-0.5468039,1.648315,0.2853507,-0.5447353,1.617758,0.0618349,0.227146,1.660901,-0.1768523,-0.5321438,1.63875,0.3010243,-0.5417358,1.588176,0.06531919,-0.1909977,1.655944,0.06834403,-0.4940865,1.641143,-0.1011143,-0.01939168,1.659486,-0.00799544,-0.4839607,1.610322,-0.139704,-0.2738302,1.693699,0.2683716,-0.26534,1.670078,NA,NA,NotTracked,NotTracked,
-0.9785156,0.1699219,-0.1132813,-0.9882813,-0.2006836,-0.1064453,3,-1,2,2,4,7,9,4,-24,-10,-3,3,-3,-9,-25,-44,4.0625,4.0625,4.0625,3.25,3.25,3.25,8.171022,7.151949,8.727958,1.925436,7.175998,7.299037,-0.1474755,-0.546969,1.647766,0.2854891,-0.5455158,1.61887,0.06168737,0.2270289,1.660774,-0.1775859,-0.5261811,1.647746,0.2993869,-0.5422156,1.590372,0.06503645,-0.1911975,1.656149,0.06802365,-0.494244,1.641666,-0.1006404,-0.01866074,1.660658,-0.008271169,-0.4840292,1.610736,-0.1396248,-0.2740459,1.693943,0.2679968,-0.2652829,1.670485,NA,NA,NotTracked,NotTracked,
-0.9785156,0.1699219,-0.1132813,-1.001953,-0.1811523,-0.1206055,3,-1,2,2,4,7,9,4,8,9,2,-2,-3,-1,12,-16,4.0625,4.0625,4.0625,4.75,4.75,4.75,8.171022,7.151949,8.727958,1.932438,7.176485,7.301239,-0.1468681,-0.5466647,1.64543,0.2850913,-0.5442623,1.617767,0.06162938,0.2268322,1.660689,-0.16424,-0.5423815,1.656455,0.3026128,-0.5443059,1.589855,0.06502161,-0.1913688,1.656297,0.06824147,-0.4943574,1.641958,-0.101639,-0.01893679,1.660637,-0.008031773,-0.4841793,1.61104,-0.1394746,-0.2744349,1.694216,0.2674882,-0.265314,1.671024,NA,NA,NotTracked,NotTracked,
-0.9785156,0.1699219,-0.1132813,-0.9985352,-0.1875,-0.1088867,3,-1,2,2,4,7,9,4,-22,-27,-10,0,2,3,-2,-22,4.0625,4.0625,4.0625,-3,-3,-3,8.171022,7.151949,8.727958,1.924579,7.177116,7.293977,-0.1480599,-0.5468291,1.643938,0.2836202,-0.5449886,1.619266,0.06150597,0.2266519,1.660782,-0.1808424,-0.5296568,1.638176,0.3014155,-0.5427316,1.590143,0.06492575,-0.1919098,1.656949,0.06876595,-0.4948487,1.643213,-0.1035224,-0.02006127,1.660723,-0.007526699,-0.4847268,1.612154,-0.1395133,-0.274873,1.694479,0.2667823,-0.2650423,1.672064,NA,NA,NotTracked,NotTracked,
-0.9785156,0.1699219,-0.1132813,-0.9975586,-0.2094727,-0.1088867,3,-1,2,2,4,7,9,4,-5,-14,-9,-5,-1,1,8,-3,4.0625,4.0625,4.0625,-3.8125,-3.8125,-3.8125,8.171022,7.151949,8.727958,1.904298,7.176932,7.278757,-0.148448,-0.5454122,1.643143,0.282836,-0.5445497,1.621248,0.06146911,0.2266427,1.660876,-0.1822293,-0.5315018,1.63725,0.2984743,-0.5447885,1.5922,0.06485102,-0.1920104,1.657261,0.06882065,-0.4949569,1.64386,-0.103841,-0.02021343,1.660705,-0.007458622,-0.4848803,1.612754,-0.1395528,-0.2752191,1.694582,0.2663535,-0.2648273,1.672659,NA,NA,NotTracked,NotTracked,
-0.9785156,0.1699219,-0.1132813,-0.980957,-0.1967773,-0.1166992,3,-1,2,2,4,7,9,4,-3,0,-1,1,-2,4,0,-7,4.0625,4.0625,4.0625,-1.75,-1.75,-1.75,8.171022,7.151949,8.727958,1.876617,7.176828,7.252792,-0.1472229,-0.5457051,1.644061,0.2821082,-0.5448507,1.622719,0.06145651,0.2266599,1.661117,-0.1792759,-0.5262743,1.639813,0.3005024,-0.5403303,1.595504,0.06488656,-0.1920253,1.657857,0.06949141,-0.4948201,1.644973,-0.1039848,-0.02014522,1.660694,-0.00686631,-0.4849099,1.613572,-0.1396582,-0.2755228,1.694673,0.2659996,-0.2645807,1.673513,NA,NA,NotTracked,NotTracked,
-0.9785156,0.1699219,-0.1132813,-0.9995117,-0.1904297,-0.09423828,3,-1,2,2,4,7,9,4,40,23,12,11,7,12,18,21,4.0625,4.0625,4.0625,-0.8125,-0.8125,-0.8125,8.171022,7.151949,8.727958,1.841935,7.176618,7.220057,-0.1467419,-0.5457246,1.643208,0.2816452,-0.5454829,1.624651,0.06149764,0.2265953,1.661476,-0.1891562,-0.5597012,1.6495,0.2982977,-0.5412938,1.596041,0.06472189,-0.1922649,1.658475,0.06956112,-0.4952267,1.646225,-0.1042554,-0.02039624,1.660678,-0.006780697,-0.4853354,1.614599,-0.1396551,-0.2756526,1.694793,0.2653943,-0.2646529,1.674702,NA,NA,NotTracked,NotTracked,
-0.9785156,0.1699219,-0.1132813,-0.9931641,-0.1850586,-0.1088867,3,-1,2,2,4,7,9,4,-9,-4,-2,0,0,-1,3,-6,4.0625,4.0625,4.0625,-3.6875,-3.6875,-3.6875,8.171022,7.151949,8.727958,1.828012,7.178063,7.210172,-0.1472574,-0.5431351,1.643466,0.2782069,-0.5441903,1.625728,0.06188898,0.2266069,1.662985,-0.1838321,-0.5305655,1.641545,0.2972017,-0.5532676,1.593667,0.06473564,-0.1922244,1.659468,0.06975183,-0.4951212,1.647953,-0.1031891,-0.01918389,1.661753,-0.006606718,-0.4852501,1.616252,-0.1398265,-0.275571,1.694695,0.2646479,-0.2638843,1.675962,NA,NA,NotTracked,NotTracked,
-0.9785156,0.1699219,-0.1132813,-1.008789,-0.1933594,-0.1196289,3,-1,2,2,4,7,9,4,-1,-1,0,-2,-1,6,25,7,4.0625,4.0625,4.0625,-2.9375,-2.9375,-2.9375,8.171022,7.151949,8.727958,1.811486,7.177307,7.196971,-0.147393,-0.5435022,1.642616,0.2771261,-0.5458841,1.627811,0.06191946,0.2267029,1.663546,-0.1813066,-0.5362504,1.633632,0.2930395,-0.548679,1.598632,0.06461991,-0.1922821,1.660124,0.06976251,-0.495117,1.648866,-0.1034001,-0.01916765,1.661671,-0.006593504,-0.4853644,1.617063,-0.1398383,-0.2755635,1.694674,0.2643656,-0.2631897,1.676846,NA,NA,NotTracked,NotTracked,
-0.9785156,0.1699219,-0.1132813,-0.9848633,-0.1826172,-0.1240234,3,-1,2,2,4,7,9,4,-5,-2,-1,4,0,5,29,-12,4.0625,4.0625,4.0625,-5,-5,-5,8.171022,7.151949,8.727958,1.792274,7.177878,7.182268,-0.1461209,-0.5429842,1.642928,0.2769841,-0.5446259,1.62826,0.06198891,0.2268423,1.66472,-0.1818911,-0.5301865,1.635823,0.2935494,-0.5465235,1.598879,0.0645012,-0.1923804,1.661041,0.06955972,-0.4952137,1.650254,-0.1036324,-0.01925797,1.661658,-0.006788503,-0.48548,1.61832,-0.1398677,-0.2756053,1.694767,0.2640842,-0.2624777,1.677756,NA,NA,NotTracked,NotTracked,
-0.9785156,0.1699219,-0.1132813,-0.9902344,-0.184082,-0.112793,3,-1,2,2,4,7,9,4,13,7,2,-3,-1,0,-5,12,4.0625,4.0625,4.0625,-4.5625,-4.5625,-4.5625,8.171022,7.151949,8.727958,1.785257,7.177985,7.178121,-0.1472824,-0.5432726,1.643461,0.2756781,-0.545211,1.63024,0.06206815,0.2268911,1.665559,-0.182531,-0.5311955,1.634727,0.2891873,-0.5584096,1.598182,0.06455959,-0.1923854,1.662194,0.06971271,-0.4952837,1.65206,-0.1038086,-0.01918772,1.661707,-0.006627325,-0.4856173,1.619892,-0.1400161,-0.2754478,1.69483,0.2638852,-0.2622612,1.678523,NA,NA,NotTracked,NotTracked,
-0.9785156,0.1699219,-0.1132813,-0.9907227,-0.1821289,-0.1069336,3,-1,2,2,4,7,9,4,12,5,2,1,-1,-2,-7,11,4.0625,4.0625,4.0625,-6.625,-6.625,-6.625,8.171022,7.151949,8.727958,1.772697,7.178281,7.172602,-0.1479857,-0.542963,1.642488,0.275813,-0.5449296,1.630146,0.06204949,0.2270202,1.666437,-0.1826968,-0.525905,1.637579,0.3054176,-0.5284476,1.628947,0.06437618,-0.1924504,1.663028,0.06980661,-0.4953049,1.653211,-0.1040043,-0.01916419,1.661755,-0.006511007,-0.485699,1.621328,-0.1401079,-0.2752777,1.694886,0.2636609,-0.2616376,1.679255,NA,NA,NotTracked,NotTracked,
-0.9785156,0.1699219,-0.1132813,-0.9916992,-0.171875,-0.09814453,3,-1,2,2,4,7,9,4,9,6,2,-2,-2,-11,-30,22,4.0625,4.0625,4.0625,-7.625,-7.625,-7.625,8.171022,7.151949,8.727958,1.769698,7.178535,7.181139,-0.1466255,-0.5441594,1.643794,0.2735473,-0.5455345,1.632214,0.06164474,0.2273589,1.668519,-0.1824636,-0.534985,1.63241,0.3054928,-0.5341863,1.631133,0.06401885,-0.1924942,1.664969,0.06935208,-0.4953809,1.655589,-0.1045381,-0.01921715,1.662386,-0.00693652,-0.4857176,1.624018,-0.1403604,-0.275399,1.695369,0.2631801,-0.2613427,1.680799,NA,NA,NotTracked,NotTracked,
-0.9785156,0.1699219,-0.1132813,-0.9926758,-0.1806641,-0.1132813,3,-1,2,2,4,7,9,4,-5,-7,-4,-1,-4,-3,7,-13,4.0625,4.0625,4.0625,-6.125,-6.125,-6.125,8.171022,7.151949,8.727958,1.775605,7.179176,7.195945,-0.1457412,-0.5436602,1.646095,0.2733061,-0.5451277,1.634301,0.06151563,0.2274099,1.669664,-0.1820465,-0.5385655,1.633524,0.3091108,-0.5317016,1.644,0.06382983,-0.1922425,1.666442,0.06906281,-0.4953784,1.657581,-0.1047821,-0.01937363,1.662938,-0.007191862,-0.4857301,1.625966,-0.1405681,-0.2754898,1.695955,0.2629941,-0.2614892,1.682048,NA,NA,NotTracked,NotTracked,
-0.9785156,0.1699219,-0.1132813,-0.996582,-0.1850586,-0.1210938,3,-1,2,2,4,7,9,4,0,0,0,0,0,-1,2,5,4.0625,4.0625,4.0625,-1.6875,-1.6875,-1.6875,8.171022,7.151949,8.727958,1.787658,7.178547,7.21145,-0.1447947,-0.5431392,1.645673,0.2736044,-0.5456774,1.634397,0.06113534,0.227422,1.67144,-0.1788522,-0.5254316,1.635,0.3055215,-0.5352553,1.631449,0.06367441,-0.1921716,1.668148,0.06909815,-0.4952832,1.65935,-0.1053878,-0.01939989,1.664138,-0.007154997,-0.4857626,1.62788,-0.1407452,-0.2754574,1.69661,0.2627905,-0.2609578,1.683302,NA,NA,NotTracked,NotTracked,
-0.9785156,0.1699219,-0.1132813,-0.9907227,-0.1865234,-0.1152344,3,-1,2,2,4,7,9,4,-19,-11,-8,-8,-6,4,21,-6,4.0625,4.0625,4.0625,-1.9375,-1.9375,-1.9375,8.171022,7.151949,8.727958,1.801124,7.177094,7.226643,-0.1445405,-0.5430647,1.646438,0.2730825,-0.5456849,1.635123,0.06056276,0.2276031,1.672692,-0.183296,-0.5275308,1.646625,0.2902708,-0.54448,1.603,0.06379904,-0.1923901,1.669168,0.06918735,-0.4955818,1.660566,-0.1060131,-0.01978127,1.665594,-0.007040769,-0.4861132,1.629022,-0.1409846,-0.2756858,1.697178,0.2628681,-0.261681,1.684531,NA,NA,NotTracked,NotTracked,
-0.9785156,0.1699219,-0.1132813,-0.9902344,-0.1958008,-0.1088867,3,-1,2,2,4,7,9,4,3,1,0,4,0,-2,4,-4,4.0625,4.0625,4.0625,1.4375,1.4375,1.4375,8.171022,7.151949,8.727958,1.818497,7.175534,7.244452,-0.1430426,-0.5426433,1.649134,0.2728588,-0.5444974,1.635551,0.06008857,0.2278521,1.675746,-0.1795151,-0.5293157,1.643943,0.3057402,-0.534581,1.6348,0.06327801,-0.1925487,1.671667,0.06895545,-0.4956855,1.662733,-0.1069436,-0.01988973,1.667762,-0.007214546,-0.4863049,1.630955,-0.1409304,-0.275044,1.698932,0.2625794,-0.2625712,1.686862,NA,NA,NotTracked,NotTracked,
-0.9785156,0.1699219,-0.1132813,-0.9916992,-0.1816406,-0.09130859,3,-1,2,2,4,7,9,4,1,-1,-1,0,1,-4,-7,2,4.0625,4.0625,4.0625,2.625,2.625,2.625,8.171022,7.151949,8.727958,1.840799,7.176158,7.265013,-0.1433106,-0.542859,1.649075,0.2731636,-0.5440924,1.635883,0.05972615,0.2277999,1.676823,-0.1799942,-0.5216737,1.651556,0.2873133,-0.537789,1.604588,0.0630748,-0.1925072,1.672566,0.06888251,-0.4956226,1.663174,-0.1072935,-0.02013497,1.668668,-0.007280696,-0.4862522,1.631387,-0.1410208,-0.2753411,1.699839,0.2625014,-0.2626614,1.687757,NA,NA,NotTracked,NotTracked,
-0.9785156,0.1699219,-0.1132813,-0.9960938,-0.1904297,-0.08984375,3,-1,2,2,4,7,9,4,-4,-3,-1,1,1,0,4,0,4.0625,4.0625,4.0625,-0.5,-0.5,-0.5,8.171022,7.151949,8.727958,1.861348,7.17493,7.285369,-0.1429789,-0.5433908,1.650027,0.2727487,-0.5440564,1.636015,0.05937135,0.2279537,1.678162,-0.1798347,-0.5308918,1.644113,0.3052751,-0.5345076,1.6335,0.06301648,-0.1923715,1.673552,0.06876126,-0.4955539,1.663848,-0.1076239,-0.02026562,1.669569,-0.007371393,-0.4861528,1.632044,-0.1410635,-0.2755589,1.700741,0.2623229,-0.2626122,1.688445,NA,NA,NotTracked,NotTracked,
-0.9785156,0.1699219,-0.1132813,-0.9887695,-0.1865234,-0.09619141,3,-1,2,2,4,7,9,4,4,-11,-7,-6,-4,-7,-15,8,4.0625,4.0625,4.0625,-0.4375,-0.4375,-0.4375,8.171022,7.151949,8.727958,1.866308,7.175301,7.291538,-0.1422862,-0.5433339,1.650282,0.2727587,-0.544573,1.635979,0.05919215,0.2278051,1.67885,-0.1807612,-0.527805,1.647018,0.3071893,-0.5392091,1.633889,0.06265904,-0.1923057,1.674507,0.0685141,-0.4954722,1.664496,-0.1078931,-0.02019816,1.670242,-0.007612502,-0.4860704,1.632693,-0.1410991,-0.2760053,1.701498,0.2620966,-0.2626541,1.689002,NA,NA,NotTracked,NotTracked,
-0.9785156,0.1699219,-0.1132813,-0.9887695,-0.1865234,-0.09619141,3,-1,2,2,4,7,9,4,4,-11,-7,-6,-4,-7,-15,8,4.0625,4.0625,4.0625,-0.4375,-0.4375,-0.4375,8.171022,7.151949,8.727958,1.866308,7.175301,7.291538,-0.1424042,-0.5443318,1.651233,0.2724349,-0.5438696,1.636611,0.0591082,0.2278658,1.680124,-0.179498,-0.5296607,1.64303,0.3053736,-0.546937,1.632111,0.0626162,-0.1922474,1.675421,0.06847856,-0.4954253,1.664981,-0.108099,-0.02008633,1.671211,-0.007647555,-0.4860441,1.633273,-0.1411233,-0.2761532,1.70201,0.2619937,-0.2633437,1.690264,NA,NA,NotTracked,NotTracked,
-0.9785156,0.1699219,-0.1132813,-1.000488,-0.1948242,-0.09228516,3,-1,2,2,4,7,9,4,10,7,4,2,2,5,12,8,4.0625,4.0625,4.0625,0.8125,0.8125,0.8125,8.171022,7.151949,8.727958,1.881778,7.176063,7.306995,-0.143231,-0.5433777,1.651204,0.2764936,-0.5324827,1.640445,0.05891385,0.2277691,1.681175,-0.180067,-0.5292729,1.644079,0.2980927,-0.5360455,1.61776,0.06237795,-0.1922395,1.676021,0.06831104,-0.4953316,1.66539,-0.108425,-0.02008117,1.672202,-0.007838412,-0.4859358,1.633748,-0.1413943,-0.2769034,1.703572,0.261765,-0.2631665,1.691077,NA,NA,NotTracked,NotTracked,
-0.9785156,0.1699219,-0.1132813,-0.9897461,-0.1943359,-0.109375,3,-1,2,2,4,7,9,4,6,6,2,1,0,-3,-11,8,4.0625,4.0625,4.0625,-1.1875,-1.1875,-1.1875,8.171022,7.151949,8.727958,1.882378,7.17739,7.308917,-0.1428777,-0.5445361,1.652476,0.2735614,-0.5394552,1.638944,0.05887514,0.2279785,1.682205,-0.1822387,-0.5257812,1.6634,0.3046011,-0.5436194,1.631552,0.06220667,-0.1921121,1.676821,0.06818555,-0.4952931,1.665909,-0.1088244,-0.01997263,1.673488,-0.007936902,-0.4858838,1.634313,-0.1415047,-0.2769951,1.704263,0.2615602,-0.2633187,1.6917,NA,NA,NotTracked,NotTracked,
-0.9785156,0.1699219,-0.1132813,-0.9892578,-0.1918945,-0.09326172,3,-1,2,2,4,7,9,4,-23,-11,-6,-5,-7,-12,-25,-24,4.0625,4.0625,4.0625,-1.4375,-1.4375,-1.4375,8.171022,7.151949,8.727958,1.889333,7.179257,7.317989,-0.1428883,-0.5436549,1.652286,0.2732687,-0.5405441,1.638472,0.05874489,0.2281147,1.682853,-0.179992,-0.5138562,1.660444,0.3019466,-0.5397859,1.626504,0.06190524,-0.1920005,1.677508,0.06798931,-0.495228,1.666415,-0.1090533,-0.02012164,1.674156,-0.00812639,-0.485813,1.634776,-0.1416644,-0.2773736,1.70472,0.2613433,-0.2632052,1.692202,NA,NA,NotTracked,NotTracked,
-0.9785156,0.1699219,-0.1132813,-0.9833984,-0.1894531,-0.09619141,3,-1,2,2,4,7,9,4,15,6,-2,-3,-4,-2,-1,8,4.0625,4.0625,4.0625,-0.0625,-0.0625,-0.0625,8.171022,7.151949,8.727958,1.90066,7.181754,7.329566,-0.1433398,-0.5435047,1.65251,0.2703627,-0.5409909,1.637807,0.05870773,0.2280781,1.684341,-0.1806983,-0.5247151,1.651987,0.3013302,-0.5372517,1.63017,0.06154318,-0.191932,1.678698,0.06729184,-0.4951289,1.667547,-0.1092625,-0.02011447,1.675221,-0.008808734,-0.4856099,1.635849,-0.141778,-0.2776598,1.705441,0.2609641,-0.2627346,1.69289,NA,NA,NotTracked,NotTracked,
-0.9785156,0.1699219,-0.1132813,-0.9921875,-0.1845703,-0.09521484,3,-1,2,2,4,7,9,4,-5,-6,-2,-1,-2,-5,-10,1,4.0625,4.0625,4.0625,-1.3125,-1.3125,-1.3125,8.171022,7.151949,8.727958,1.912948,7.183871,7.343217,-0.1432681,-0.5439585,1.650983,0.2699033,-0.5416684,1.636981,0.05867827,0.2280865,1.684827,-0.1770567,-0.5279341,1.654485,0.3020155,-0.5371091,1.636181,0.06140031,-0.1919129,1.679257,0.06720515,-0.4951232,1.667916,-0.1094331,-0.02026725,1.675924,-0.008921453,-0.4856212,1.63629,-0.1418343,-0.2778156,1.70595,0.2608654,-0.2624916,1.693102,NA,NA,NotTracked,NotTracked,
-0.9785156,0.1699219,-0.1132813,-1,-0.1879883,-0.09570313,3,-1,2,2,4,7,9,4,-21,-7,-4,-3,-3,-4,-8,-21,4.0625,4.0625,4.0625,-1.9375,-1.9375,-1.9375,8.171022,7.151949,8.727958,1.922889,7.185086,7.356021,-0.1435292,-0.5437018,1.651979,0.2687804,-0.5406051,1.635749,0.05877452,0.22818,1.685535,-0.1802049,-0.5253004,1.653122,0.3019153,-0.5378754,1.632688,0.06133325,-0.1918662,1.67942,0.06715813,-0.495088,1.668005,-0.109457,-0.02025971,1.676263,-0.009000103,-0.4855813,1.636455,-0.1417731,-0.2776497,1.706122,0.2607075,-0.2624583,1.693262,NA,NA,NotTracked,NotTracked,
-0.9785156,0.1699219,-0.1132813,-0.9921875,-0.1914063,-0.1020508,3,-1,2,2,4,7,9,4,12,10,5,-1,-1,0,3,13,4.0625,4.0625,4.0625,-0.3125,-0.3125,-0.3125,8.171022,7.151949,8.727958,1.933562,7.185736,7.367813,-0.1434676,-0.5435665,1.652383,0.2682664,-0.5409157,1.636671,0.05877877,0.2282961,1.686189,-0.1806458,-0.5258043,1.653174,0.3012174,-0.5391739,1.63258,0.06122169,-0.1918346,1.679942,0.06700172,-0.4950753,1.668343,-0.1095127,-0.0202092,1.67672,-0.009120187,-0.48553,1.636737,-0.1418475,-0.2774717,1.706385,0.2605708,-0.2626004,1.693519,NA,NA,NotTracked,NotTracked,
-0.9785156,0.1699219,-0.1132813,-0.9916992,-0.1860352,-0.09863281,3,-1,2,2,4,7,9,4,9,-3,-1,-1,1,-3,-14,9,4.0625,4.0625,4.0625,-0.1875,-0.1875,-0.1875,8.171022,7.151949,8.727958,1.939883,7.186265,7.375128,-0.1432306,-0.542742,1.651394,0.2681249,-0.5410555,1.635247,0.05872223,0.2282898,1.686522,-0.1853289,-0.533278,1.6628,0.3009483,-0.5519332,1.629444,0.0611987,-0.1918044,1.680223,0.06693815,-0.4950509,1.66853,-0.1095313,-0.02016095,1.676945,-0.00917776,-0.4854814,1.636851,-0.1418383,-0.2774057,1.706576,0.2604844,-0.262446,1.693649,NA,NA,NotTracked,NotTracked,
-0.9785156,0.1699219,-0.1132813,-0.9946289,-0.1889648,-0.09179688,3,-1,2,2,4,7,9,4,0,-3,-2,1,0,2,1,4,4.0625,4.0625,4.0625,0.0625,0.0625,0.0625,8.171022,7.151949,8.727958,1.944578,7.186926,7.381073,-0.1432843,-0.5417879,1.650783,0.2671557,-0.5415496,1.635281,0.05888575,0.2283135,1.687424,-0.1786602,-0.5266116,1.645186,0.2997613,-0.5408595,1.625657,0.06104206,-0.1917221,1.68089,0.06670688,-0.4950243,1.668966,-0.109523,-0.02016974,1.677215,-0.009380299,-0.4854395,1.63732,-0.1418995,-0.2773947,1.706897,0.2603851,-0.2623324,1.693769,NA,NA,NotTracked,NotTracked,
-0.9785156,0.1699219,-0.1132813,-0.9931641,-0.1879883,-0.09375,3,-1,2,2,4,7,9,4,-3,2,2,2,2,9,24,-5,4.0625,4.0625,4.0625,0.6875,0.6875,0.6875,8.171022,7.151949,8.727958,1.946196,7.186872,7.381278,-0.1435388,-0.5420057,1.651527,0.2667777,-0.5408469,1.635086,0.05887267,0.2284012,1.687799,-0.180668,-0.5269895,1.6517,0.3005526,-0.5416706,1.628353,0.06100693,-0.191653,1.68115,0.06670603,-0.4950165,1.669039,-0.1095259,-0.02016356,1.677283,-0.009380258,-0.4854383,1.637322,-0.1419862,-0.2775812,1.70708,0.2603659,-0.2622404,1.693856,NA,NA,NotTracked,NotTracked,
