ALX,ALY,ALZ,ARX,ARY,ARZ,EMG0L,EMG1L,EMG2L,EMG3L,EMG4L,EMG5L,EMG6L,EMG7L,EMG0R,EMG1R,EMG2R,EMG3R,EMG4R,EMG5R,EMG6R,EMG7R,GLX,GLY,GLZ,GRX,GRY,GRZ,ORL,OPL,OYL,ORR,OPR,OYR,LHNX,LHNY,LHNZ,RHNX,RHNY,RHNZ,HX,HY,HZ,LTX,LTY,LTZ,RTX,RTY,RTZ,SpineMidX,SpineMidY,SpineMidZ,SpineBaseX,SpineBaseY,SpineBaseZ,ShoulderLeftX,ShoulderLeftY,ShoulderLeftZ,ShoulderRightX,ShoulderRightY,ShoulderRightZ,ElbowLeftX,ElbowLeftY,ElbowLeftZ,ElbowRightX,ElbowRightY,ElbowRightZ,Myo_Pose_left,Myo_Pose_Right,Kinect_pose_left,Kinect_pose_right
-1.013184,-0.1738281,-0.0009765625,-0.9692383,0.1777344,-0.1567383,8,0,-1,-1,-1,0,7,12,1,0,-1,-1,-1,3,-1,1,5,5,5,0.25,0.25,0.25,2.863158,7.22535,7.723302,8.690833,7.116886,8.171453,-0.1298819,-0.538682,1.593329,0.2381219,-0.5442338,1.594483,0.06793413,0.2300336,1.677721,-0.1759725,-0.5256025,1.594568,0.1935968,-0.5344795,1.569083,0.06250883,-0.1656639,1.665526,0.06431974,-0.4478417,1.648012,-0.1007297,-0.005704248,1.664397,-0.007160763,-0.4390292,1.61527,-0.1415522,-0.2535386,1.666065,0.2526828,-0.2413311,1.67635,NA,NA,NotTracked,NotTracked,
-1.013672,-0.1811523,-0.01269531,-0.9692383,0.1777344,-0.1567383,-5,-3,0,4,3,-7,-15,-3,1,0,-1,-1,-1,3,-1,1,2.1875,2.1875,2.1875,0.25,0.25,0.25,2.841603,7.225072,7.696126,8.690833,7.116886,8.171453,-0.1291671,-0.539297,1.592936,0.2378775,-0.5434532,1.594845,0.06823518,0.2299581,1.677351,-0.1744551,-0.5245476,1.591952,0.1944201,-0.5299838,1.568143,0.0625464,-0.1657106,1.665259,0.06430321,-0.447904,1.647769,-0.1006237,-0.005766686,1.664006,-0.007195324,-0.4390647,1.614956,-0.1416267,-0.253115,1.665678,0.2526088,-0.2414259,1.676282,NA,NA,NotTracked,NotTracked,
-0.9663086,-0.234375,-0.09423828,-0.9692383,0.1777344,-0.1567383,-12,-10,-7,16,-10,-10,1,-9,1,0,-1,-1,-1,3,-1,1,-10.875,-10.875,-10.875,0.25,0.25,0.25,2.742704,7.210981,7.606846,8.690833,7.116886,8.171453,-0.1285271,-0.5397487,1.590773,0.2372263,-0.5425411,1.592676,0.06841339,0.2298533,1.676812,-0.1737861,-0.5198166,1.592627,0.1938381,-0.5333095,1.56849,0.06259951,-0.1657756,1.664876,0.06433436,-0.4479936,1.647305,-0.1002775,-0.005709975,1.663158,-0.007204066,-0.4391387,1.614467,-0.1415473,-0.2531103,1.665151,0.2525942,-0.2414143,1.676288,NA,NA,NotTracked,NotTracked,
-1.046875,-0.2426758,0.02880859,-0.9692383,0.1777344,-0.1567383,22,13,14,11,8,3,0,5,1,0,-1,-1,-1,3,-1,1,-33.625,-33.625,-33.625,0.25,0.25,0.25,2.617833,7.174784,7.520885,8.690833,7.116886,8.171453,-0.1273352,-0.5385588,1.588066,0.2339306,-0.5389003,1.582941,0.06829236,0.2296427,1.676293,-0.1713992,-0.5156772,1.58892,0.1915479,-0.53807,1.563612,0.06267618,-0.1658876,1.664506,0.06428695,-0.4481304,1.646504,-0.1003312,-0.005844923,1.662978,-0.007291909,-0.4392207,1.61352,-0.1413982,-0.2527791,1.664545,0.252845,-0.2411433,1.676556,NA,NA,NotTracked,NotTracked,
-1.054688,-0.2524414,0.1538086,-0.9692383,0.1777344,-0.1567383,26,26,4,-80,25,28,7,14,1,0,-1,-1,-1,3,-1,1,-17,-17,-17,0.25,0.25,0.25,2.665396,7.145805,7.611987,8.690833,7.116886,8.171453,-0.126481,-0.5390574,1.586116,0.2219457,-0.528119,1.553239,0.06766111,0.2293703,1.675365,-0.1695812,-0.5219932,1.584061,0.1807303,-0.5251249,1.551205,0.06250593,-0.1658914,1.663832,0.06395431,-0.4479768,1.645285,-0.1004896,-0.006062337,1.662813,-0.007643753,-0.4391306,1.612536,-0.1413183,-0.2529807,1.664024,0.2539618,-0.2392104,1.676882,NA,NA,NotTracked,NotTracked,
-1.046387,-0.2744141,0.1503906,-0.9692383,0.1777344,-0.1567383,-1,17,-7,-6,-12,-13,-9,-4,1,0,-1,-1,-1,3,-1,1,-17.8125,-17.8125,-17.8125,0.25,0.25,0.25,2.942679,7.065564,7.918742,8.690833,7.116886,8.171453,-0.1251488,-0.5390105,1.585696,0.2058158,-0.486122,1.497054,0.0669985,0.2291437,1.674413,-0.1666485,-0.5175042,1.581029,0.1708738,-0.4764335,1.487923,0.06134367,-0.1661189,1.662502,0.0613088,-0.4478939,1.642546,-0.1007376,-0.006109419,1.662742,-0.01051803,-0.4386574,1.609914,-0.1411687,-0.2530635,1.663631,0.2563455,-0.2323251,1.675162,NA,NA,NotTracked,NotTracked,
-1.145508,-0.4047852,0.2167969,-0.9692383,0.1777344,-0.1567383,-36,-10,23,2,-26,-19,-2,-5,1,0,-1,-1,-1,3,-1,1,-5.625,-5.625,-5.625,0.25,0.25,0.25,3.174191,6.957946,8.191052,8.690833,7.116886,8.171453,-0.1246279,-0.5387787,1.584348,0.1636131,-0.3962803,1.450367,0.06599195,0.2288845,1.673231,-0.1694761,-0.5244121,1.585354,0.1373338,-0.4496004,1.48204,0.05788082,-0.1660186,1.660519,0.05052122,-0.4459922,1.638399,-0.1010224,-0.00627784,1.662643,-0.02105003,-0.4367225,1.606992,-0.1410148,-0.2528983,1.663238,0.2601877,-0.2125401,1.667551,NA,NA,NotTracked,Unknown,
-1.142578,-0.387207,0.5644531,-0.9692383,0.1777344,-0.1567383,-35,-70,-96,-80,-57,-24,-10,-25,1,0,-1,-1,-1,3,-1,1,-2.25,-2.25,-2.25,0.25,0.25,0.25,3.525928,6.800694,8.55822,8.690833,7.116886,8.171453,-0.1235193,-0.5386337,1.583296,0.1446569,-0.233848,1.393346,0.06483362,0.2289897,1.671397,-0.1661462,-0.5230961,1.5783,0.09268144,-0.2469954,1.437394,0.05771852,-0.1659862,1.660313,0.05095624,-0.4458174,1.638724,-0.1015363,-0.006310344,1.662619,-0.02048492,-0.436826,1.607314,-0.1407734,-0.2527484,1.662857,0.2754031,-0.2072828,1.648691,NA,NA,NotTracked,Unknown,
-0.9648438,-0.4189453,0.6655273,-0.9692383,0.1777344,-0.1567383,-22,-39,-43,-29,-36,-22,-15,-15,1,0,-1,-1,-1,3,-1,1,-27.3125,-27.3125,-27.3125,0.25,0.25,0.25,3.784993,6.51318,8.896318,8.690833,7.116886,8.171453,-0.1235256,-0.5384617,1.583123,0.1455955,-0.07983944,1.41099,0.06465966,0.2286112,1.669115,-0.1672443,-0.5273183,1.581326,0.1055537,-0.07595205,1.471067,0.05746953,-0.1662084,1.660024,0.05165594,-0.4461969,1.639376,-0.1017539,-0.006594042,1.661461,-0.01949927,-0.437638,1.60846,-0.1403264,-0.2529057,1.662327,0.2817358,-0.1879548,1.578555,NA,NA,NotTracked,Unknown,
-0.9262695,-0.5859375,0.5063477,-0.9692383,0.1777344,-0.1567383,-14,-21,-40,-80,-54,-18,-2,-6,1,0,-1,-1,-1,3,-1,1,19.0625,19.0625,19.0625,0.25,0.25,0.25,3.924958,6.017763,9.101699,8.690833,7.116886,8.171453,-0.123374,-0.5374511,1.581626,0.1320694,0.04641356,1.429215,0.06277813,0.2289076,1.665384,-0.1703734,-0.5239245,1.5907,0.08157931,0.06190264,1.484875,0.05588882,-0.1675784,1.657001,0.05135304,-0.4498123,1.639437,-0.1019317,-0.007308679,1.660355,-0.0204715,-0.4421585,1.612335,-0.140129,-0.2531073,1.661341,0.2729868,-0.176755,1.538909,NA,NA,NotTracked,Unknown,
-0.71875,-0.503418,0.3681641,-0.9692383,0.1777344,-0.1567383,7,36,48,47,48,28,18,16,1,0,-1,-1,-1,3,-1,1,66.1875,66.1875,66.1875,0.25,0.25,0.25,4.02199,5.72902,9.117451,8.690833,7.116886,8.171453,-0.1235587,-0.5392544,1.578993,0.1387963,0.1166763,1.468424,0.06191621,0.228237,1.657129,-0.1699095,-0.5229716,1.581833,0.1048483,0.1206261,1.520059,0.05522078,-0.1706526,1.655756,0.05148236,-0.4511127,1.639436,-0.1020717,-0.007723628,1.660108,-0.02067603,-0.4432409,1.612751,-0.1393661,-0.2520823,1.660588,0.2983643,-0.1586442,1.515021,NA,NA,NotTracked,Unknown,
-0.5229492,-0.4360352,0.4404297,-0.9692383,0.1777344,-0.1567383,13,18,5,-13,26,16,28,6,1,0,-1,-1,-1,3,-1,1,50.875,50.875,50.875,0.25,0.25,0.25,4.096912,5.526835,9.084677,8.690833,7.116886,8.171453,-0.122888,-0.5387324,1.573127,0.1450516,0.1509147,1.497949,0.06171148,0.2268787,1.650235,-0.1666871,-0.5463089,1.571333,0.1143621,0.1336248,1.543421,0.05584121,-0.1711159,1.655128,0.0514353,-0.4500672,1.638188,-0.1016345,-0.008396113,1.659432,-0.0213977,-0.442158,1.611705,-0.1387902,-0.2505196,1.6594,0.3037116,-0.09845791,1.46681,NA,NA,NotTracked,Unknown,
-0.3261719,-0.4892578,0.5708008,-0.9692383,0.1777344,-0.1567383,0,-8,-22,-78,-31,-17,-11,-2,1,0,-1,-1,-1,3,-1,1,20.625,20.625,20.625,0.25,0.25,0.25,4.121099,5.406577,9.025367,8.690833,7.116886,8.171453,-0.1222426,-0.5371325,1.569622,0.149255,0.1675644,1.516127,0.06159228,0.2266591,1.6479,-0.1650604,-0.5201362,1.560796,0.1459211,0.1215351,1.570762,0.05692412,-0.1695415,1.653252,0.0507423,-0.444867,1.634114,-0.1014854,-0.008378112,1.658588,-0.02321343,-0.4369616,1.607287,-0.1382717,-0.2497423,1.658143,0.3083843,-0.08800858,1.464462,NA,NA,NotTracked,Unknown,
-0.4511719,-0.4790039,0.6933594,-0.9692383,0.1777344,-0.1567383,-4,-4,-8,-25,-13,-4,-9,-2,1,0,-1,-1,-1,3,-1,1,29.1875,29.1875,29.1875,0.25,0.25,0.25,4.129036,5.382742,8.963355,8.690833,7.116886,8.171453,-0.1223297,-0.5359154,1.565875,0.1468766,0.1882875,1.529654,0.06202862,0.2257592,1.646251,-0.1661555,-0.5230123,1.564623,0.1093039,0.1460562,1.57025,0.05699278,-0.1652802,1.647418,0.0500676,-0.4394404,1.628197,-0.1007837,-0.008296858,1.656912,-0.02451536,-0.4316908,1.600513,-0.1379864,-0.2485675,1.655529,0.3177389,-0.07827658,1.466022,NA,NA,NotTracked,Unknown,
-0.5395508,-0.4506836,0.6967773,-0.9692383,0.1777344,-0.1567383,0,-1,1,16,-6,-3,-4,-2,1,0,-1,-1,-1,3,-1,1,37.6875,37.6875,37.6875,0.25,0.25,0.25,4.17452,5.366337,8.845527,8.690833,7.116886,8.171453,-0.12265,-0.538398,1.561251,0.1776862,0.1718882,1.527483,0.0639378,0.2255281,1.64559,-0.1652002,-0.5140241,1.555971,0.1491271,0.1246841,1.576862,0.05755221,-0.1623102,1.644011,0.05017982,-0.4353643,1.623884,-0.09915217,-0.008374685,1.654278,-0.02466872,-0.4277859,1.594913,-0.1384391,-0.2470787,1.651976,0.3294361,-0.07526053,1.472057,NA,NA,NotTracked,Unknown,
-0.4379883,-0.4106445,0.5566406,-0.9692383,0.1777344,-0.1567383,-8,-14,-26,-93,-30,-12,-14,-10,1,0,-1,-1,-1,3,-1,1,59.6875,59.6875,59.6875,0.25,0.25,0.25,4.231793,5.366509,8.752497,8.690833,7.116886,8.171453,-0.1240504,-0.5372151,1.556787,0.1796447,0.2103437,1.534827,0.06659871,0.2262305,1.645241,-0.1670559,-0.5228131,1.551211,0.1348861,0.187271,1.567555,0.05816403,-0.1611617,1.64276,0.05039127,-0.4334897,1.621041,-0.09820864,-0.007787484,1.652753,-0.02415377,-0.4257823,1.591001,-0.1386132,-0.2449321,1.648768,0.3426238,-0.07215799,1.478622,NA,NA,NotTracked,Unknown,
-0.4379883,-0.4106445,0.5566406,-0.9692383,0.1777344,-0.1567383,8,14,28,76,21,4,6,3,1,0,-1,-1,-1,3,-1,1,59.6875,59.6875,59.6875,0.25,0.25,0.25,4.231793,5.366509,8.752497,8.690833,7.116886,8.171453,-0.1252582,-0.5379489,1.553098,0.2068943,0.2046002,1.532164,0.06768332,0.2265798,1.64553,-0.1679006,-0.516777,1.5462,0.1483017,0.199779,1.57075,0.05837079,-0.1603065,1.640676,0.05065186,-0.4325517,1.617849,-0.09797838,-0.007249808,1.651379,-0.02352872,-0.4248565,1.586372,-0.1387771,-0.2449575,1.645024,0.3560023,-0.0817491,1.493452,NA,NA,NotTracked,Open,
-0.4379883,-0.4106445,0.5566406,-0.9692383,0.1777344,-0.1567383,0,5,-10,-75,-13,-9,-2,-2,1,0,-1,-1,-1,3,-1,1,59.6875,59.6875,59.6875,0.25,0.25,0.25,4.231793,5.366509,8.752497,8.690833,7.116886,8.171453,-0.1259528,-0.536414,1.549349,0.2294346,0.19048,1.525395,0.06773443,0.2269681,1.64573,-0.1699673,-0.5252129,1.542129,0.1553209,0.1810349,1.569625,0.05872273,-0.159686,1.638943,0.05135791,-0.4319111,1.615333,-0.09766249,-0.007022587,1.647047,-0.02244102,-0.4243445,1.583324,-0.1390733,-0.2470349,1.640597,0.3637608,-0.1054489,1.51735,NA,NA,NotTracked,Unknown,
-0.1064453,-0.2866211,1.212402,-0.9692383,0.1777344,-0.1567383,-1,-4,-23,-52,-12,-4,-3,-3,1,0,-1,-1,-1,3,-1,1,6,6,6,0.25,0.25,0.25,4.4266,5.509162,8.436032,8.690833,7.116886,8.171453,-0.1272984,-0.5356531,1.546652,0.2374229,0.1852708,1.520893,0.06791542,0.2274644,1.64588,-0.1707045,-0.5249586,1.545468,0.1597362,0.1815231,1.5555,0.05962056,-0.1596296,1.637459,0.05247907,-0.4324072,1.612583,-0.09782583,-0.007371293,1.643093,-0.02113075,-0.4250628,1.579947,-0.1395131,-0.2479341,1.636728,0.3647941,-0.1135254,1.52533,NA,NA,NotTracked,Unknown,
-0.03125,-0.21875,1.071289,-0.9692383,0.1777344,-0.1567383,-3,-3,-3,-1,-3,1,-4,-3,1,0,-1,-1,-1,3,-1,1,-7.875,-7.875,-7.875,0.25,0.25,0.25,4.412889,5.534247,8.402505,8.690833,7.116886,8.171453,-0.1293729,-0.5363954,1.540965,0.2388446,0.1806901,1.514515,0.06812846,0.2279909,1.645814,-0.1720912,-0.5154732,1.535174,0.1854043,0.1698578,1.530572,0.06016629,-0.1593726,1.635381,0.05370732,-0.4326708,1.610028,-0.09800385,-0.00730811,1.643026,-0.01963333,-0.4254631,1.576665,-0.1401297,-0.2483244,1.63283,0.36519,-0.1172264,1.528874,NA,NA,NotTracked,Unknown,
-0.265625,-0.3530273,0.4482422,-0.9692383,0.1777344,-0.1567383,0,2,2,13,4,0,0,2,1,0,-1,-1,-1,3,-1,1,-8.9375,-8.9375,-8.9375,0.25,0.25,0.25,4.391953,5.561052,8.39104,8.690833,7.116886,8.171453,-0.1286745,-0.5352623,1.53661,0.2400324,0.171334,1.502878,0.06858557,0.2286632,1.645604,-0.170361,-0.5220956,1.52422,0.2014285,0.1614738,1.524571,0.06048498,-0.1591179,1.634014,0.05436217,-0.4325173,1.608397,-0.09803504,-0.007266545,1.642915,-0.01890709,-0.4252996,1.574872,-0.1399603,-0.2489171,1.629413,0.3633727,-0.1296351,1.539531,NA,NA,NotTracked,Unknown,
-0.8154297,-0.3300781,0.8857422,-0.9692383,0.1777344,-0.1567383,2,4,9,31,9,3,0,0,1,0,-1,-1,-1,3,-1,1,-76.375,-76.375,-76.375,0.25,0.25,0.25,4.242561,5.726934,8.377604,8.690833,7.116886,8.171453,-0.1279831,-0.5364754,1.531737,0.2440179,0.1345946,1.467268,0.06913378,0.2290122,1.645525,-0.1700698,-0.512912,1.521789,0.2134824,0.1484214,1.5167,0.061497,-0.1589782,1.632293,0.05484451,-0.4326675,1.606301,-0.09671491,-0.006545478,1.635026,-0.01836473,-0.425227,1.572808,-0.139729,-0.2487504,1.626073,0.3638521,-0.1416631,1.546865,NA,NA,NotTracked,Unknown,
-1.003906,-0.4916992,0.3994141,-0.9692383,0.1777344,-0.1567383,-2,-4,-3,-6,-7,-3,-1,-2,1,0,-1,-1,-1,3,-1,1,-96.25,-96.25,-96.25,0.25,0.25,0.25,4.143058,5.849751,8.373364,8.690833,7.116886,8.171453,-0.1262105,-0.5376359,1.530201,0.250169,0.06621473,1.404346,0.06971461,0.2297905,1.645612,-0.1694353,-0.5405217,1.532,0.2063511,0.09366961,1.444933,0.06203883,-0.1587969,1.631011,0.0555438,-0.4328678,1.605172,-0.09663525,-0.00654147,1.632399,-0.01747917,-0.4253594,1.571605,-0.1386607,-0.2478259,1.622773,0.3574794,-0.1650904,1.567922,NA,NA,NotTracked,Unknown,
-0.8115234,-0.3510742,0.6743164,-0.9692383,0.1777344,-0.1567383,-3,-8,-13,-20,-8,-3,-6,-3,1,0,-1,-1,-1,3,-1,1,-92.1875,-92.1875,-92.1875,0.25,0.25,0.25,3.847842,6.286802,8.342201,8.690833,7.116886,8.171453,-0.1211942,-0.5370696,1.527883,0.2596848,-0.04492233,1.351051,0.06983182,0.2302601,1.645673,-0.1612417,-0.5333219,1.517,0.2161026,-0.01952067,1.333,0.06234091,-0.1596014,1.62966,0.05649081,-0.4360116,1.603627,-0.09597808,-0.006229675,1.629519,-0.01641238,-0.4283413,1.57054,-0.1376894,-0.2466419,1.62016,0.3359311,-0.2045586,1.583616,NA,NA,NotTracked,Closed,
-0.7885742,-0.4736328,0.6132813,-0.9692383,0.1777344,-0.1567383,-2,-1,-5,-13,-3,-1,-13,-4,1,0,-1,-1,-1,3,-1,1,-73.1875,-73.1875,-73.1875,0.25,0.25,0.25,3.734157,6.469764,8.309394,8.690833,7.116886,8.171453,-0.1185202,-0.5368374,1.527592,0.2632642,-0.1819667,1.317317,0.06984493,0.2306549,1.645822,-0.1574623,-0.5333979,1.519094,0.2802123,-0.1526985,1.292687,0.06255973,-0.1602321,1.628385,0.05717281,-0.4379049,1.602319,-0.09586402,-0.006165231,1.628332,-0.01562699,-0.4300928,1.569719,-0.1361323,-0.2458278,1.618354,0.3050278,-0.1895976,1.613073,NA,NA,NotTracked,Unknown,
-0.9331055,-0.5302734,0.3754883,-0.9692383,0.1777344,-0.1567383,4,9,11,11,4,-1,-5,1,1,0,-1,-1,-1,3,-1,1,-22.4375,-22.4375,-22.4375,0.25,0.25,0.25,3.58256,6.675943,8.245526,8.690833,7.116886,8.171453,-0.1165156,-0.5365694,1.529136,0.2749432,-0.3178396,1.333619,0.06962192,0.2310236,1.645883,-0.1595466,-0.537293,1.52313,0.244681,-0.2844947,1.3192,0.06270917,-0.1606887,1.627108,0.05763381,-0.4389382,1.60131,-0.09590048,-0.006030513,1.627857,-0.01512537,-0.4310093,1.569154,-0.1350099,-0.2458378,1.617515,0.3018991,-0.1961127,1.607879,NA,NA,NotTracked,Unknown,
-1.063477,-0.3964844,0.3349609,-0.9692383,0.1777344,-0.1567383,-4,-4,-2,-1,1,0,9,-10,1,0,-1,-1,-1,3,-1,1,-65.0625,-65.0625,-65.0625,0.25,0.25,0.25,3.489161,6.787356,8.227653,8.690833,7.116886,8.171453,-0.1161849,-0.5376919,1.530601,0.2807161,-0.4240251,1.374671,0.06945512,0.2313661,1.645909,-0.1580089,-0.5341785,1.521352,0.2528943,-0.4190098,1.345459,0.06293113,-0.1612554,1.625827,0.05836936,-0.4401076,1.600262,-0.09593914,-0.006097329,1.627384,-0.01439173,-0.4319369,1.568549,-0.1339531,-0.2455272,1.617027,0.2928507,-0.2069658,1.606671,NA,NA,NotTracked,Unknown,
-1.078125,-0.3374023,0.05224609,-0.9692383,0.1777344,-0.1567383,19,11,7,17,5,7,10,14,1,0,-1,-1,-1,3,-1,1,-64.5625,-64.5625,-64.5625,0.25,0.25,0.25,3.290405,6.921033,8.195958,8.690833,7.116886,8.171453,-0.1166391,-0.5374849,1.53138,0.2837371,-0.4833716,1.427681,0.06928357,0.2318003,1.645701,-0.15782,-0.5256884,1.52301,0.280417,-0.4678136,1.397428,0.06371888,-0.1616043,1.624375,0.0592431,-0.440796,1.59939,-0.0957792,-0.005842065,1.627144,-0.01345118,-0.4323825,1.568169,-0.133157,-0.2458632,1.616928,0.2836073,-0.2163408,1.602957,NA,NA,NotTracked,Lasso,
-0.9716797,-0.3564453,-0.1289063,-0.9692383,0.1777344,-0.1567383,-12,-2,3,-2,7,5,-4,-14,1,0,-1,-1,-1,3,-1,1,-41.5,-41.5,-41.5,0.25,0.25,0.25,3.113609,7.004953,8.110586,8.690833,7.116886,8.171453,-0.1170571,-0.5363855,1.533211,0.2777679,-0.5176048,1.474642,0.06898466,0.2323402,1.645237,-0.1609718,-0.5174823,1.529718,0.2594968,-0.5258002,1.435625,0.06492697,-0.1619716,1.623108,0.06064624,-0.4418673,1.59896,-0.09560535,-0.005926623,1.626702,-0.01179341,-0.4333231,1.568135,-0.1325154,-0.2478424,1.617605,0.2788087,-0.221171,1.603056,NA,NA,NotTracked,Lasso,
-0.9960938,-0.3305664,0.08007813,-0.9692383,0.1777344,-0.1567383,-4,0,0,-1,-1,-5,-4,-7,1,0,-1,-1,-1,3,-1,1,-16.5,-16.5,-16.5,0.25,0.25,0.25,2.935455,7.077291,7.970215,8.690833,7.116886,8.171453,-0.1192497,-0.5360453,1.537754,0.2687348,-0.5305289,1.508209,0.06884354,0.2331019,1.644361,-0.1648484,-0.5219738,1.534478,0.297567,-0.5111798,1.495,0.06597607,-0.1621245,1.622111,0.0633658,-0.4427282,1.598779,-0.09523524,-0.005788146,1.626296,-0.008637349,-0.4340952,1.568078,-0.1326941,-0.2490992,1.618092,0.2743419,-0.226807,1.60621,NA,NA,NotTracked,NotTracked,
-1.038574,-0.2543945,0.046875,-0.9692383,0.1777344,-0.1567383,-28,-6,-1,-2,-3,-4,-18,-27,1,0,-1,-1,-1,3,-1,1,49.8125,49.8125,49.8125,0.25,0.25,0.25,2.813019,7.122833,7.778889,8.690833,7.116886,8.171453,-0.120942,-0.5365365,1.542687,0.2625812,-0.5337933,1.531372,0.06919951,0.2336284,1.643341,-0.1661393,-0.5271323,1.53785,0.291917,-0.5139741,1.512361,0.06660423,-0.1622261,1.621028,0.06402399,-0.4430535,1.598391,-0.09425054,-0.005034882,1.62553,-0.007932202,-0.4342875,1.567731,-0.1326049,-0.2501441,1.618673,0.2711049,-0.2333937,1.611255,NA,NA,NotTracked,NotTracked,
-1.032715,-0.206543,0.05273438,-0.9692383,0.1777344,-0.1567383,3,7,5,3,1,5,9,11,1,0,-1,-1,-1,3,-1,1,17.25,17.25,17.25,0.25,0.25,0.25,2.77326,7.149627,7.67894,8.690833,7.116886,8.171453,-0.1209416,-0.5346712,1.545437,0.2618679,-0.5354479,1.542443,0.06991334,0.2339471,1.642216,-0.1659794,-0.5211645,1.538219,0.3042428,-0.527925,1.544167,0.06759417,-0.1623572,1.619911,0.06558929,-0.4433092,1.598162,-0.09391063,-0.004986148,1.624693,-0.006420146,-0.4344608,1.567465,-0.1325691,-0.2514012,1.618955,0.2691783,-0.2365824,1.614927,NA,NA,NotTracked,NotTracked,
-1.024902,-0.2397461,0.03515625,-0.9692383,0.1777344,-0.1567383,-21,-11,-4,-4,-5,-5,-10,-32,1,0,-1,-1,-1,3,-1,1,-8.25,-8.25,-8.25,0.25,0.25,0.25,2.72326,7.153912,7.635541,8.690833,7.116886,8.171453,-0.1206388,-0.535907,1.544962,0.2610186,-0.5369315,1.5456,0.0706013,0.2340864,1.640917,-0.1658035,-0.5274044,1.540866,0.3012282,-0.524876,1.536556,0.06793861,-0.162591,1.619032,0.06590528,-0.4435828,1.59794,-0.09361942,-0.005032955,1.623626,-0.006144016,-0.4346281,1.567208,-0.1325715,-0.2520324,1.619179,0.2682731,-0.237978,1.617318,NA,NA,NotTracked,NotTracked,
-1.011719,-0.175293,0.046875,-0.9692383,0.1777344,-0.1567383,10,2,1,3,-1,-4,-4,2,1,0,-1,-1,-1,3,-1,1,-12.875,-12.875,-12.875,0.25,0.25,0.25,2.717134,7.152801,7.64583,8.690833,7.116886,8.171453,-0.1198091,-0.5368609,1.545664,0.2608975,-0.5386135,1.547969,0.07126906,0.2340175,1.63997,-0.1660795,-0.5133915,1.546,0.3009325,-0.5229004,1.54026,0.06801542,-0.1628353,1.618326,0.0659437,-0.4437373,1.597813,-0.09304633,-0.004810078,1.622222,-0.006098893,-0.4346946,1.567011,-0.1323373,-0.2526582,1.619395,0.2679612,-0.2396557,1.619111,NA,NA,NotTracked,NotTracked,
-0.9990234,-0.2045898,0.01855469,-0.9692383,0.1777344,-0.1567383,-14,-1,-3,-2,-3,-5,-1,-13,1,0,-1,-1,-1,3,-1,1,-5.5,-5.5,-5.5,0.25,0.25,0.25,2.730199,7.152469,7.675964,8.690833,7.116886,8.171453,-0.1189536,-0.538384,1.545359,0.261455,-0.5378206,1.548189,0.07188246,0.2340245,1.639183,-0.1624455,-0.5241894,1.538529,0.3013802,-0.5274648,1.538546,0.06809282,-0.1630065,1.617628,0.06598843,-0.4439427,1.597617,-0.09266407,-0.004808651,1.621334,-0.006098358,-0.4348113,1.566708,-0.1320823,-0.2529095,1.619425,0.2674923,-0.2401613,1.61988,NA,NA,NotTracked,NotTracked,
-1.010742,-0.1923828,0.006835938,-0.9692383,0.1777344,-0.1567383,-4,-4,-1,-3,-3,-4,-5,-5,1,0,-1,-1,-1,3,-1,1,3.75,3.75,3.75,0.25,0.25,0.25,2.757494,7.154094,7.700271,8.690833,7.116886,8.171453,-0.1181894,-0.5367265,1.543867,0.2599824,-0.5383918,1.545727,0.07210039,0.2339521,1.638512,-0.1624781,-0.522843,1.541993,0.2998428,-0.5272678,1.53655,0.06801352,-0.1631586,1.617165,0.06617716,-0.4441451,1.597444,-0.09279118,-0.004988945,1.621139,-0.005905251,-0.4349595,1.566334,-0.1317794,-0.2535602,1.619563,0.2672056,-0.2406412,1.620431,NA,NA,NotTracked,NotTracked,
-0.9970703,-0.2177734,-0.01367188,-0.9692383,0.1777344,-0.1567383,2,2,1,-1,-3,0,4,2,1,0,-1,-1,-1,3,-1,1,-2.75,-2.75,-2.75,0.25,0.25,0.25,2.761348,7.157081,7.709486,8.690833,7.116886,8.171453,-0.1180564,-0.5378023,1.544361,0.2581823,-0.5386058,1.545591,0.07221896,0.2340129,1.638206,-0.1609392,-0.5245768,1.538374,0.2833554,-0.522601,1.517685,0.06794259,-0.1633243,1.616954,0.06618101,-0.4442194,1.597425,-0.09273266,-0.00486419,1.620739,-0.005910232,-0.4350106,1.566239,-0.1317775,-0.2535563,1.61957,0.2667291,-0.2409333,1.621082,NA,NA,NotTracked,NotTracked,
-0.9980469,-0.21875,0.02050781,-0.9692383,0.1777344,-0.1567383,-1,-4,-2,-2,-2,-4,-3,1,1,0,-1,-1,-1,3,-1,1,-2.25,-2.25,-2.25,0.25,0.25,0.25,2.78767,7.164536,7.744451,8.690833,7.116886,8.171453,-0.1184739,-0.5380927,1.54302,0.255161,-0.5384598,1.543725,0.07228314,0.2339458,1.637808,-0.1617316,-0.5169669,1.53881,0.2894541,-0.5297852,1.524139,0.06791949,-0.1634,1.616716,0.06625842,-0.4443073,1.597316,-0.09281336,-0.004974904,1.620337,-0.005841747,-0.4350785,1.566001,-0.1317248,-0.253532,1.619282,0.2663117,-0.2410624,1.621552,NA,NA,NotTracked,NotTracked,
-0.9931641,-0.1962891,0.01123047,-0.9692383,0.1777344,-0.1567383,4,-1,0,0,1,2,6,20,1,0,-1,-1,-1,3,-1,1,2.5625,2.5625,2.5625,0.25,0.25,0.25,2.827389,7.167998,7.781002,8.690833,7.116886,8.171453,-0.1186242,-0.5370065,1.540608,0.2538204,-0.5374452,1.542976,0.07223512,0.2338055,1.63748,-0.1642175,-0.5181286,1.539886,0.2903564,-0.5240181,1.528793,0.06793162,-0.1635362,1.61657,0.06644987,-0.4444817,1.59717,-0.09304356,-0.005282705,1.619942,-0.005655939,-0.4352282,1.56578,-0.131802,-0.2537653,1.618983,0.2659142,-0.2407866,1.621758,NA,NA,NotTracked,NotTracked,
-1.004395,-0.1953125,0.03222656,-0.9692383,0.1777344,-0.1567383,-15,-7,-3,-6,-7,-9,-10,-17,1,0,-1,-1,-1,3,-1,1,2.125,2.125,2.125,0.25,0.25,0.25,2.864397,7.16875,7.812985,8.690833,7.116886,8.171453,-0.1187368,-0.5377802,1.53965,0.2537329,-0.5379124,1.543142,0.07219142,0.2337127,1.63732,-0.1627595,-0.5205643,1.537612,0.2796367,-0.5270141,1.515307,0.06801382,-0.1637124,1.616546,0.06671389,-0.4447497,1.597221,-0.09307174,-0.005295335,1.619844,-0.00541523,-0.4354166,1.565733,-0.1317278,-0.2539589,1.618372,0.2656059,-0.2405941,1.621996,NA,NA,NotTracked,NotTracked,
-0.9970703,-0.1943359,0.03613281,-0.9692383,0.1777344,-0.1567383,15,12,4,2,0,0,5,20,1,0,-1,-1,-1,3,-1,1,-4.75,-4.75,-4.75,0.25,0.25,0.25,2.879495,7.167834,7.833431,8.690833,7.116886,8.171453,-0.1181022,-0.538175,1.539779,0.2537473,-0.5374242,1.543946,0.07223889,0.233634,1.637275,-0.1614317,-0.5321419,1.534037,0.288236,-0.514214,1.527263,0.06807639,-0.1637667,1.616549,0.06687807,-0.4448775,1.597248,-0.09309794,-0.00534701,1.619792,-0.005239613,-0.4355517,1.565616,-0.1317237,-0.2545687,1.618176,0.2652773,-0.2404834,1.622343,NA,NA,NotTracked,NotTracked,
-1.005371,-0.2045898,0.03222656,-0.9692383,0.1777344,-0.1567383,-6,0,1,0,0,0,-4,-7,1,0,-1,-1,-1,3,-1,1,-4.0625,-4.0625,-4.0625,0.25,0.25,0.25,2.881423,7.16656,7.844537,8.690833,7.116886,8.171453,-0.1183286,-0.5379353,1.539688,0.2540996,-0.5378096,1.543963,0.07225636,0.2336114,1.637267,-0.1623005,-0.5234381,1.534421,0.2892544,-0.5225765,1.527962,0.06812391,-0.1637955,1.616577,0.06724601,-0.444992,1.597306,-0.0931515,-0.005423094,1.619864,-0.004899534,-0.4356467,1.565574,-0.1318214,-0.2545478,1.618064,0.2648344,-0.2404771,1.622661,NA,NA,NotTracked,NotTracked,
-1.007813,-0.2119141,0.01855469,-0.9692383,0.1777344,-0.1567383,-2,-9,-5,-1,1,1,-1,12,1,0,-1,-1,-1,3,-1,1,-0.5625,-0.5625,-0.5625,0.25,0.25,0.25,2.887096,7.165389,7.852014,8.690833,7.116886,8.171453,-0.1183228,-0.5376332,1.540528,0.2530272,-0.5374103,1.543956,0.07239524,0.2335271,1.637273,-0.165876,-0.5217825,1.546421,0.2899905,-0.5115502,1.531196,0.06816587,-0.1639008,1.616681,0.06743109,-0.4451635,1.597414,-0.09315681,-0.005415416,1.619928,-0.004693453,-0.4358896,1.565649,-0.1318301,-0.2546173,1.618059,0.2645176,-0.2404387,1.622837,NA,NA,NotTracked,NotTracked,
-1.002441,-0.1831055,0.01855469,-0.9692383,0.1777344,-0.1567383,5,6,1,0,-2,1,-1,0,1,0,-1,-1,-1,3,-1,1,-2.5625,-2.5625,-2.5625,0.25,0.25,0.25,2.876462,7.166386,7.844672,8.690833,7.116886,8.171453,-0.1190686,-0.5369121,1.541775,0.2527049,-0.5378084,1.544417,0.07253254,0.2334357,1.637188,-0.1636353,-0.5283759,1.538904,0.292997,-0.5186154,1.536955,0.06819095,-0.163974,1.616848,0.06757313,-0.4452591,1.597592,-0.09322044,-0.005494028,1.620005,-0.004587617,-0.4359594,1.565766,-0.1319087,-0.2546649,1.618255,0.264235,-0.240351,1.623171,NA,NA,NotTracked,NotTracked,
-0.9951172,-0.1860352,0.04003906,-0.9692383,0.1777344,-0.1567383,-22,-16,-8,-6,-5,-3,2,-19,1,0,-1,-1,-1,3,-1,1,-6.75,-6.75,-6.75,0.25,0.25,0.25,2.876892,7.172027,7.854944,8.690833,7.116886,8.171453,-0.1197783,-0.5366135,1.5438,0.2515131,-0.537638,1.544962,0.07268234,0.2332943,1.637051,-0.1663302,-0.5172781,1.537909,0.293437,-0.5320487,1.534572,0.06830363,-0.1641035,1.61712,0.06794023,-0.4455167,1.598039,-0.09325054,-0.005515159,1.620115,-0.004223773,-0.4361931,1.566135,-0.1319574,-0.2547584,1.618331,0.2638771,-0.2404338,1.623374,NA,NA,NotTracked,NotTracked,
