ALX,ALY,ALZ,ARX,ARY,ARZ,EMG0L,EMG1L,EMG2L,EMG3L,EMG4L,EMG5L,EMG6L,EMG7L,EMG0R,EMG1R,EMG2R,EMG3R,EMG4R,EMG5R,EMG6R,EMG7R,GLX,GLY,GLZ,GRX,GRY,GRZ,ORL,OPL,OYL,ORR,OPR,OYR,LHNX,LHNY,LHNZ,RHNX,RHNY,RHNZ,HX,HY,HZ,LTX,LTY,LTZ,RTX,RTY,RTZ,SpineMidX,SpineMidY,SpineMidZ,SpineBaseX,SpineBaseY,SpineBaseZ,ShoulderLeftX,ShoulderLeftY,ShoulderLeftZ,ShoulderRightX,ShoulderRightY,ShoulderRightZ,ElbowLeftX,ElbowLeftY,ElbowLeftZ,ElbowRightX,ElbowRightY,ElbowRightZ,Myo_Pose_left,Myo_Pose_Right,Kinect_pose_left,Kinect_pose_right
-0.9785156,0.1699219,-0.1132813,-0.9936523,-0.2333984,-0.1503906,3,-1,2,2,4,7,9,4,10,8,4,11,20,12,4,9,4.0625,4.0625,4.0625,-6.6875,-6.6875,-6.6875,8.171022,7.151949,8.727958,2.157731,7.18921,8.134697,-0.1126285,-0.5303044,1.554868,0.2521107,-0.5354691,1.578444,0.04958456,0.230741,1.653431,-0.07363641,-0.5254199,1.538412,0.2899175,-0.5220927,1.571421,0.05066648,-0.1914901,1.645075,0.05722384,-0.4954804,1.631771,-0.1177182,-0.01765206,1.638054,-0.01933508,-0.4847187,1.599568,-0.1402637,-0.2613447,1.639374,0.2492612,-0.2656151,1.640193,NA,NA,NotTracked,NotTracked,
-0.9785156,0.1699219,-0.1132813,-1.01709,-0.2543945,-0.09228516,3,-1,2,2,4,7,9,4,6,3,-1,-10,13,1,1,5,4.0625,4.0625,4.0625,-16.0625,-16.0625,-16.0625,8.171022,7.151949,8.727958,2.061513,7.154047,8.062498,-0.1128525,-0.5298651,1.554345,0.2504141,-0.5330776,1.57295,0.05008401,0.2307999,1.653193,-0.07400025,-0.5020941,1.538187,0.2878798,-0.5288609,1.561631,0.05104203,-0.1913959,1.644647,0.05734452,-0.4954523,1.631443,-0.1172359,-0.01739263,1.637724,-0.01922926,-0.4847179,1.599353,-0.1402563,-0.2612786,1.639322,0.2496367,-0.265775,1.640243,NA,NA,NotTracked,NotTracked,
-0.9785156,0.1699219,-0.1132813,-1.03418,-0.2382813,-0.06103516,3,-1,2,2,4,7,9,4,-6,1,5,-12,1,-4,0,-6,4.0625,4.0625,4.0625,-10.3125,-10.3125,-10.3125,8.171022,7.151949,8.727958,2.061166,7.135881,8.073693,-0.1130196,-0.5304145,1.554374,0.2479741,-0.5275853,1.56181,0.05058851,0.2309833,1.65308,-0.07610622,-0.4844229,1.5332,0.2849996,-0.5250428,1.547762,0.0514047,-0.1912058,1.644194,0.05761927,-0.4951703,1.630909,-0.116747,-0.01702967,1.637541,-0.01896183,-0.4844442,1.598915,-0.140175,-0.2613435,1.639311,0.2500802,-0.265505,1.640398,NA,NA,NotTracked,NotTracked,
-0.9785156,0.1699219,-0.1132813,-1.047852,-0.2280273,0.03027344,3,-1,2,2,4,7,9,4,21,7,-3,-37,-7,-6,-5,3,4.0625,4.0625,4.0625,-17.3125,-17.3125,-17.3125,8.171022,7.151949,8.727958,2.139298,7.123917,8.167875,-0.1125688,-0.5298631,1.553962,0.2419506,-0.5206621,1.546008,0.05100149,0.2309883,1.653036,-0.07324345,-0.5045347,1.53677,0.2649348,-0.511021,1.511931,0.0519307,-0.1911715,1.643904,0.05745625,-0.4952172,1.630271,-0.1163986,-0.0170294,1.637501,-0.01909057,-0.4844697,1.598573,-0.1394109,-0.2623488,1.639119,0.2507657,-0.2643223,1.640788,NA,NA,NotTracked,NotTracked,
-0.9785156,0.1699219,-0.1132813,-1.040527,-0.2275391,0.1049805,3,-1,2,2,4,7,9,4,6,28,11,31,33,22,12,12,4.0625,4.0625,4.0625,-42.125,-42.125,-42.125,8.171022,7.151949,8.727958,2.273311,7.113258,8.345021,-0.1126851,-0.5293717,1.55238,0.2318632,-0.512809,1.520645,0.05152151,0.2310394,1.652942,-0.07518838,-0.4950632,1.53562,0.2553042,-0.4939722,1.489352,0.05199441,-0.1910945,1.643376,0.05729129,-0.4950795,1.629009,-0.1158689,-0.01715568,1.637241,-0.01929307,-0.4843067,1.597399,-0.139265,-0.2621992,1.638979,0.2512898,-0.2615447,1.64009,NA,NA,NotTracked,NotTracked,
-0.9785156,0.1699219,-0.1132813,-1.007324,-0.3378906,0.1103516,3,-1,2,2,4,7,9,4,-34,2,44,70,36,32,16,6,4.0625,4.0625,4.0625,-70.75,-70.75,-70.75,8.171022,7.151949,8.727958,2.480888,7.097277,8.629805,-0.1123655,-0.52947,1.551094,0.2009292,-0.4658634,1.465649,0.05271431,0.2310711,1.652815,-0.07351632,-0.5298187,1.531182,0.2114869,-0.4519122,1.429184,0.05131086,-0.1907656,1.641944,0.05246618,-0.4940759,1.624212,-0.1149141,-0.0170025,1.636917,-0.02442561,-0.4827577,1.593233,-0.1383334,-0.2620851,1.638411,0.2540655,-0.245858,1.636707,NA,NA,NotTracked,NotTracked,
-0.9785156,0.1699219,-0.1132813,-1.104004,-0.3032227,0.2646484,3,-1,2,2,4,7,9,4,28,11,4,30,19,2,0,5,4.0625,4.0625,4.0625,-78.5625,-78.5625,-78.5625,8.171022,7.151949,8.727958,2.768291,7.049294,9.012162,-0.1117396,-0.5292261,1.550445,0.1578807,-0.4319634,1.455234,0.05326957,0.231209,1.65284,-0.07334004,-0.4977397,1.534947,0.1097353,-0.3820824,1.458533,0.0511174,-0.1904925,1.641434,0.04920335,-0.4933703,1.621913,-0.1146339,-0.01692519,1.637003,-0.02772009,-0.4816364,1.591418,-0.137838,-0.2616754,1.638268,0.2562726,-0.2341056,1.632438,NA,NA,NotTracked,Unknown,
-0.9785156,0.1699219,-0.1132813,-1.024902,-0.2436523,0.3413086,3,-1,2,2,4,7,9,4,25,34,29,-7,6,14,10,10,4.0625,4.0625,4.0625,-109.125,-109.125,-109.125,8.171022,7.151949,8.727958,3.075442,6.984511,9.449817,-0.1104306,-0.5276591,1.548092,0.1250962,-0.3971517,1.435724,0.05367099,0.2313327,1.652902,-0.07375234,-0.5096953,1.534101,0.1378094,-0.3586804,1.401983,0.05115575,-0.1904214,1.641319,0.04907735,-0.4933197,1.621884,-0.1137373,-0.01679384,1.636604,-0.02789172,-0.481428,1.591368,-0.1373025,-0.2612604,1.63774,0.260716,-0.2286931,1.623657,NA,NA,NotTracked,Unknown,
-0.9785156,0.1699219,-0.1132813,-1.058594,-0.2456055,0.4345703,3,-1,2,2,4,7,9,4,9,28,37,64,43,23,14,4,4.0625,4.0625,4.0625,-133.125,-133.125,-133.125,8.171022,7.151949,8.727958,3.448561,6.798301,0.08072577,-0.1089005,-0.5286205,1.548787,0.09258251,-0.3607369,1.422884,0.05441084,0.2313971,1.652978,-0.07036423,-0.5320712,1.529762,0.1083466,-0.3143243,1.385694,0.05142231,-0.1902724,1.641423,0.04958785,-0.4930726,1.622266,-0.1148615,-0.01648024,1.640225,-0.02716945,-0.4811879,1.59183,-0.1364752,-0.2582718,1.637112,0.267184,-0.2300452,1.612797,NA,NA,NotTracked,Unknown,
-0.9785156,0.1699219,-0.1132813,-1.072266,-0.2592773,0.4404297,3,-1,2,2,4,7,9,4,0,-15,-31,-7,-7,-9,5,-2,4.0625,4.0625,4.0625,-132.125,-132.125,-132.125,8.171022,7.151949,8.727958,3.53216,6.717212,0.2555261,-0.1073974,-0.5301725,1.5446,0.04478713,-0.2390718,1.417439,0.05622291,0.2316262,1.653296,-0.07371606,-0.5203224,1.52773,0.04537037,-0.2169126,1.374681,0.05259388,-0.1898796,1.641602,0.05020806,-0.4926718,1.622398,-0.1099893,-0.01657129,1.636794,-0.02639293,-0.4809153,1.591899,-0.1352588,-0.2579659,1.635731,0.2777092,-0.2219391,1.559035,NA,NA,NotTracked,Unknown,
-0.9785156,0.1699219,-0.1132813,-1.006348,-0.246582,0.4121094,3,-1,2,2,4,7,9,4,14,-18,-28,-11,-12,-16,-6,-3,4.0625,4.0625,4.0625,-118.4375,-118.4375,-118.4375,8.171022,7.151949,8.727958,3.672235,6.460153,0.6609707,-0.1032085,-0.5333285,1.542591,0.01736799,-0.1830101,1.424899,0.05811087,0.2315471,1.653619,-0.06750886,-0.5193581,1.529324,0.01859547,-0.1657546,1.38276,0.05348278,-0.1892956,1.641773,0.05057399,-0.4914957,1.622593,-0.1114591,-0.01621315,1.640185,-0.02581598,-0.4796703,1.592536,-0.134579,-0.2569487,1.634786,0.2778083,-0.2185739,1.547559,NA,NA,NotTracked,Unknown,
-0.9785156,0.1699219,-0.1132813,-0.9672852,-0.253418,0.3813477,3,-1,2,2,4,7,9,4,14,18,33,53,30,6,5,6,4.0625,4.0625,4.0625,-115.125,-115.125,-115.125,8.171022,7.151949,8.727958,3.690801,6.376188,0.7661529,-0.1066555,-0.5259957,1.540088,-0.008056085,-0.1371547,1.43788,0.05951675,0.2316967,1.653523,-0.07157746,-0.5187861,1.52405,-0.01240765,-0.1545046,1.390853,0.05423073,-0.1891301,1.64186,0.05076611,-0.4913293,1.622622,-0.1072546,-0.01649534,1.636152,-0.02546632,-0.4793673,1.593042,-0.1339094,-0.2562627,1.633449,0.2622321,-0.2136461,1.523981,NA,NA,NotTracked,Unknown,
-0.9785156,0.1699219,-0.1132813,-0.824707,-0.2685547,0.2954102,3,-1,2,2,4,7,9,4,22,0,-20,-28,-7,-5,-4,5,4.0625,4.0625,4.0625,-114.5,-114.5,-114.5,8.171022,7.151949,8.727958,3.697611,6.227336,0.9475484,-0.1011616,-0.5294153,1.538914,-0.01592316,-0.1090243,1.457864,0.06078049,0.2319156,1.653674,-0.06272817,-0.5055452,1.52768,0.0006557223,-0.08850137,1.415772,0.05505937,-0.1891174,1.641975,0.05087907,-0.4913502,1.622668,-0.1029013,-0.01653416,1.631684,-0.02535017,-0.4793505,1.59326,-0.1329559,-0.2559282,1.632427,0.2638723,-0.2156457,1.51909,NA,NA,NotTracked,Unknown,
-0.9785156,0.1699219,-0.1132813,-0.7636719,-0.3759766,0.2470703,3,-1,2,2,4,7,9,4,-5,9,2,-13,-3,1,1,-7,4.0625,4.0625,4.0625,-108.875,-108.875,-108.875,8.171022,7.151949,8.727958,3.647848,6.074872,1.139438,-0.1001434,-0.5271525,1.535954,-0.03274127,-0.05383416,1.495703,0.06336809,0.2322586,1.653768,-0.06315501,-0.5067221,1.524641,-0.009260982,-0.009752993,1.540222,0.0575028,-0.1895867,1.641733,0.05167857,-0.4918385,1.622478,-0.08805126,-0.01919153,1.613334,-0.02496088,-0.4796321,1.593265,-0.1315418,-0.2558099,1.630937,0.249049,-0.2081508,1.499094,NA,NA,NotTracked,Unknown,
-0.9785156,0.1699219,-0.1132813,-0.7163086,-0.480957,0.2612305,3,-1,2,2,4,7,9,4,-4,-16,-24,-24,-26,-14,0,-8,4.0625,4.0625,4.0625,-79,-79,-79,8.171022,7.151949,8.727958,3.589697,6.049081,1.215015,-0.09932799,-0.5242178,1.535543,-0.03210028,-0.05114774,1.50757,0.0653257,0.2324355,1.653622,-0.06516135,-0.5127711,1.521968,-0.006860932,-0.0206316,1.472954,0.0583606,-0.1897991,1.641599,0.05207382,-0.4922093,1.62236,-0.08792225,-0.01914567,1.613272,-0.024718,-0.4799603,1.59312,-0.1303755,-0.2544727,1.630047,0.2434076,-0.2053723,1.493197,NA,NA,NotTracked,Unknown,
-0.9785156,0.1699219,-0.1132813,-0.706543,-0.4980469,0.2490234,3,-1,2,2,4,7,9,4,-7,-9,-30,-68,-14,-5,-5,-5,4.0625,4.0625,4.0625,-55.125,-55.125,-55.125,8.171022,7.151949,8.727958,3.564868,6.054487,1.23022,-0.09889764,-0.5241417,1.535634,-0.03061167,-0.05086491,1.5162,0.06717402,0.2328332,1.653503,-0.06430197,-0.511922,1.523817,-0.007168776,-0.01426796,1.489616,0.05937601,-0.1897542,1.641511,0.05232272,-0.4923483,1.622322,-0.08785698,-0.01897136,1.613603,-0.02458981,-0.4800821,1.593093,-0.1295684,-0.2539246,1.629339,0.2406194,-0.204166,1.490705,NA,NA,NotTracked,Unknown,
-0.9785156,0.1699219,-0.1132813,-0.7026367,-0.5415039,0.4155273,3,-1,2,2,4,7,9,4,-3,3,20,41,14,5,1,1,4.0625,4.0625,4.0625,-10.5,-10.5,-10.5,8.171022,7.151949,8.727958,3.539189,6.110667,1.24514,-0.09554965,-0.5392312,1.533085,-0.02983639,-0.05241771,1.52211,0.0680848,0.233135,1.653368,-0.05890492,-0.5067896,1.52479,-0.01042616,-0.003506165,1.518445,0.06007709,-0.1896026,1.641473,0.05265905,-0.4924531,1.622238,-0.08786482,-0.01866004,1.614253,-0.02437573,-0.4802009,1.593028,-0.1284663,-0.2530899,1.629019,0.2383729,-0.2034782,1.489113,NA,NA,NotTracked,NotTracked,
-0.9785156,0.1699219,-0.1132813,-0.7446289,-0.5449219,0.4428711,3,-1,2,2,4,7,9,4,-15,-5,9,13,-19,-9,-2,-11,4.0625,4.0625,4.0625,-15.125,-15.125,-15.125,8.171022,7.151949,8.727958,3.525692,6.166928,1.248423,-0.0999826,-0.5239468,1.537173,-0.0292983,-0.05529128,1.527883,0.06950547,0.2337708,1.652855,-0.06347068,-0.508467,1.526212,-0.002524164,-0.007567371,1.526138,0.06150512,-0.1892706,1.641194,0.05300537,-0.4924886,1.622142,-0.08865988,-0.01802053,1.617024,-0.02410751,-0.4802277,1.593087,-0.1273784,-0.2521341,1.629047,0.2367368,-0.2107887,1.487492,NA,NA,NotTracked,NotTracked,
-0.9785156,0.1699219,-0.1132813,-0.7900391,-0.5776367,0.5322266,3,-1,2,2,4,7,9,4,-29,21,38,14,18,11,-4,-15,4.0625,4.0625,4.0625,-0.125,-0.125,-0.125,8.171022,7.151949,8.727958,3.533947,6.206635,1.261302,-0.101011,-0.5248063,1.538498,-0.02892379,-0.0558073,1.529191,0.07043336,0.2339364,1.652742,-0.06340474,-0.4845214,1.527667,0.00642129,-0.009630464,1.53385,0.06187735,-0.1892025,1.641135,0.05305905,-0.4925534,1.622088,-0.08888624,-0.01786918,1.618008,-0.02405614,-0.4803124,1.59317,-0.1269732,-0.2521141,1.629076,0.2363445,-0.2119519,1.487455,NA,NA,NotTracked,NotTracked,
-0.9785156,0.1699219,-0.1132813,-0.7753906,-0.5883789,0.5151367,3,-1,2,2,4,7,9,4,-2,-11,-23,-31,-17,-7,8,0,4.0625,4.0625,4.0625,3.625,3.625,3.625,8.171022,7.151949,8.727958,3.543021,6.234045,1.263834,-0.1016588,-0.5257483,1.539934,-0.02855539,-0.05598095,1.53086,0.07100859,0.2339202,1.65256,-0.06620962,-0.5145022,1.524652,-0.001821021,-0.00863375,1.528479,0.06218539,-0.1891293,1.640998,0.05306153,-0.4925707,1.621984,-0.0890875,-0.01773368,1.618983,-0.02406398,-0.480301,1.593207,-0.1266368,-0.2521612,1.629273,0.2358586,-0.213193,1.487203,NA,NA,NotTracked,NotTracked,
-0.9785156,0.1699219,-0.1132813,-0.7495117,-0.5493164,0.4985352,3,-1,2,2,4,7,9,4,-12,-3,12,67,21,2,-8,-6,4.0625,4.0625,4.0625,-0.5625,-0.5625,-0.5625,8.171022,7.151949,8.727958,3.551437,6.248734,1.270875,-0.09767491,-0.5390834,1.539401,-0.02830416,-0.05572347,1.53259,0.07130764,0.2339634,1.652519,-0.05857918,-0.503509,1.52565,0.001302144,0.004103098,1.535375,0.06244327,-0.18913,1.640925,0.05325467,-0.4926364,1.621838,-0.08919951,-0.01770331,1.61969,-0.0239151,-0.4803277,1.593316,-0.1262521,-0.2520438,1.629466,0.2358214,-0.2140875,1.48708,NA,NA,NotTracked,NotTracked,
-0.9785156,0.1699219,-0.1132813,-0.7578125,-0.5244141,0.4858398,3,-1,2,2,4,7,9,4,-13,11,35,60,19,9,2,-8,4.0625,4.0625,4.0625,-1.875,-1.875,-1.875,8.171022,7.151949,8.727958,3.556711,6.255049,1.276499,-0.09787638,-0.5404215,1.542378,-0.02794264,-0.05645352,1.534818,0.07189465,0.2340461,1.652674,-0.05879395,-0.5069174,1.529824,0.007772185,-0.01180351,1.532696,0.06310537,-0.1889751,1.640945,0.05328348,-0.4926311,1.621845,-0.0893847,-0.01770884,1.620872,-0.02382993,-0.4803372,1.593605,-0.1259317,-0.2525672,1.630097,0.2356626,-0.2141597,1.487108,NA,NA,NotTracked,NotTracked,
-0.9785156,0.1699219,-0.1132813,-0.7661133,-0.5004883,0.4594727,3,-1,2,2,4,7,9,4,-9,-17,-35,-66,-36,-17,-10,-6,4.0625,4.0625,4.0625,-8.875,-8.875,-8.875,8.171022,7.151949,8.727958,3.558439,6.256933,1.28554,-0.09999774,-0.5263103,1.544364,-0.02767271,-0.05634699,1.533922,0.07298096,0.2340275,1.652303,-0.05975997,-0.4918536,1.528059,0.001684987,-0.007755052,1.530693,0.06410817,-0.1887784,1.640629,0.05353749,-0.4926462,1.621481,-0.08941163,-0.017635,1.621799,-0.02371232,-0.4803243,1.593671,-0.1249297,-0.2529573,1.631062,0.2352839,-0.2147194,1.486364,NA,NA,NotTracked,NotTracked,
-0.9785156,0.1699219,-0.1132813,-0.7651367,-0.5078125,0.4741211,3,-1,2,2,4,7,9,4,-1,14,32,47,25,14,9,2,4.0625,4.0625,4.0625,-6.875,-6.875,-6.875,8.171022,7.151949,8.727958,3.561253,6.257407,1.292446,-0.09982158,-0.5256481,1.542683,-0.0275932,-0.05586419,1.533908,0.07378761,0.2339077,1.652207,-0.06122855,-0.5000031,1.526929,0.004764803,-0.005912552,1.53153,0.06475817,-0.1887358,1.640273,0.05362302,-0.4926524,1.621247,-0.08927792,-0.01760028,1.622083,-0.02368602,-0.4803163,1.593692,-0.1245173,-0.2524923,1.631318,0.2349865,-0.2151958,1.485648,NA,NA,NotTracked,NotTracked,
-0.9785156,0.1699219,-0.1132813,-0.7788086,-0.5024414,0.4619141,3,-1,2,2,4,7,9,4,1,6,13,7,13,8,3,4,4.0625,4.0625,4.0625,2.25,2.25,2.25,8.171022,7.151949,8.727958,3.581375,6.263285,1.315235,-0.09717798,-0.5414628,1.540061,-0.02678334,-0.0559993,1.533475,0.07462909,0.2337334,1.652057,-0.06000711,-0.504499,1.527387,0.004129243,-0.008532738,1.530384,0.06544967,-0.1887705,1.640025,0.05385351,-0.4927463,1.620874,-0.08920251,-0.01757159,1.622313,-0.02358855,-0.4803462,1.593686,-0.1240284,-0.2525079,1.631518,0.2352494,-0.2153709,1.485237,NA,NA,NotTracked,NotTracked,
-0.9785156,0.1699219,-0.1132813,-0.7788086,-0.5219727,0.4731445,3,-1,2,2,4,7,9,4,-6,5,15,32,15,2,-2,-5,4.0625,4.0625,4.0625,7.5,7.5,7.5,8.171022,7.151949,8.727958,3.602639,6.268105,1.331515,-0.1008688,-0.5257777,1.542019,-0.02671949,-0.05626438,1.534002,0.07530694,0.233671,1.652107,-0.0616145,-0.5013034,1.527255,0.007279502,-0.007597271,1.532611,0.06575924,-0.1887218,1.639892,0.053967,-0.4927475,1.620648,-0.08912062,-0.01757296,1.622577,-0.02354877,-0.4803419,1.593681,-0.1238589,-0.2522565,1.631876,0.2353654,-0.2151361,1.484748,NA,NA,NotTracked,NotTracked,
-0.9785156,0.1699219,-0.1132813,-0.7734375,-0.5107422,0.4663086,3,-1,2,2,4,7,9,4,3,8,24,27,14,6,-1,3,4.0625,4.0625,4.0625,7.3125,7.3125,7.3125,8.171022,7.151949,8.727958,3.611869,6.271113,1.337713,-0.1001872,-0.5255589,1.540282,-0.02634855,-0.05643727,1.533436,0.07614972,0.2338464,1.651873,-0.06419841,-0.5303524,1.522258,-0.0006528228,-0.008648776,1.529996,0.06685696,-0.1886489,1.639415,0.05440786,-0.4927946,1.619949,-0.0875003,-0.01802401,1.623627,-0.02325903,-0.4803626,1.593624,-0.1231242,-0.2524973,1.631947,0.2355718,-0.2154241,1.484504,NA,NA,NotTracked,NotTracked,
-0.9785156,0.1699219,-0.1132813,-0.7905273,-0.5219727,0.4833984,3,-1,2,2,4,7,9,4,-4,-7,-12,-2,-4,-5,-6,-4,4.0625,4.0625,4.0625,4.0625,4.0625,4.0625,8.171022,7.151949,8.727958,3.634344,6.276701,1.35173,-0.09693443,-0.5404664,1.537174,-0.02611299,-0.0556096,1.533401,0.07673689,0.2338886,1.651729,-0.05648807,-0.4999696,1.527667,0.0002790818,0.008293285,1.53825,0.06748505,-0.1884963,1.639087,0.05451647,-0.4926817,1.619628,-0.08746608,-0.01798324,1.623654,-0.02315241,-0.4803547,1.593526,-0.122946,-0.2523767,1.631907,0.2356589,-0.2155488,1.484353,NA,NA,NotTracked,NotTracked,
-0.9785156,0.1699219,-0.1132813,-0.7802734,-0.5078125,0.4926758,3,-1,2,2,4,7,9,4,1,-3,-6,15,-10,-6,-1,-2,4.0625,4.0625,4.0625,4.5,4.5,4.5,8.171022,7.151949,8.727958,3.64135,6.276911,1.356519,-0.09869666,-0.5233596,1.538811,-0.02563425,-0.05587521,1.531725,0.0771816,0.2339534,1.651569,-0.0593284,-0.5096617,1.526295,0.002671376,0.00431617,1.535888,0.06812412,-0.1885403,1.638579,0.05473071,-0.4927859,1.619139,-0.08743262,-0.01796918,1.623648,-0.02298704,-0.4803956,1.59337,-0.1227598,-0.2522766,1.631801,0.235852,-0.2160263,1.48381,NA,NA,NotTracked,NotTracked,
-0.9785156,0.1699219,-0.1132813,-0.7719727,-0.4775391,0.5029297,3,-1,2,2,4,7,9,4,2,3,-1,-1,16,8,7,7,4.0625,4.0625,4.0625,14.6875,14.6875,14.6875,8.171022,7.151949,8.727958,3.669275,6.275403,1.368843,-0.0964027,-0.5384895,1.536048,-0.02552342,-0.05539582,1.530987,0.07803648,0.2339826,1.651372,-0.05905389,-0.5082861,1.526035,-0.01070048,0.01716194,1.53725,0.06860909,-0.1885554,1.638291,0.05499625,-0.4929264,1.618789,-0.08524816,-0.01749475,1.62381,-0.02273363,-0.4804751,1.593163,-0.1222522,-0.2519819,1.631856,0.2359999,-0.2162316,1.483658,NA,NA,NotTracked,NotTracked,
-0.9785156,0.1699219,-0.1132813,-0.7675781,-0.4868164,0.4677734,3,-1,2,2,4,7,9,4,-1,-4,-10,-18,-13,-2,34,4,4.0625,4.0625,4.0625,25.375,25.375,25.375,8.171022,7.151949,8.727958,3.697964,6.274552,1.372875,-0.09553834,-0.5373412,1.534589,-0.02410832,-0.05483769,1.528837,0.07882179,0.2340087,1.651081,-0.05873793,-0.5063954,1.52507,0.006974482,-0.00892878,1.528667,0.06917334,-0.1885357,1.637945,0.05521414,-0.4929492,1.618343,-0.0852496,-0.01749138,1.623773,-0.0225875,-0.480463,1.592995,-0.1218726,-0.2517397,1.631808,0.2359611,-0.2167338,1.483423,NA,NA,NotTracked,NotTracked,
-0.9785156,0.1699219,-0.1132813,-0.7646484,-0.4521484,0.4526367,3,-1,2,2,4,7,9,4,-5,-5,-6,-8,-5,-3,-8,-10,4.0625,4.0625,4.0625,38.1875,38.1875,38.1875,8.171022,7.151949,8.727958,3.743578,6.269776,1.382897,-0.0948901,-0.53735,1.534856,-0.02386783,-0.053744,1.523221,0.07984342,0.2339706,1.650775,-0.05717415,-0.5003267,1.524353,0.00518108,-0.005065695,1.531421,0.07000797,-0.1885989,1.63751,0.05588599,-0.4930502,1.617856,-0.08525244,-0.01749149,1.62352,-0.02182779,-0.4805902,1.592621,-0.1208508,-0.2511813,1.631282,0.2360976,-0.2167726,1.483511,NA,NA,NotTracked,NotTracked,
-0.9785156,0.1699219,-0.1132813,-0.7128906,-0.4428711,0.390625,3,-1,2,2,4,7,9,4,0,1,0,2,4,1,-3,-3,4.0625,4.0625,4.0625,99.0625,99.0625,99.0625,8.171022,7.151949,8.727958,3.86272,6.267934,1.378231,-0.0970602,-0.5224785,1.537349,-0.02323142,-0.05198673,1.518591,0.08057265,0.2339103,1.650443,-0.05809656,-0.50476,1.52456,-0.0125174,0.0253568,1.547,0.07028718,-0.188698,1.637275,0.05605838,-0.493127,1.617755,-0.08495937,-0.01750539,1.622765,-0.02164363,-0.4806416,1.592491,-0.1201872,-0.2504805,1.63087,0.2363936,-0.2171818,1.48395,NA,NA,NotTracked,NotTracked,
-0.9785156,0.1699219,-0.1132813,-0.6904297,-0.3925781,0.3188477,3,-1,2,2,4,7,9,4,-5,-9,-18,-20,-11,-8,-4,-5,4.0625,4.0625,4.0625,120.5625,120.5625,120.5625,8.171022,7.151949,8.727958,3.921162,6.273054,1.367255,-0.09662557,-0.5228173,1.53782,-0.02132113,-0.05123471,1.511019,0.0809349,0.2339268,1.650449,-0.05885398,-0.5071474,1.5254,-0.007671274,0.01760426,1.538473,0.07064264,-0.1887774,1.637163,0.05635435,-0.4932109,1.617592,-0.08450729,-0.01763844,1.621661,-0.0213462,-0.4806769,1.592334,-0.1194798,-0.2502431,1.630689,0.2414193,-0.2186742,1.488461,NA,NA,NotTracked,NotTracked,
-0.9785156,0.1699219,-0.1132813,-0.7924805,-0.2783203,0.2939453,3,-1,2,2,4,7,9,4,4,0,2,6,2,0,2,-1,4.0625,4.0625,4.0625,127.0625,127.0625,127.0625,8.171022,7.151949,8.727958,4.029716,6.383891,1.224424,-0.09479007,-0.528422,1.534985,-0.01183624,-0.06617193,1.487544,0.08106596,0.2339859,1.650401,-0.05795892,-0.506493,1.52358,0.01320496,-0.04266274,1.449398,0.07093366,-0.1887858,1.636972,0.05697686,-0.493283,1.617225,-0.0842761,-0.01784153,1.620499,-0.02072433,-0.4807473,1.592155,-0.1189003,-0.2510105,1.630214,0.247359,-0.2205588,1.494843,NA,NA,NotTracked,Unknown,
-0.9785156,0.1699219,-0.1132813,-0.9145508,-0.3618164,0.3764648,3,-1,2,2,4,7,9,4,5,7,12,16,7,3,0,2,4.0625,4.0625,4.0625,134.875,134.875,134.875,8.171022,7.151949,8.727958,4.055481,6.500391,1.074741,-0.09355053,-0.5351216,1.53082,0.003822581,-0.1129846,1.430316,0.08108009,0.234041,1.650391,-0.05857705,-0.5054356,1.5237,0.01921684,-0.1262229,1.378952,0.07119486,-0.1883794,1.636718,0.05778701,-0.4922296,1.616688,-0.08573277,-0.01704882,1.622461,-0.01975514,-0.4803332,1.592357,-0.1178632,-0.2504991,1.629817,0.2715632,-0.2227679,1.514241,NA,NA,NotTracked,Unknown,
-0.9785156,0.1699219,-0.1132813,-0.9868164,-0.2114258,0.4863281,3,-1,2,2,4,7,9,4,5,10,13,13,13,5,2,2,4.0625,4.0625,4.0625,156.3125,156.3125,156.3125,8.171022,7.151949,8.727958,4.078862,6.631025,0.8919336,-0.09303482,-0.5348491,1.53081,0.01746457,-0.1446599,1.40518,0.0810831,0.2340195,1.650371,-0.05886882,-0.5070986,1.52259,0.03095743,-0.1253441,1.356,0.07155515,-0.1881003,1.636462,0.05840651,-0.4917068,1.616363,-0.08660259,-0.01669738,1.623639,-0.01879154,-0.4797649,1.592181,-0.117505,-0.2507106,1.629686,0.2713465,-0.2231663,1.514597,NA,NA,NotTracked,Unknown,
-0.9785156,0.1699219,-0.1132813,-0.9609375,-0.206543,0.5268555,3,-1,2,2,4,7,9,4,-13,-5,-13,-20,-18,-9,-1,-6,4.0625,4.0625,4.0625,134.5625,134.5625,134.5625,8.171022,7.151949,8.727958,4.03741,6.758623,0.6723085,-0.09318645,-0.5280764,1.531537,0.04952,-0.1963809,1.368096,0.08109187,0.2339882,1.650301,-0.0553522,-0.5131686,1.52027,0.07518642,-0.2077805,1.336732,0.07173976,-0.187846,1.636211,0.05866732,-0.4912368,1.616119,-0.08730267,-0.01636254,1.624491,-0.01835883,-0.479242,1.591884,-0.1172722,-0.2503165,1.629659,0.2811432,-0.2247263,1.527063,NA,NA,NotTracked,Closed,
-0.9785156,0.1699219,-0.1132813,-0.9951172,-0.2568359,0.4375,3,-1,2,2,4,7,9,4,-1,-17,-20,2,-19,-19,-19,-9,4.0625,4.0625,4.0625,69.1875,69.1875,69.1875,8.171022,7.151949,8.727958,3.831719,6.861591,0.3447703,-0.09416731,-0.5240766,1.534165,0.08245019,-0.2469165,1.35901,0.08102144,0.2339858,1.650251,-0.05498869,-0.4951553,1.524409,0.08523899,-0.2472901,1.309736,0.07174438,-0.1876294,1.635994,0.05912667,-0.4906619,1.615673,-0.08778413,-0.01627638,1.625081,-0.01793935,-0.4790877,1.591455,-0.1168803,-0.2503916,1.629722,0.2786703,-0.2268706,1.534843,NA,NA,NotTracked,Closed,
-0.9785156,0.1699219,-0.1132813,-1.033691,-0.3930664,0.3544922,3,-1,2,2,4,7,9,4,18,0,-9,-10,-1,3,-15,5,4.0625,4.0625,4.0625,74.6875,74.6875,74.6875,8.171022,7.151949,8.727958,3.6449,6.904042,0.06023598,-0.09310251,-0.527689,1.537404,0.1379795,-0.3396532,1.357776,0.08049896,0.2341181,1.649622,-0.0540126,-0.4951914,1.523318,0.1542379,-0.3277104,1.31609,0.07151093,-0.1875815,1.635684,0.05867008,-0.4907898,1.615568,-0.08858649,-0.0159622,1.62583,-0.0182213,-0.4791512,1.591105,-0.1167264,-0.2503795,1.629739,0.3068161,-0.2250697,1.567614,NA,NA,NotTracked,Closed,
-0.9785156,0.1699219,-0.1132813,-1.060059,-0.2924805,0.3681641,3,-1,2,2,4,7,9,4,4,2,3,5,4,7,9,2,4.0625,4.0625,4.0625,52.8125,52.8125,52.8125,8.171022,7.151949,8.727958,3.505722,6.915516,9.831446,-0.09447576,-0.5272836,1.540121,0.1678565,-0.3797182,1.363938,0.0803103,0.2341289,1.649191,-0.0552203,-0.5058261,1.523338,0.1238815,-0.4018105,1.40875,0.07026602,-0.1877426,1.634701,0.05671965,-0.4914893,1.614793,-0.08872519,-0.01592614,1.625832,-0.02007591,-0.4795652,1.589625,-0.1165144,-0.2508453,1.629702,0.2858504,-0.2283126,1.573717,NA,NA,NotTracked,Unknown,
-0.9785156,0.1699219,-0.1132813,-1.041504,-0.1362305,0.2963867,3,-1,2,2,4,7,9,4,0,0,3,2,-3,-7,-12,1,4.0625,4.0625,4.0625,35.75,35.75,35.75,8.171022,7.151949,8.727958,3.413644,6.958597,9.686062,-0.09498766,-0.5261424,1.543398,0.1944481,-0.418366,1.373708,0.08011164,0.2339974,1.648942,-0.05567374,-0.5054196,1.52343,0.1543849,-0.4231335,1.428765,0.06958368,-0.188118,1.633142,0.05553712,-0.4919389,1.612687,-0.08859599,-0.01616903,1.625871,-0.02198582,-0.4793192,1.58561,-0.116617,-0.251051,1.62968,0.2850408,-0.230881,1.574933,NA,NA,NotTracked,Unknown,
-0.9785156,0.1699219,-0.1132813,-1.014648,-0.2114258,0.2324219,3,-1,2,2,4,7,9,4,0,-3,-4,-6,-5,-5,1,-3,4.0625,4.0625,4.0625,11.875,11.875,11.875,8.171022,7.151949,8.727958,3.284711,6.99691,9.522559,-0.09598248,-0.5261149,1.544967,0.2191588,-0.4512271,1.396752,0.07999216,0.233878,1.648742,-0.0568127,-0.5047401,1.524323,0.1675064,-0.4420319,1.466028,0.06948896,-0.1883134,1.632638,0.05563088,-0.4921964,1.612234,-0.08873101,-0.01613628,1.625789,-0.0218839,-0.4794827,1.584624,-0.1167655,-0.2528102,1.629619,0.2834231,-0.2325808,1.577332,NA,NA,NotTracked,Unknown,
-0.9785156,0.1699219,-0.1132813,-0.9931641,-0.1757813,0.1640625,3,-1,2,2,4,7,9,4,3,-1,-1,11,1,-3,10,-3,4.0625,4.0625,4.0625,11.6875,11.6875,11.6875,8.171022,7.151949,8.727958,3.178358,7.044522,9.399549,-0.09690683,-0.5270806,1.545379,0.2694018,-0.4953031,1.432168,0.07942528,0.2336864,1.648047,-0.05666636,-0.5216116,1.526722,0.2254799,-0.5040958,1.429936,0.07019218,-0.1886388,1.632278,0.05847915,-0.4934733,1.612595,-0.08897983,-0.01613603,1.625821,-0.0186282,-0.4809116,1.583804,-0.1165347,-0.2564646,1.629169,0.2823821,-0.2369687,1.582249,NA,NA,NotTracked,Unknown,
-0.9785156,0.1699219,-0.1132813,-0.9960938,-0.2949219,0.1142578,3,-1,2,2,4,7,9,4,-2,-4,-5,5,-1,1,3,1,4.0625,4.0625,4.0625,31.125,31.125,31.125,8.171022,7.151949,8.727958,3.132849,7.07352,9.334513,-0.09515935,-0.5375961,1.54241,0.2885367,-0.5103959,1.454898,0.07913315,0.2336416,1.647741,-0.05706212,-0.5066747,1.526408,0.2417574,-0.4976614,1.419937,0.07084368,-0.1889726,1.632042,0.06064181,-0.4940584,1.612925,-0.08920754,-0.01621857,1.62572,-0.01648671,-0.4816571,1.583963,-0.1164716,-0.2571242,1.629189,0.2826857,-0.2482499,1.585919,NA,NA,NotTracked,Unknown,
-0.9785156,0.1699219,-0.1132813,-1.011719,-0.4262695,0.02197266,3,-1,2,2,4,7,9,4,21,14,8,4,7,4,-8,16,4.0625,4.0625,4.0625,132.0625,132.0625,132.0625,8.171022,7.151949,8.727958,3.081188,7.10077,9.115554,-0.09572089,-0.5306865,1.542287,0.3044533,-0.5228148,1.480269,0.07867367,0.2335869,1.647361,-0.05630364,-0.5083139,1.524642,0.257697,-0.5001639,1.4538,0.07131962,-0.1891529,1.631721,0.06227766,-0.4941905,1.612877,-0.08927412,-0.01629433,1.625748,-0.01498885,-0.4818884,1.58396,-0.1164578,-0.2571957,1.629196,0.2831891,-0.2530305,1.58813,NA,NA,NotTracked,NotTracked,
-0.9785156,0.1699219,-0.1132813,-1.009766,-0.3364258,-0.1088867,3,-1,2,2,4,7,9,4,9,6,2,-1,-1,-2,3,7,4.0625,4.0625,4.0625,139.8125,139.8125,139.8125,8.171022,7.151949,8.727958,3.083743,7.126807,8.955421,-0.09447407,-0.5332493,1.540614,0.3142605,-0.5289865,1.502316,0.07847405,0.2334182,1.64669,-0.05779227,-0.4981413,1.526962,0.271472,-0.5313687,1.489686,0.0714867,-0.1892624,1.631481,0.06286652,-0.4942624,1.612867,-0.08944114,-0.01626789,1.625592,-0.01442071,-0.4821545,1.583949,-0.116451,-0.257215,1.629177,0.2843005,-0.2568882,1.591125,NA,NA,NotTracked,NotTracked,
-0.9785156,0.1699219,-0.1132813,-1.01123,-0.09277344,-0.04833984,3,-1,2,2,4,7,9,4,7,-3,-5,-6,-3,0,3,6,4.0625,4.0625,4.0625,-3,-3,-3,8.171022,7.151949,8.727958,2.911245,7.171369,8.687335,-0.09259026,-0.5416023,1.541031,0.3213018,-0.5392593,1.536259,0.07817628,0.2332148,1.645824,-0.05823541,-0.5175487,1.527132,0.2811985,-0.551915,1.520451,0.07209612,-0.1894697,1.630977,0.06373855,-0.494396,1.612871,-0.08935864,-0.01651001,1.625289,-0.01371093,-0.4823911,1.583921,-0.1164544,-0.2569273,1.629198,0.2852646,-0.2619252,1.599461,NA,NA,NotTracked,Lasso,
-0.9785156,0.1699219,-0.1132813,-1.024414,-0.1308594,0.04980469,3,-1,2,2,4,7,9,4,13,4,2,0,0,2,11,13,4.0625,4.0625,4.0625,-58.25,-58.25,-58.25,8.171022,7.151949,8.727958,2.801708,7.181251,8.608974,-0.09504551,-0.5287495,1.542027,0.3180827,-0.5406655,1.54466,0.0780763,0.2330478,1.645076,-0.05713034,-0.4839249,1.522,0.3190407,-0.5515682,1.508,0.07219768,-0.1895135,1.630751,0.06383931,-0.4943979,1.612878,-0.08949354,-0.01644983,1.625091,-0.01362808,-0.4823847,1.583902,-0.1164817,-0.2570226,1.629105,0.2856559,-0.2632288,1.605226,NA,NA,NotTracked,Lasso,
-0.9785156,0.1699219,-0.1132813,-0.9912109,-0.2895508,0.08886719,3,-1,2,2,4,7,9,4,9,4,2,-3,0,2,-75,46,4.0625,4.0625,4.0625,-79.0625,-79.0625,-79.0625,8.171022,7.151949,8.727958,2.495712,7.192204,8.441586,-0.09555633,-0.5290426,1.542748,0.3154826,-0.5417103,1.552137,0.07803565,0.2328152,1.644731,-0.05742627,-0.5012757,1.524719,0.2784053,-0.5460428,1.531805,0.07219745,-0.1895722,1.630687,0.06393769,-0.4944477,1.612926,-0.08920781,-0.01671432,1.62457,-0.01355758,-0.4824098,1.583899,-0.1164897,-0.2571968,1.628996,0.2868337,-0.266587,1.61231,NA,NA,NotTracked,Lasso,
-0.9785156,0.1699219,-0.1132813,-0.9995117,-0.2553711,0.06689453,3,-1,2,2,4,7,9,4,15,3,0,0,-2,-5,-20,16,4.0625,4.0625,4.0625,-20.4375,-20.4375,-20.4375,8.171022,7.151949,8.727958,2.397492,7.197439,8.379158,-0.09714796,-0.5248449,1.541736,0.3072272,-0.5431869,1.560422,0.07813843,0.2323041,1.643631,-0.05732783,-0.5190845,1.522875,0.2708282,-0.5423715,1.543171,0.07214538,-0.1897107,1.630378,0.06416343,-0.4945929,1.612895,-0.0890701,-0.01698024,1.623891,-0.01329031,-0.4825827,1.583613,-0.1162786,-0.2577537,1.628366,0.2863428,-0.2690575,1.618532,NA,NA,NotTracked,NotTracked,
-0.9785156,0.1699219,-0.1132813,-1.004883,-0.21875,0.08056641,3,-1,2,2,4,7,9,4,3,0,-1,1,-1,0,28,-6,4.0625,4.0625,4.0625,-3.1875,-3.1875,-3.1875,8.171022,7.151949,8.727958,2.38084,7.20451,8.363724,-0.09620826,-0.5241172,1.541665,0.3034026,-0.544333,1.563434,0.07823785,0.2320057,1.643103,-0.05801004,-0.5121398,1.524102,0.2667571,-0.5440661,1.545756,0.07212123,-0.1898704,1.630094,0.06425463,-0.4947011,1.612852,-0.0886502,-0.01723109,1.623374,-0.01319744,-0.4827073,1.583495,-0.1159518,-0.2583461,1.627503,0.2858665,-0.270458,1.621022,NA,NA,NotTracked,NotTracked,
-0.9785156,0.1699219,-0.1132813,-0.9921875,-0.2211914,-0.01464844,3,-1,2,2,4,7,9,4,-6,-13,-10,-8,-5,6,50,-31,4.0625,4.0625,4.0625,8.1875,8.1875,8.1875,8.171022,7.151949,8.727958,2.366082,7.22532,8.332538,-0.09609913,-0.5236484,1.542278,0.3001932,-0.5453479,1.566729,0.07849352,0.2318426,1.642739,-0.05701973,-0.5233736,1.523917,0.2986688,-0.5564783,1.532273,0.07211433,-0.1898938,1.630092,0.06438477,-0.4947246,1.61289,-0.08873936,-0.01724514,1.623376,-0.0130517,-0.4827113,1.583442,-0.1158803,-0.2589132,1.627276,0.2850845,-0.271459,1.623617,NA,NA,NotTracked,NotTracked,
-0.9785156,0.1699219,-0.1132813,-1.027832,-0.2163086,-0.02197266,3,-1,2,2,4,7,9,4,-40,-15,-5,-1,-1,-10,-23,-36,4.0625,4.0625,4.0625,-3.4375,-3.4375,-3.4375,8.171022,7.151949,8.727958,2.386879,7.23709,8.353739,-0.09601537,-0.5232809,1.540429,0.2960346,-0.545319,1.566723,0.07871135,0.2317205,1.642442,-0.05765028,-0.5097009,1.523213,0.2548366,-0.5232387,1.53625,0.07215947,-0.1899483,1.630001,0.06462749,-0.4947122,1.612886,-0.08885948,-0.01723328,1.623379,-0.01267355,-0.4826538,1.583239,-0.1156902,-0.2591131,1.626918,0.2843056,-0.2718392,1.624882,NA,NA,NotTracked,NotTracked,
-0.9785156,0.1699219,-0.1132813,-1.03418,-0.2143555,-0.01904297,3,-1,2,2,4,7,9,4,-4,0,1,1,0,3,12,-6,4.0625,4.0625,4.0625,-8.1875,-8.1875,-8.1875,8.171022,7.151949,8.727958,2.403054,7.242972,8.375815,-0.09537569,-0.5242386,1.541156,0.2878274,-0.5435587,1.567068,0.07939972,0.2313576,1.64168,-0.05631438,-0.4981021,1.525846,0.2449867,-0.5202654,1.555176,0.07229234,-0.1901998,1.62994,0.06519788,-0.4949695,1.613029,-0.08866074,-0.0172492,1.623315,-0.01211504,-0.4827316,1.583011,-0.1152092,-0.2596388,1.625986,0.28351,-0.2723486,1.626045,NA,NA,NotTracked,NotTracked,
-0.9785156,0.1699219,-0.1132813,-0.9941406,-0.222168,-0.03662109,3,-1,2,2,4,7,9,4,-4,-8,-6,-3,-3,-6,-25,6,4.0625,4.0625,4.0625,-9.625,-9.625,-9.625,8.171022,7.151949,8.727958,2.464098,7.253722,8.45686,-0.09560886,-0.5244067,1.541556,0.2845766,-0.5424744,1.565118,0.07988943,0.2310796,1.641482,-0.0602777,-0.4736589,1.521385,0.2437144,-0.5113019,1.543444,0.0723555,-0.1903149,1.629944,0.0655297,-0.4951494,1.613166,-0.0886772,-0.01729006,1.623238,-0.01173506,-0.482869,1.582921,-0.1149674,-0.2599021,1.625758,0.2830635,-0.272727,1.626375,NA,NA,NotTracked,NotTracked,
-0.9785156,0.1699219,-0.1132813,-0.9951172,-0.2045898,-0.04833984,3,-1,2,2,4,7,9,4,-16,-10,-3,1,0,-2,2,-16,4.0625,4.0625,4.0625,-3.875,-3.875,-3.875,8.171022,7.151949,8.727958,2.498536,7.254472,8.500186,-0.09574032,-0.5237435,1.540886,0.2819185,-0.5414521,1.563117,0.08037049,0.2307717,1.64119,-0.0572354,-0.4882602,1.524342,0.2416537,-0.526677,1.551517,0.07250163,-0.1904973,1.630033,0.0664892,-0.4953647,1.613573,-0.08869074,-0.01730618,1.623232,-0.01077441,-0.4830554,1.582996,-0.1146778,-0.2603405,1.625516,0.2827739,-0.2729237,1.626606,NA,NA,NotTracked,NotTracked,
-0.9785156,0.1699219,-0.1132813,-0.9960938,-0.1821289,-0.02880859,3,-1,2,2,4,7,9,4,0,-1,-1,-1,-1,-2,1,4,4.0625,4.0625,4.0625,-10.25,-10.25,-10.25,8.171022,7.151949,8.727958,2.514992,7.252481,8.525853,-0.092843,-0.5368355,1.539308,0.2791983,-0.54219,1.561688,0.08095222,0.2305196,1.641092,-0.05359068,-0.5039074,1.523889,0.2376945,-0.5283754,1.546708,0.07264045,-0.1907511,1.629994,0.06674308,-0.4955992,1.61365,-0.08815081,-0.01764271,1.623033,-0.01051326,-0.4832061,1.582916,-0.1146854,-0.2603087,1.625485,0.282488,-0.2731479,1.626816,NA,NA,NotTracked,NotTracked,
-0.9785156,0.1699219,-0.1132813,-0.9960938,-0.1821289,-0.02880859,3,-1,2,2,4,7,9,4,0,-1,-1,-1,-1,-2,1,4,4.0625,4.0625,4.0625,-10.25,-10.25,-10.25,8.171022,7.151949,8.727958,2.514992,7.252481,8.525853,-0.09349056,-0.5325537,1.540117,0.2768774,-0.5413148,1.559304,0.08133778,0.2304363,1.640932,-0.05557568,-0.5025896,1.524229,0.2385339,-0.5189564,1.537461,0.07276004,-0.1908945,1.629998,0.06710602,-0.4957598,1.613739,-0.08820236,-0.01763631,1.62303,-0.01012883,-0.4833461,1.58284,-0.1146852,-0.2603755,1.625445,0.2822671,-0.2731319,1.626826,NA,NA,NotTracked,NotTracked,
-0.9785156,0.1699219,-0.1132813,-0.9863281,-0.1972656,-0.02490234,3,-1,2,2,4,7,9,4,-1,-4,-3,-3,-3,-5,-13,-2,4.0625,4.0625,4.0625,-11.75,-11.75,-11.75,8.171022,7.151949,8.727958,2.516253,7.250773,8.534367,-0.09561922,-0.5245624,1.54248,0.2757724,-0.5408127,1.559532,0.08201379,0.2301765,1.640858,-0.05893793,-0.525287,1.523677,0.2346411,-0.5110779,1.543389,0.07300664,-0.1910373,1.630033,0.0677415,-0.4959018,1.613937,-0.08778526,-0.01769691,1.623158,-0.009519875,-0.4834145,1.582794,-0.114242,-0.2609842,1.6252,0.2820601,-0.2731661,1.626899,NA,NA,NotTracked,NotTracked,
-0.9785156,0.1699219,-0.1132813,-1.026855,-0.1787109,-0.01904297,3,-1,2,2,4,7,9,4,-17,-8,-3,-6,-5,-6,-6,-13,4.0625,4.0625,4.0625,-8.25,-8.25,-8.25,8.171022,7.151949,8.727958,2.497407,7.245583,8.532102,-0.09593712,-0.5252796,1.543905,0.2748735,-0.5410762,1.558176,0.08247478,0.2301138,1.640896,-0.05818514,-0.5421568,1.5224,0.2328842,-0.5409325,1.536929,0.07327129,-0.1912085,1.630108,0.06796926,-0.496021,1.614144,-0.08783715,-0.01765788,1.623208,-0.009304797,-0.4835158,1.582842,-0.1141017,-0.2611518,1.625151,0.2819195,-0.2733097,1.626966,NA,NA,NotTracked,NotTracked,
-0.9785156,0.1699219,-0.1132813,-1.017578,-0.1772461,-0.01367188,3,-1,2,2,4,7,9,4,3,5,3,-1,0,4,20,0,4.0625,4.0625,4.0625,-6.8125,-6.8125,-6.8125,8.171022,7.151949,8.727958,2.491477,7.244986,8.535203,-0.0953671,-0.5246783,1.542644,0.275045,-0.5420418,1.557312,0.0830357,0.2300789,1.640832,-0.05684453,-0.4927315,1.526524,0.2334427,-0.5204058,1.551464,0.07334053,-0.1913025,1.630117,0.06807964,-0.4961486,1.614271,-0.0871266,-0.01735147,1.623116,-0.009221062,-0.4835579,1.582872,-0.1141072,-0.261158,1.62514,0.281784,-0.2733017,1.626914,NA,NA,NotTracked,NotTracked,
-0.9785156,0.1699219,-0.1132813,-0.9995117,-0.1801758,-0.03271484,3,-1,2,2,4,7,9,4,0,1,-1,-1,-4,-2,1,4,4.0625,4.0625,4.0625,-4.3125,-4.3125,-4.3125,8.171022,7.151949,8.727958,2.487151,7.244076,8.53261,-0.09559987,-0.5248283,1.543528,0.2745703,-0.5422727,1.556482,0.08383494,0.2300244,1.640884,-0.05649215,-0.4876306,1.524929,0.2326303,-0.5058331,1.5424,0.07339209,-0.1913384,1.630143,0.06819116,-0.4961718,1.614467,-0.08725492,-0.01726658,1.623161,-0.009094128,-0.483564,1.582973,-0.1140665,-0.2611539,1.62512,0.2814473,-0.2735649,1.626828,NA,NA,NotTracked,NotTracked,
-0.9785156,0.1699219,-0.1132813,-0.9995117,-0.1801758,-0.03271484,3,-1,2,2,4,7,9,4,0,1,-1,-1,-4,-2,1,4,4.0625,4.0625,4.0625,-4.3125,-4.3125,-4.3125,8.171022,7.151949,8.727958,2.487151,7.244076,8.53261,-0.09583899,-0.5245832,1.54519,0.274231,-0.5416816,1.556293,0.08421013,0.2300465,1.640915,-0.05691121,-0.4819968,1.525273,0.2322701,-0.5403544,1.542714,0.07354601,-0.1914124,1.630193,0.06841014,-0.496249,1.614717,-0.08659783,-0.01713929,1.623193,-0.008841611,-0.4836118,1.583225,-0.11407,-0.2611261,1.625161,0.2813287,-0.2736845,1.626836,NA,NA,NotTracked,NotTracked,
-0.9785156,0.1699219,-0.1132813,-1.000977,-0.1699219,-0.04296875,3,-1,2,2,4,7,9,4,5,-1,-2,-3,0,0,12,3,4.0625,4.0625,4.0625,-0.3125,-0.3125,-0.3125,8.171022,7.151949,8.727958,2.464544,7.240171,8.5106,-0.0957347,-0.5258411,1.546686,0.2736014,-0.5419372,1.556016,0.08486401,0.2301243,1.64112,-0.05648907,-0.4957404,1.527951,0.2340834,-0.5152261,1.550679,0.07366165,-0.1914818,1.63028,0.06856275,-0.4963642,1.614986,-0.08604328,-0.01723794,1.623322,-0.008634037,-0.4837269,1.5835,-0.1140176,-0.2609805,1.625539,0.2810932,-0.273902,1.626767,NA,NA,NotTracked,NotTracked,
-0.9785156,0.1699219,-0.1132813,-1.001465,-0.1699219,-0.04199219,3,-1,2,2,4,7,9,4,7,3,1,-2,0,-2,-20,13,4.0625,4.0625,4.0625,-3.75,-3.75,-3.75,8.171022,7.151949,8.727958,2.458447,7.240421,8.509732,-0.09599919,-0.5254313,1.5463,0.273582,-0.542031,1.555183,0.08544055,0.230161,1.641345,-0.0574199,-0.4986139,1.527827,0.2341214,-0.5164898,1.55217,0.07373569,-0.1915579,1.630318,0.06865234,-0.4963959,1.615075,-0.08560519,-0.01690414,1.623335,-0.00853226,-0.4837329,1.583557,-0.1139573,-0.2609198,1.625717,0.2808332,-0.274015,1.626708,NA,NA,NotTracked,NotTracked,
-0.9785156,0.1699219,-0.1132813,-1.009277,-0.1621094,-0.05371094,3,-1,2,2,4,7,9,4,1,-5,-4,-1,-5,-2,11,10,4.0625,4.0625,4.0625,-11.6875,-11.6875,-11.6875,8.171022,7.151949,8.727958,2.481391,7.239114,8.545923,-0.09568814,-0.5252783,1.546191,0.2726356,-0.5406557,1.553578,0.08600292,0.2302665,1.641661,-0.05678531,-0.4911045,1.52589,0.2330507,-0.5253263,1.552674,0.07376742,-0.191568,1.630331,0.06863426,-0.4963922,1.61516,-0.08538326,-0.01686783,1.623342,-0.008543592,-0.483688,1.583644,-0.1137311,-0.2614754,1.626022,0.2805725,-0.2740448,1.62658,NA,NA,NotTracked,NotTracked,
-0.9785156,0.1699219,-0.1132813,-1.029785,-0.1738281,-0.03125,3,-1,2,2,4,7,9,4,-5,2,2,1,-2,-3,-4,-8,4.0625,4.0625,4.0625,-16.25,-16.25,-16.25,8.171022,7.151949,8.727958,2.496116,7.240101,8.571414,-0.09618427,-0.5251402,1.547534,0.2722213,-0.539454,1.554452,0.0867061,0.2303567,1.642177,-0.05909402,-0.4769176,1.523692,0.2321147,-0.530791,1.545525,0.07394751,-0.1916075,1.630503,0.06894398,-0.4964454,1.615559,-0.08503078,-0.01655106,1.623662,-0.00819893,-0.4836723,1.583965,-0.1138222,-0.2612257,1.626052,0.2804276,-0.2739921,1.626486,NA,NA,NotTracked,NotTracked,
-0.9785156,0.1699219,-0.1132813,-1.029785,-0.1738281,-0.03125,3,-1,2,2,4,7,9,4,-5,2,2,1,-2,-3,-4,-8,4.0625,4.0625,4.0625,-16.25,-16.25,-16.25,8.171022,7.151949,8.727958,2.496116,7.240101,8.571414,-0.09546464,-0.524726,1.547609,0.2711113,-0.5391948,1.552672,0.0871097,0.2304252,1.642531,-0.05702539,-0.4972039,1.530739,0.2289072,-0.51439,1.539368,0.07422628,-0.1917442,1.630716,0.0692798,-0.4965999,1.615979,-0.08468994,-0.01649647,1.62381,-0.007829482,-0.4838616,1.584485,-0.1139041,-0.261137,1.626193,0.280274,-0.2739531,1.626321,NA,NA,NotTracked,NotTracked,
-0.9785156,0.1699219,-0.1132813,-1.005859,-0.2045898,-0.02978516,3,-1,2,2,4,7,9,4,-30,-7,1,3,3,-1,-19,-38,4.0625,4.0625,4.0625,-11.25,-11.25,-11.25,8.171022,7.151949,8.727958,2.550488,7.236366,8.651752,-0.09594506,-0.5250388,1.54713,0.2693246,-0.537757,1.550832,0.08757062,0.2305142,1.642993,-0.05719674,-0.5063263,1.53121,0.2307647,-0.5371467,1.552413,0.07429578,-0.1917951,1.630944,0.06934575,-0.4966528,1.616252,-0.08437075,-0.01646079,1.623858,-0.007735766,-0.4838809,1.584751,-0.1138969,-0.2611314,1.626289,0.2800975,-0.2738256,1.62605,NA,NA,NotTracked,NotTracked,
-0.9785156,0.1699219,-0.1132813,-0.9785156,-0.1704102,-0.03320313,3,-1,2,2,4,7,9,4,0,1,0,3,0,0,10,1,4.0625,4.0625,4.0625,-6.625,-6.625,-6.625,8.171022,7.151949,8.727958,2.587023,7.235126,8.697377,-0.09578732,-0.5252035,1.548389,0.2683465,-0.5391625,1.551386,0.08792551,0.2306425,1.643507,-0.05684145,-0.4987887,1.529571,0.2303062,-0.5187559,1.549684,0.07427955,-0.1918075,1.631146,0.0693311,-0.4966672,1.616391,-0.08407115,-0.01643008,1.624184,-0.00775577,-0.483862,1.584834,-0.1138591,-0.2609004,1.626835,0.2799849,-0.2739877,1.625816,NA,NA,NotTracked,NotTracked,
-0.9785156,0.1699219,-0.1132813,-0.9897461,-0.1674805,-0.04052734,3,-1,2,2,4,7,9,4,-10,-7,-4,-4,-4,-3,-2,-13,4.0625,4.0625,4.0625,-7.9375,-7.9375,-7.9375,8.171022,7.151949,8.727958,2.594413,7.2347,8.710402,-0.09517568,-0.5250085,1.547567,0.2679464,-0.5390663,1.550359,0.08840255,0.2308055,1.643979,-0.05717683,-0.4950149,1.52867,0.22798,-0.4939041,1.542273,0.07448206,-0.1918225,1.631364,0.06937429,-0.4966879,1.616501,-0.08393827,-0.01642449,1.624413,-0.007708284,-0.4838579,1.584944,-0.113936,-0.260768,1.62726,0.2798759,-0.2738944,1.625711,NA,NA,NotTracked,NotTracked,
-0.9785156,0.1699219,-0.1132813,-0.9980469,-0.1845703,-0.02441406,3,-1,2,2,4,7,9,4,-42,-25,-9,1,2,-4,-11,-49,4.0625,4.0625,4.0625,-9.125,-9.125,-9.125,8.171022,7.151949,8.727958,2.59551,7.22949,8.727532,-0.09545392,-0.5252407,1.548248,0.2673086,-0.5386382,1.548648,0.0886822,0.2308694,1.644252,-0.05849135,-0.4757295,1.52575,0.2291748,-0.4934439,1.537637,0.07454784,-0.1918429,1.631514,0.06936978,-0.4967006,1.616593,-0.08365114,-0.01629974,1.624576,-0.007706079,-0.4838453,1.584998,-0.1138679,-0.260746,1.627595,0.2796867,-0.273854,1.625401,NA,NA,NotTracked,NotTracked,
-0.9785156,0.1699219,-0.1132813,-0.9960938,-0.1894531,-0.02587891,3,-1,2,2,4,7,9,4,8,2,-1,0,0,2,8,7,4.0625,4.0625,4.0625,-1.625,-1.625,-1.625,8.171022,7.151949,8.727958,2.589801,7.227959,8.727092,-0.09444702,-0.5249223,1.549959,0.2671451,-0.5385133,1.550506,0.08944437,0.2310976,1.645354,-0.05833305,-0.531487,1.528955,0.2247783,-0.4867579,1.537333,0.07487758,-0.1919201,1.632195,0.06952721,-0.4968177,1.617149,-0.08292498,-0.0161029,1.625575,-0.007536041,-0.4839116,1.585582,-0.1136796,-0.2613488,1.629141,0.2793423,-0.273408,1.62502,NA,NA,NotTracked,NotTracked,
-0.9785156,0.1699219,-0.1132813,-0.9902344,-0.184082,-0.03808594,3,-1,2,2,4,7,9,4,-5,-1,-3,3,0,3,-6,0,4.0625,4.0625,4.0625,0.9375,0.9375,0.9375,8.171022,7.151949,8.727958,2.584551,7.226658,8.720798,-0.09458591,-0.5253428,1.549325,0.2666914,-0.5385679,1.550669,0.08987653,0.2311141,1.645747,-0.05637445,-0.4922801,1.531933,0.2253845,-0.4906386,1.538605,0.07491096,-0.1919304,1.632455,0.0695223,-0.4969326,1.6175,-0.08275332,-0.01617824,1.625777,-0.007522348,-0.4840326,1.585956,-0.1136054,-0.2617098,1.62958,0.2792778,-0.2733274,1.624914,NA,NA,NotTracked,NotTracked,
-0.9785156,0.1699219,-0.1132813,-1.000977,-0.1757813,-0.02050781,3,-1,2,2,4,7,9,4,2,2,-3,-1,-4,-6,-5,-8,4.0625,4.0625,4.0625,3.625,3.625,3.625,8.171022,7.151949,8.727958,2.568174,7.226508,8.70095,-0.09472999,-0.5253558,1.550146,0.2673366,-0.5389167,1.551916,0.09040455,0.2311922,1.646531,-0.05648259,-0.5236272,1.532412,0.224472,-0.5003663,1.533154,0.07509357,-0.1918331,1.632825,0.06965419,-0.4969197,1.617871,-0.08329577,-0.01596717,1.625947,-0.007347497,-0.4840029,1.586413,-0.1136126,-0.2615389,1.630235,0.2792701,-0.2734917,1.624862,NA,NA,NotTracked,NotTracked,
