ALX,ALY,ALZ,ARX,ARY,ARZ,EMG0L,EMG1L,EMG2L,EMG3L,EMG4L,EMG5L,EMG6L,EMG7L,EMG0R,EMG1R,EMG2R,EMG3R,EMG4R,EMG5R,EMG6R,EMG7R,GLX,GLY,GLZ,GRX,GRY,GRZ,ORL,OPL,OYL,ORR,OPR,OYR,LHNX,LHNY,LHNZ,RHNX,RHNY,RHNZ,HX,HY,HZ,LTX,LTY,LTZ,RTX,RTY,RTZ,SpineMidX,SpineMidY,SpineMidZ,SpineBaseX,SpineBaseY,SpineBaseZ,ShoulderLeftX,ShoulderLeftY,ShoulderLeftZ,ShoulderRightX,ShoulderRightY,ShoulderRightZ,ElbowLeftX,ElbowLeftY,ElbowLeftZ,ElbowRightX,ElbowRightY,ElbowRightZ,Myo_Pose_left,Myo_Pose_Right,Kinect_pose_left,Kinect_pose_right
-1.014648,0.2304688,-0.03515625,-0.5317383,-0.378418,0.9082031,-10,-2,9,68,3,-7,-6,-5,9,7,3,-9,5,5,3,2,-52.5625,-52.5625,-52.5625,-21,-21,-21,8.4412,7.076019,7.824244,4.274927,5.829834,3.56115,-0.169133,-0.4651677,1.500877,0.1225958,0.1369196,1.450553,-0.01120505,0.2270838,1.677701,-0.2059858,-0.4689396,1.492591,0.09515174,0.1239048,1.501529,-0.0140603,-0.1861388,1.676867,-0.01554496,-0.4825087,1.647837,-0.1804639,-0.01424697,1.676756,-0.09440386,-0.4753016,1.616475,-0.2152691,-0.2423093,1.669255,0.2334227,-0.1479166,1.500936,NA,NA,Unknown,Closed,
-1.085938,0.2529297,0.1411133,-0.6435547,-0.2880859,0.8305664,-16,-16,-50,-9,-2,-7,-12,-10,2,-4,3,20,20,14,-2,0,-25.75,-25.75,-25.75,-44.6875,-44.6875,-44.6875,8.236541,7.069979,7.654406,4.200923,5.983957,3.494397,-0.1579562,-0.4396289,1.478617,0.1293022,0.1126901,1.413831,-0.01220219,0.2286762,1.677761,-0.1767735,-0.4176829,1.428604,0.1021728,0.1043924,1.46156,-0.01143537,-0.1851656,1.67444,-0.01218527,-0.4804437,1.64606,-0.1806825,-0.01376043,1.677039,-0.09111623,-0.4734261,1.61376,-0.21591,-0.234504,1.668128,0.2347411,-0.1674975,1.521489,NA,NA,Unknown,Unknown,
-1.060059,0.3378906,0.1870117,-0.6298828,-0.3217773,0.730957,25,-2,-17,-18,-4,4,5,11,7,7,12,20,9,5,0,2,-30.3125,-30.3125,-30.3125,-62.4375,-62.4375,-62.4375,7.884021,7.053472,7.324635,4.098461,6.125302,3.432431,-0.1668308,-0.3926885,1.431656,0.1369458,0.07468893,1.380453,-0.01263421,0.2293532,1.678112,-0.2006695,-0.3968795,1.423048,0.1002261,0.09220383,1.422563,-0.01073507,-0.184685,1.673182,-0.01059235,-0.4801054,1.645157,-0.1809721,-0.01341992,1.677216,-0.08905577,-0.4730341,1.612102,-0.2163667,-0.2267757,1.66506,0.2330932,-0.1763313,1.531186,NA,NA,Unknown,Unknown,
-0.9399414,0.2832031,0.2128906,-0.7705078,-0.3920898,0.5756836,-9,0,5,3,-7,-2,-1,-2,3,-6,-12,-12,2,14,12,2,-51.625,-51.625,-51.625,-79.375,-79.375,-79.375,7.224729,6.98312,6.720974,3.978417,6.240879,3.379051,-0.1693625,-0.3399752,1.393957,0.1463376,0.02755342,1.351529,-0.01264242,0.2296116,1.678349,-0.1952923,-0.3512244,1.371258,0.1088112,0.04309178,1.381941,-0.01021214,-0.1852281,1.673008,-0.007561002,-0.4834888,1.646092,-0.1811085,-0.01338418,1.676446,-0.08506536,-0.4763991,1.612988,-0.21809,-0.2224734,1.658018,0.2283155,-0.192297,1.54949,NA,NA,Unknown,Unknown,
-0.9228516,0.2939453,0.09716797,-0.8720703,-0.4482422,0.6425781,4,5,9,16,17,11,1,0,-1,0,8,20,9,-4,-19,-5,-45.5625,-45.5625,-45.5625,-69.5,-69.5,-69.5,6.889935,6.896828,6.41786,3.884757,6.336868,3.353353,-0.1706825,-0.2852384,1.36786,0.151397,-0.01878886,1.340734,-0.01275831,0.2298595,1.678619,-0.1931331,-0.2818864,1.347818,0.1166411,0.003264415,1.360135,-0.01013318,-0.1853922,1.672846,-0.007013271,-0.4839143,1.646466,-0.1812266,-0.01263272,1.674588,-0.08426894,-0.4766635,1.613201,-0.2193436,-0.2214439,1.651046,0.2249831,-0.1993643,1.559278,NA,NA,Unknown,Unknown,
-0.9228516,0.2939453,0.09716797,-0.8720703,-0.4482422,0.6425781,4,5,9,16,17,11,1,0,-2,5,5,-13,-5,-11,-6,-3,-45.5625,-45.5625,-45.5625,-69.5,-69.5,-69.5,6.889935,6.896828,6.41786,3.884757,6.336868,3.353353,-0.172072,-0.242481,1.340965,0.1500953,-0.05742255,1.333717,-0.01302913,0.2301469,1.678953,-0.195622,-0.2388183,1.329,0.1155626,-0.03797884,1.346957,-0.01010235,-0.1853791,1.672814,-0.006386156,-0.483867,1.647125,-0.181064,-0.0117427,1.673263,-0.08350144,-0.4764983,1.613377,-0.2297083,-0.2180942,1.645182,0.2233075,-0.2012327,1.556616,NA,NA,Unknown,Unknown,
-0.9238281,0.2646484,0.08056641,-0.8959961,-0.449707,0.5043945,7,-3,0,2,4,0,-1,0,-5,1,-1,-4,-16,-11,6,2,-37.5625,-37.5625,-37.5625,-45.625,-45.625,-45.625,6.655445,6.819719,6.210833,3.799747,6.425649,3.320072,-0.1744264,-0.2049687,1.331967,0.1527555,-0.09883498,1.334976,-0.01359676,0.2304215,1.679242,-0.1899688,-0.2273629,1.303167,0.114306,-0.07240527,1.3325,-0.009903123,-0.1853107,1.672622,-0.005082677,-0.4836538,1.647647,-0.1792867,-0.01215046,1.670005,-0.08195085,-0.4763137,1.613511,-0.2355852,-0.2163632,1.63976,0.227091,-0.1943057,1.560578,NA,NA,Unknown,Unknown,
-0.8120117,0.2749023,0.06396484,-0.9023438,-0.4882813,0.5869141,0,1,2,4,1,-15,-8,-11,1,-3,-6,-6,-6,-9,-2,3,-18.875,-18.875,-18.875,-18.8125,-18.8125,-18.8125,6.526077,6.767098,6.09218,3.759427,6.500303,3.30066,-0.1731514,-0.1788177,1.337669,0.1521801,-0.1296139,1.334835,-0.01385906,0.2306478,1.679487,-0.1950376,-0.1947741,1.30584,0.1109872,-0.1002809,1.3234,-0.009756496,-0.1854028,1.67245,-0.004367325,-0.483977,1.64782,-0.1775834,-0.01318823,1.666835,-0.08113619,-0.4765593,1.613479,-0.2792671,-0.1970991,1.62273,0.2370926,-0.1966901,1.577967,NA,NA,Unknown,Unknown,
-0.8764648,0.2675781,0.2006836,-0.9770508,-0.472168,0.4741211,83,7,15,-23,-15,-11,-18,10,-19,-23,-28,-32,-20,-20,-24,-10,-3.4375,-3.4375,-3.4375,7.625,7.625,7.625,6.485132,6.748062,6.052729,3.734061,6.594139,3.25789,-0.1724177,-0.1644266,1.343661,0.1561668,-0.1609585,1.343399,-0.01395115,0.2307579,1.679696,-0.1817609,-0.1886983,1.2924,0.1193286,-0.1281405,1.313286,-0.009288527,-0.1855158,1.672185,-0.003424727,-0.4844077,1.648059,-0.1752924,-0.01385775,1.663209,-0.08006055,-0.477001,1.61347,-0.2066758,-0.2367355,1.571584,0.2371324,-0.1957189,1.57363,NA,NA,Unknown,Unknown,
-0.8413086,0.3056641,-0.03076172,-0.9628906,-0.4980469,0.4785156,-20,-7,3,16,16,1,-7,-3,0,-2,-7,-20,-16,-17,-19,0,-34.25,-34.25,-34.25,7.9375,7.9375,7.9375,6.528686,6.781779,6.121553,3.727682,6.616632,3.245286,-0.1649756,-0.1599353,1.345495,0.1547704,-0.1972712,1.340537,-0.01392581,0.2309833,1.679847,-0.1853859,-0.1750526,1.3037,0.118943,-0.1664962,1.311824,-0.008079535,-0.1855062,1.671185,-0.001896385,-0.4847512,1.64785,-0.1734341,-0.01510037,1.65992,-0.07812452,-0.4773961,1.612869,-0.2046109,-0.2366522,1.569836,0.2542586,-0.1978487,1.614156,NA,NA,Unknown,Unknown,
-0.8789063,0.1689453,0.1557617,-0.9682617,-0.4746094,0.4213867,-20,-7,-2,-2,-10,0,5,4,-1,-6,-8,-4,-2,2,-23,2,-10.6875,-10.6875,-10.6875,16.375,16.375,16.375,6.515862,6.813651,6.141673,3.72483,6.654771,3.220556,-0.1599047,-0.1659093,1.34563,0.1623009,-0.2008154,1.289544,-0.01389145,0.2311159,1.679804,-0.1749662,-0.1879193,1.291934,0.133068,-0.182938,1.2965,-0.007254399,-0.1853155,1.670555,-0.0009742765,-0.484638,1.647499,-0.1730669,-0.0153096,1.659231,-0.07699665,-0.4774123,1.612199,-0.2213021,-0.2161935,1.593333,0.2491405,-0.2018,1.6163,NA,NA,Unknown,Unknown,
-0.9355469,0.3554688,0.1523438,-0.9506836,-0.4624023,0.4150391,55,6,-10,-3,1,0,2,0,-1,-8,-2,2,-10,-7,47,2,16.5625,16.5625,16.5625,9.875,9.875,9.875,6.551245,6.83596,6.159213,3.714123,6.675832,3.195965,-0.1565019,-0.1719075,1.344286,0.1668237,-0.2134298,1.288053,-0.0138498,0.2311804,1.679722,-0.1662326,-0.1973708,1.282778,0.1392927,-0.1972843,1.2945,-0.00666686,-0.1850982,1.669983,-0.0003904661,-0.4843905,1.647205,-0.1722383,-0.01552783,1.658337,-0.07620577,-0.4769771,1.611654,-0.2484854,-0.2196932,1.569583,0.2282266,-0.2125246,1.621988,NA,NA,Unknown,Unknown,
-0.9560547,0.3486328,0.2446289,-0.9399414,-0.3964844,0.3959961,28,5,-9,-19,-8,-13,-32,-8,6,9,7,4,-2,0,9,19,13.625,13.625,13.625,3.625,3.625,3.625,6.568278,6.861585,6.159128,3.714467,6.682936,3.187935,-0.1532477,-0.1770094,1.343888,0.1606029,-0.2345947,1.346222,-0.0135374,0.2312258,1.679744,-0.1710421,-0.1932309,1.300367,0.1226793,-0.2040138,1.319636,-0.006206138,-0.1850012,1.669561,-1.656359E-06,-0.4842246,1.646893,-0.1717257,-0.01554867,1.658027,-0.07568024,-0.4765688,1.61111,-0.2483956,-0.2196168,1.569727,0.2236984,-0.2147725,1.622543,NA,NA,Unknown,Unknown,
-0.9643555,0.4448242,0.2348633,-0.9384766,-0.4106445,0.3774414,-2,-8,-11,-8,-1,13,12,-8,-7,-5,3,19,10,-3,-6,-26,9.1875,9.1875,9.1875,-7.0625,-7.0625,-7.0625,6.596099,6.878532,6.174798,3.704369,6.680968,3.182801,-0.1512667,-0.177821,1.333167,0.1613874,-0.2399319,1.347497,-0.01321089,0.2312739,1.679559,-0.1626865,-0.2104275,1.289812,0.1255717,-0.2096004,1.32472,-0.005459714,-0.1849106,1.668818,0.0009481559,-0.4840621,1.6464,-0.1709349,-0.01603149,1.656941,-0.07459112,-0.4762607,1.61024,-0.2474577,-0.2182852,1.57681,0.2298446,-0.213225,1.622102,NA,NA,Unknown,Unknown,
-0.9506836,0.4072266,0.2485352,-0.9389648,-0.3930664,0.3730469,0,4,-4,-2,5,-3,-3,1,-10,-9,-13,-10,-5,2,40,4,0.5625,0.5625,0.5625,5.5,5.5,5.5,6.596008,6.878378,6.171371,3.706439,6.668811,3.183474,-0.1482434,-0.1843021,1.341407,0.1629394,-0.2414565,1.347854,-0.01294012,0.2312268,1.679359,-0.1664722,-0.2104587,1.302583,0.1279516,-0.2120261,1.323429,-0.004713675,-0.1849655,1.668026,0.001627578,-0.4839096,1.64572,-0.1697977,-0.01628634,1.656221,-0.07392678,-0.4760008,1.609471,-0.2285931,-0.2175529,1.606175,0.2313953,-0.2131556,1.621647,NA,NA,Unknown,Unknown,
-0.9501953,0.3823242,0.2294922,-0.9067383,-0.3618164,0.3681641,16,-2,-9,-7,-1,0,-1,9,-8,0,-1,-1,3,2,-2,4,-10.25,-10.25,-10.25,4.875,4.875,4.875,6.585734,6.873703,6.169168,3.719835,6.654474,3.191065,-0.1470492,-0.1835201,1.339967,0.1651068,-0.2408278,1.348176,-0.01231362,0.2313034,1.678972,-0.1552926,-0.2132687,1.280286,0.1282253,-0.20893,1.323089,-0.003929279,-0.1848485,1.667343,0.002147811,-0.4838931,1.645162,-0.1693046,-0.01645569,1.655799,-0.07337749,-0.4757831,1.608708,-0.2545919,-0.2228181,1.58588,0.2343377,-0.2125833,1.620896,NA,NA,Unknown,Unknown,
-0.9272461,0.3408203,0.2353516,-0.8901367,-0.3632813,0.3383789,3,-3,2,4,4,7,6,3,3,5,6,1,10,9,2,5,-7.6875,-7.6875,-7.6875,4.6875,4.6875,4.6875,6.566289,6.865234,6.159743,3.729356,6.643497,3.196582,-0.1457278,-0.182684,1.338181,0.1677621,-0.2319546,1.345917,-0.01124925,0.2312859,1.678038,-0.1639564,-0.2096919,1.30475,0.1285912,-0.2033478,1.317105,-0.002577749,-0.1849544,1.665919,0.003593673,-0.4839136,1.643415,-0.1680303,-0.01705894,1.654431,-0.07189715,-0.4755321,1.606562,-0.252614,-0.2220031,1.587487,0.2377467,-0.2122678,1.621756,NA,NA,Unknown,Unknown,
-0.9091797,0.3325195,0.2128906,-0.9086914,-0.359375,0.3007813,-5,-5,-4,-4,-2,-3,0,3,0,-2,-2,-5,-5,-4,-7,1,-0.375,-0.375,-0.375,11.1875,11.1875,11.1875,6.561671,6.860168,6.154897,3.734665,6.635539,3.192844,-0.1473561,-0.1807576,1.334918,0.1686944,-0.2239928,1.337111,-0.01074773,0.2311778,1.677787,-0.155363,-0.210778,1.279556,0.1315937,-0.1963176,1.314541,-0.001877319,-0.1851602,1.664977,0.004188431,-0.48407,1.642479,-0.1668193,-0.01784093,1.653102,-0.07134375,-0.4755236,1.605557,-0.2535331,-0.2223781,1.588252,0.2390969,-0.2121557,1.620969,NA,NA,Unknown,Unknown,
-0.9057617,0.3198242,0.1713867,-0.8974609,-0.328125,0.2871094,-3,5,10,15,0,2,-1,1,-4,-4,-5,-4,-4,-4,-1,-2,2.9375,2.9375,2.9375,9.125,9.125,9.125,6.565642,6.847465,6.149619,3.733623,6.643209,3.178868,-0.1479813,-0.1800544,1.333618,0.1693419,-0.2184108,1.324865,-0.009955782,0.2310935,1.677514,-0.1632374,-0.2039907,1.29272,0.1307359,-0.1913058,1.311955,-0.00144043,-0.1850265,1.664524,0.004401251,-0.4838866,1.641926,-0.1665502,-0.01772546,1.652892,-0.0711422,-0.4752631,1.604958,-0.2463127,-0.2206835,1.578865,0.2399376,-0.2123665,1.620565,NA,NA,Unknown,Unknown,
-0.8925781,0.2993164,0.1450195,-0.8842773,-0.3168945,0.2836914,-3,3,2,3,1,-2,-2,0,-3,-2,-5,-15,-7,-6,-4,-2,0.8125,0.8125,0.8125,6.375,6.375,6.375,6.568989,6.849325,6.150875,3.730068,6.653364,3.170875,-0.1488701,-0.1818774,1.330835,0.1703105,-0.2178746,1.319047,-0.009623681,0.2311438,1.677518,-0.1632677,-0.2116408,1.292918,0.1308282,-0.189321,1.312955,-0.001130414,-0.1850475,1.664283,0.004961002,-0.4838993,1.641487,-0.1662713,-0.01783673,1.652592,-0.07061286,-0.4751924,1.604484,-0.2426962,-0.2196009,1.572646,0.2405485,-0.2123366,1.620672,NA,NA,Unknown,Unknown,
-0.8901367,0.3037109,0.1499023,-0.9208984,-0.3310547,0.2539063,4,2,6,7,8,5,3,4,-6,-4,0,-2,0,3,1,0,1.9375,1.9375,1.9375,7.125,7.125,7.125,6.577362,6.853575,6.157948,3.710871,6.687769,3.14202,-0.1505142,-0.1876206,1.322708,0.1709031,-0.2265796,1.297,-0.009227294,0.231278,1.677341,-0.1634111,-0.2219602,1.289286,0.1350918,-0.1945556,1.288,-0.0009464012,-0.1849364,1.663838,0.004981501,-0.4837479,1.641088,-0.1655701,-0.01764737,1.651703,-0.07059603,-0.4750087,1.603997,-0.2448716,-0.2166095,1.582511,0.2411794,-0.2120276,1.620811,NA,NA,Unknown,Unknown,
-0.8891602,0.3100586,0.1518555,-0.9047852,-0.3203125,0.2729492,1,0,-2,1,-2,-2,-1,1,-18,-6,-2,2,12,-15,-17,-9,4.5625,4.5625,4.5625,9.1875,9.1875,9.1875,6.613517,6.868564,6.191554,3.676777,6.733204,3.091916,-0.1512191,-0.203973,1.318038,0.1649502,-0.2404782,1.299088,-0.008786895,0.2314845,1.677169,-0.1582435,-0.2373139,1.2925,0.135139,-0.2029298,1.289091,-0.0008522836,-0.1847574,1.663529,0.005084794,-0.4835801,1.640721,-0.165076,-0.01733835,1.650844,-0.07049759,-0.4748013,1.603554,-0.2438307,-0.2144245,1.586156,0.2326755,-0.215447,1.620371,NA,NA,Unknown,Unknown,
-0.9282227,0.2929688,0.1674805,-0.9165039,-0.296875,0.2646484,-3,-2,-8,-8,-5,-1,-1,-1,0,-4,-2,8,-5,1,6,1,8.5,8.5,8.5,-11.1875,-11.1875,-11.1875,6.685304,6.889744,6.260041,3.590259,6.790739,3.003327,-0.1493892,-0.2248151,1.316303,0.1637652,-0.2467152,1.318595,-0.008343936,0.2315083,1.67707,-0.1667936,-0.2455138,1.301471,0.1335327,-0.2158137,1.324118,-0.0004847732,-0.1846105,1.662887,0.005678478,-0.4832977,1.639921,-0.1648381,-0.01711799,1.650043,-0.07002734,-0.4746462,1.602749,-0.2411877,-0.2116026,1.596231,0.2293405,-0.2164205,1.620784,NA,NA,Closed,Unknown,
-0.9487305,0.3212891,0.1376953,-0.8769531,-0.2666016,0.1811523,4,8,14,8,7,3,1,2,1,-1,-5,-9,-5,1,-7,-3,31.3125,31.3125,31.3125,-29,-29,-29,6.830355,6.915212,6.387566,3.457315,6.861273,2.885742,-0.1468547,-0.2515221,1.323708,0.1635322,-0.2670449,1.327635,-0.007500212,0.231863,1.676807,-0.1416973,-0.2861784,1.308455,0.1758567,-0.2387517,1.318781,-0.000208375,-0.1843976,1.662093,0.006001332,-0.4831614,1.639196,-0.1647044,-0.01671555,1.64938,-0.06976651,-0.4745406,1.602084,-0.2415119,-0.2112666,1.596873,0.2336734,-0.2150051,1.620115,NA,NA,Closed,Unknown,
-0.8691406,0.371582,0.06591797,-0.9882813,-0.3266602,0.2490234,-1,-4,-6,-9,-6,-3,-4,-2,1,-1,2,5,13,8,-7,0,54.1875,54.1875,54.1875,-58,-58,-58,7.062749,6.939651,6.576445,3.314151,6.906608,2.794006,-0.1476364,-0.3235815,1.358308,0.1645124,-0.3196613,1.352648,-0.00691353,0.2322379,1.676785,-0.1147342,-0.340826,1.4095,0.1852473,-0.2908996,1.33216,0.0004469108,-0.1842163,1.660956,0.007187381,-0.4831779,1.638049,-0.164544,-0.01641967,1.648024,-0.06860194,-0.4748756,1.601402,-0.2413699,-0.2124234,1.604696,0.2337197,-0.215068,1.62486,NA,NA,Closed,Closed,
-0.9018555,0.3486328,0.1313477,-1.009277,-0.3730469,0.230957,8,8,26,41,17,8,3,3,1,3,3,6,3,-2,-13,-2,55.125,55.125,55.125,-53.4375,-53.4375,-53.4375,7.268009,6.944621,6.730955,3.2448,6.925675,2.750975,-0.1503685,-0.3623812,1.381581,0.1643646,-0.3469587,1.368116,-0.006793044,0.2324113,1.676801,-0.1177306,-0.3995199,1.4504,0.1812649,-0.316537,1.341715,0.0006265171,-0.1840962,1.66026,0.00751845,-0.4833778,1.637415,-0.1646922,-0.01636607,1.647633,-0.06815844,-0.4754205,1.600947,-0.2428561,-0.2123174,1.608274,0.2361827,-0.2221278,1.628951,NA,NA,Closed,Closed,
-0.9736328,0.1767578,0.1147461,-1.005371,-0.3745117,0.1547852,0,6,3,-6,1,1,2,1,-6,-9,-10,-6,-4,-6,-10,-2,52.625,52.625,52.625,-17.875,-17.875,-17.875,7.428284,6.958306,6.842622,3.115262,6.957806,2.645028,-0.1515189,-0.4052855,1.407858,0.1634521,-0.3758211,1.384443,-0.006707774,0.232544,1.676732,-0.109888,-0.4172679,1.47492,0.179524,-0.3466817,1.357643,0.0003911594,-0.18399,1.659412,0.007194571,-0.4834133,1.636585,-0.1656271,-0.01570315,1.647489,-0.06837559,-0.4756406,1.600507,-0.2249847,-0.2189395,1.61511,0.2370145,-0.223342,1.631355,NA,NA,Closed,Closed,
-1.026855,0.2387695,0.05957031,-1.009766,-0.3110352,0.2060547,-6,-14,-20,-24,-13,-8,-4,-2,4,6,12,18,11,4,1,2,66.375,66.375,66.375,-8.25,-8.25,-8.25,7.603817,6.978821,6.954662,3.044917,6.983432,2.579278,-0.1499671,-0.4329965,1.447916,0.1640448,-0.4026446,1.403317,-0.006491315,0.2326405,1.676822,-0.1869492,-0.4949809,1.458,0.1511523,-0.384556,1.357235,5.274035E-05,-0.1842579,1.658581,0.006563185,-0.4842055,1.635451,-0.1657988,-0.01579584,1.647283,-0.06893132,-0.4761234,1.599768,-0.220186,-0.2207565,1.619885,0.2219544,-0.2212138,1.63398,NA,NA,Unknown,Closed,
-1.005859,0.2988281,0.01708984,-0.9833984,-0.2807617,0.08447266,-4,-10,-13,-12,-10,-5,-4,-1,-6,-7,-10,-5,-8,-4,13,-5,63.0625,63.0625,63.0625,-7,-7,-7,7.685298,6.979167,7.004405,2.961781,7.009923,2.499014,-0.1681103,-0.457654,1.454422,0.1657215,-0.4251286,1.420263,-0.006469102,0.2327162,1.676812,-0.1372518,-0.444841,1.474429,0.1375249,-0.4186555,1.385623,-0.0006411112,-0.1848235,1.65748,0.004832687,-0.48579,1.633754,-0.1661114,-0.01604888,1.646771,-0.07062192,-0.4771611,1.598538,-0.2176865,-0.2227639,1.623064,0.2178485,-0.2225966,1.634318,NA,NA,Unknown,Unknown,
-0.9780273,0.3564453,-0.08642578,-0.9985352,-0.2758789,0.07470703,-2,-1,0,1,-1,-6,-13,-8,-2,-5,-4,-1,-3,-1,-4,-2,57.5,57.5,57.5,-25.8125,-25.8125,-25.8125,7.835581,6.982052,7.093241,2.881919,7.030981,2.44024,-0.1765941,-0.478859,1.479211,0.1662923,-0.4466881,1.443141,-0.006422704,0.2328973,1.676826,-0.1529665,-0.4623602,1.458704,0.1120407,-0.4390688,1.510786,-0.00089803,-0.1848447,1.657233,0.004191294,-0.4861984,1.633585,-0.1661784,-0.01610983,1.646441,-0.07125001,-0.4774128,1.598501,-0.2156888,-0.2354471,1.625679,0.2150841,-0.2245879,1.635578,NA,NA,Unknown,Unknown,
-0.9384766,0.1152344,-0.1787109,-1.007813,-0.3364258,0.04492188,-11,-2,-1,-4,-6,-13,-12,-14,-1,0,-2,-2,-2,-2,14,-4,62.625,62.625,62.625,-33.375,-33.375,-33.375,8.002946,7.004231,7.19895,2.797336,7.043759,2.388978,-0.1839025,-0.498063,1.503646,0.1767175,-0.4604745,1.455917,-0.006423391,0.2330199,1.676813,-0.1525942,-0.4841537,1.491432,0.1475138,-0.4486838,1.4385,-0.001349502,-0.1851626,1.656807,0.002652396,-0.487582,1.633532,-0.1665153,-0.01672489,1.645401,-0.07274491,-0.4783602,1.598526,-0.2145351,-0.2422234,1.627728,0.2131913,-0.2272737,1.635708,NA,NA,Unknown,Unknown,
-1.010742,0.234375,-0.2700195,-0.9946289,-0.3203125,0.001953125,1,-2,0,2,8,22,14,2,-1,0,0,1,-1,2,11,-2,73.3125,73.3125,73.3125,-24.125,-24.125,-24.125,8.249557,7.024776,7.367343,2.735878,7.048888,2.356702,-0.1975476,-0.5219297,1.551341,0.1848114,-0.4930032,1.486937,-0.006338629,0.2332016,1.676736,-0.1653341,-0.507434,1.541343,0.153511,-0.4825617,1.474594,-0.001819518,-0.1855075,1.656623,0.001774622,-0.4887826,1.634309,-0.1668933,-0.01731737,1.644474,-0.07362587,-0.4794753,1.599195,-0.2135263,-0.2538604,1.633442,0.2100066,-0.2363102,1.6364,NA,NA,NotTracked,Unknown,
-0.9648438,0.4018555,-0.2519531,-0.9936523,-0.2514648,-0.0625,3,-1,-2,-2,-3,-5,-5,3,4,4,1,2,-3,-2,-13,6,22.5625,22.5625,22.5625,-28.25,-28.25,-28.25,8.444709,7.030307,7.528262,2.65725,7.057906,2.306582,-0.2013102,-0.5264732,1.569246,0.189307,-0.5052725,1.50186,-0.006330225,0.2332233,1.67672,-0.1606968,-0.5161898,1.567937,0.1586417,-0.4929179,1.49125,-0.001880159,-0.1857248,1.6566,0.001553812,-0.489533,1.635119,-0.1673104,-0.01811104,1.643953,-0.07376184,-0.4801559,1.599832,-0.2131223,-0.2592087,1.63805,0.2089511,-0.2407996,1.636588,NA,NA,NotTracked,Unknown,
-0.9692383,0.3388672,-0.2021484,-1.018555,-0.2739258,-0.07421875,-1,2,1,-3,-5,-10,-6,-2,-24,-13,-7,-4,-3,-2,3,-20,-4.125,-4.125,-4.125,-21.5,-21.5,-21.5,8.512254,7.036217,7.601686,2.564348,7.071222,2.241347,-0.2009803,-0.5274351,1.585736,0.1931684,-0.5169946,1.517461,-0.006369045,0.2332845,1.676675,-0.1550843,-0.4883361,1.580375,0.1643788,-0.498135,1.505286,-0.001962468,-0.1858148,1.656667,0.001522611,-0.4899868,1.636162,-0.1674905,-0.01815051,1.64394,-0.07373895,-0.4803683,1.600467,-0.2124114,-0.2637616,1.643026,0.20842,-0.2449659,1.637275,NA,NA,NotTracked,NotTracked,
-0.9584961,0.2241211,-0.1918945,-0.9819336,-0.3017578,-0.09912109,0,1,0,0,-1,-5,-3,-2,-12,-3,-3,-4,-1,-3,-3,-18,-38.25,-38.25,-38.25,2.75,2.75,2.75,8.630684,7.042949,7.762995,2.470606,7.088137,2.149086,-0.200654,-0.5270203,1.595763,0.1963035,-0.5226567,1.531302,-0.006531665,0.2333737,1.676385,-0.1527588,-0.4906752,1.575934,0.1641322,-0.5149713,1.517852,-0.002077722,-0.1859608,1.656727,0.001189781,-0.4905074,1.637667,-0.1676237,-0.0181833,1.643876,-0.07390184,-0.4806514,1.601591,-0.2115811,-0.2649303,1.647417,0.2079004,-0.2472131,1.637636,NA,NA,NotTracked,NotTracked,
-1.005371,0.2138672,-0.1860352,-0.972168,-0.2485352,-0.03076172,12,5,2,4,10,22,53,49,24,13,6,-3,2,3,5,29,-41.125,-41.125,-41.125,17.9375,17.9375,17.9375,8.721823,7.042933,7.905064,2.395137,7.099863,2.055122,-0.1998825,-0.5273263,1.603253,0.1976144,-0.5265142,1.544665,-0.006773061,0.2333993,1.676215,-0.1545568,-0.4991986,1.581318,0.1466786,-0.4781096,1.550667,-0.002234983,-0.1862002,1.656832,0.001033437,-0.4910596,1.638708,-0.1682243,-0.01889278,1.643989,-0.07402228,-0.481366,1.60296,-0.2110388,-0.2666436,1.651649,0.2074189,-0.2494894,1.638583,NA,NA,NotTracked,NotTracked,
-0.9584961,0.190918,-0.15625,-0.9873047,-0.199707,-0.005371094,-4,-4,-1,-1,-5,-9,-10,-4,-8,-6,-6,-3,-3,-3,-8,-5,-33.25,-33.25,-33.25,14.9375,14.9375,14.9375,8.788014,7.051826,8.016416,2.344718,7.113833,1.983876,-0.1995765,-0.5329204,1.610365,0.1994469,-0.527708,1.56425,-0.007717305,0.2335345,1.675443,-0.1544542,-0.514876,1.584864,0.1479894,-0.4805641,1.555676,-0.00253313,-0.186507,1.657073,0.0006571057,-0.4916294,1.640447,-0.1694068,-0.01936758,1.644622,-0.07438654,-0.4818712,1.604895,-0.2096195,-0.2691751,1.659781,0.2066144,-0.252016,1.641518,NA,NA,NotTracked,NotTracked,
-0.9384766,0.2280273,-0.1787109,-0.9741211,-0.2563477,-0.02832031,-6,-4,-2,-2,-5,-12,-18,-16,-8,-11,-7,-4,-3,3,24,-11,-32.25,-32.25,-32.25,8.125,8.125,8.125,8.816238,7.053794,8.064997,2.291019,7.123089,1.91832,-0.1992529,-0.5334443,1.612343,0.1991237,-0.5284638,1.570419,-0.008168021,0.2335845,1.675035,-0.1554604,-0.5140186,1.587577,0.1521675,-0.4899641,1.564,-0.002714851,-0.1866201,1.657187,0.0002824092,-0.4917997,1.641561,-0.169636,-0.01941803,1.64487,-0.07474943,-0.4823076,1.606539,-0.2088827,-0.2715891,1.663459,0.2056976,-0.2542815,1.644256,NA,NA,NotTracked,NotTracked,
-0.9667969,0.2255859,-0.1679688,-1.015625,-0.2685547,-0.01025391,-1,-2,-1,-4,-2,-3,-10,-6,-1,-1,-1,-3,-2,0,-9,5,-37.75,-37.75,-37.75,19.5625,19.5625,19.5625,8.837367,7.056465,8.130362,2.280119,7.126567,1.887829,-0.1988345,-0.5344113,1.613765,0.1999246,-0.5298269,1.576527,-0.008537497,0.2335738,1.674708,-0.1538507,-0.5222298,1.587278,0.1532316,-0.4897321,1.5691,-0.002956463,-0.1866914,1.657454,-2.205243E-05,-0.4919057,1.642682,-0.1699215,-0.01960593,1.645398,-0.07506366,-0.4826432,1.608027,-0.2085284,-0.2728203,1.665982,0.2045973,-0.2560444,1.646262,NA,NA,NotTracked,NotTracked,
-0.980957,0.184082,-0.1494141,-0.9921875,-0.2172852,-0.05761719,-1,0,-1,-1,-1,2,3,0,-8,1,1,2,2,-2,-1,-11,-32.1875,-32.1875,-32.1875,6.625,6.625,6.625,8.843265,7.059641,8.155453,2.278978,7.1329,1.873117,-0.1987771,-0.5348693,1.61617,0.1998645,-0.5293313,1.581843,-0.00873441,0.2336832,1.674636,-0.155662,-0.5173708,1.589693,0.1529678,-0.4921217,1.568625,-0.003056369,-0.186836,1.65791,-0.000178225,-0.4920636,1.643909,-0.17023,-0.01951363,1.646002,-0.07518701,-0.4826866,1.609169,-0.2074356,-0.2753493,1.669586,0.2037967,-0.2581657,1.649802,NA,NA,NotTracked,NotTracked,
-0.9667969,0.1733398,-0.15625,-0.9975586,-0.2529297,-0.05761719,-2,-4,-5,-3,0,7,8,16,3,3,0,-3,0,13,47,-7,-6.25,-6.25,-6.25,-11.8125,-11.8125,-11.8125,8.856956,7.06733,8.18576,2.265994,7.134457,1.869896,-0.1976492,-0.535298,1.61627,0.200211,-0.5301678,1.584598,-0.008889641,0.2336742,1.67458,-0.1552273,-0.5149655,1.587722,0.1533327,-0.4943073,1.5702,-0.00325054,-0.1870995,1.658436,-0.0003779436,-0.4923213,1.644868,-0.1705528,-0.01943631,1.646906,-0.07544137,-0.4830655,1.61063,-0.207055,-0.2748394,1.670823,0.2030363,-0.2596936,1.651783,NA,NA,NotTracked,NotTracked,
-0.9648438,0.1723633,-0.1860352,-0.9902344,-0.2490234,-0.05615234,-1,0,-2,-2,-2,-4,-2,-2,30,18,6,1,1,3,13,25,14.0625,14.0625,14.0625,-13.0625,-13.0625,-13.0625,8.861968,7.079102,8.169723,2.257978,7.133167,1.877499,-0.1970512,-0.5352618,1.61602,0.2009529,-0.5308414,1.587132,-0.008920744,0.2336754,1.674553,-0.1558328,-0.5082366,1.589501,0.1532724,-0.4953795,1.573,-0.003495997,-0.1874864,1.659363,-0.0006308454,-0.4926869,1.64665,-0.170346,-0.01915174,1.647011,-0.07563111,-0.4834229,1.61246,-0.206737,-0.2753422,1.671734,0.2026913,-0.2603868,1.65314,NA,NA,NotTracked,NotTracked,
-0.9516602,0.1806641,-0.2231445,-1.010254,-0.2373047,-0.06542969,-1,-2,-2,-2,-1,-4,-3,-3,7,4,3,-1,-1,-1,-14,15,12.875,12.875,12.875,-10.9375,-10.9375,-10.9375,8.860918,7.079343,8.161018,2.253659,7.13195,1.879528,-0.1968278,-0.5349923,1.615078,0.201179,-0.5316471,1.588736,-0.009355053,0.2336548,1.674138,-0.1537606,-0.52276,1.589437,0.1547711,-0.5068612,1.582273,-0.003796411,-0.1876673,1.659883,-0.0008966921,-0.4927461,1.6476,-0.1707677,-0.01917314,1.647934,-0.07586313,-0.4834514,1.613397,-0.2064062,-0.2757999,1.672442,0.2023918,-0.2607402,1.65404,NA,NA,NotTracked,NotTracked,
-0.9716797,0.1616211,-0.2216797,-0.9926758,-0.2148438,-0.07617188,0,1,0,-1,1,2,3,0,1,-1,-2,-3,-1,-4,-16,4,8.9375,8.9375,8.9375,-11.25,-11.25,-11.25,8.844248,7.082795,8.126514,2.24136,7.132987,1.879833,-0.1965763,-0.5352823,1.615843,0.1998533,-0.5327639,1.592487,-0.009559385,0.2335166,1.674137,-0.1545949,-0.5144738,1.588942,0.154445,-0.5108175,1.584,-0.004036785,-0.1879411,1.661336,-0.001153985,-0.4925911,1.649618,-0.1712013,-0.01906818,1.650192,-0.07606497,-0.4831167,1.615242,-0.2058001,-0.2755157,1.673621,0.2018809,-0.2616901,1.656577,NA,NA,NotTracked,NotTracked,
-0.9638672,0.1601563,-0.237793,-0.9760742,-0.2324219,-0.06640625,-1,-1,-1,-1,0,-2,-4,-4,-9,-2,0,0,0,0,-5,-18,8.375,8.375,8.375,-9.5,-9.5,-9.5,8.842575,7.082354,8.119551,2.228454,7.132795,1.879108,-0.1965794,-0.5346692,1.614593,0.1995273,-0.5327757,1.592793,-0.009675128,0.2334721,1.674161,-0.1540876,-0.5251284,1.591733,0.1538871,-0.5016848,1.578869,-0.00414321,-0.18804,1.662186,-0.001021075,-0.4924899,1.650739,-0.1712141,-0.01909336,1.651536,-0.07590654,-0.4829289,1.616234,-0.2057213,-0.2754015,1.673882,0.201745,-0.2620418,1.657567,NA,NA,NotTracked,NotTracked,
-0.9702148,0.1743164,-0.2138672,-0.9731445,-0.2216797,-0.06445313,1,0,1,1,2,0,-1,-1,-29,-18,-7,0,-1,-4,-13,-42,2.75,2.75,2.75,-3.75,-3.75,-3.75,8.824944,7.081451,8.095737,2.221851,7.13532,1.882167,-0.1968404,-0.5347489,1.615649,0.1989128,-0.5315394,1.594468,-0.009870132,0.2333997,1.674273,-0.1540997,-0.498403,1.5914,0.1548458,-0.4869558,1.584,-0.004390188,-0.1885612,1.66473,-0.0005486973,-0.4928187,1.654582,-0.1716448,-0.01949482,1.653176,-0.07539502,-0.4833436,1.620239,-0.2054222,-0.2762991,1.675238,0.2016663,-0.2619308,1.659809,NA,NA,NotTracked,NotTracked,
-0.9726563,0.1713867,-0.1948242,-0.9985352,-0.2202148,-0.06396484,-4,-2,-2,-2,-4,-9,-13,-8,6,1,0,-1,-1,1,1,16,-1.625,-1.625,-1.625,-10,-10,-10,8.789577,7.078384,8.061539,2.215744,7.134892,1.885655,-0.1970008,-0.535004,1.616113,0.1983263,-0.5321229,1.596773,-0.00991966,0.2333426,1.674395,-0.1546336,-0.4978697,1.595304,0.1546506,-0.4826455,1.5834,-0.004670592,-0.1887201,1.666398,-0.0009928971,-0.4929509,1.656853,-0.1720335,-0.01970104,1.655257,-0.07578605,-0.4833996,1.622714,-0.2054995,-0.276593,1.675751,0.2015631,-0.2620445,1.661249,NA,NA,NotTracked,NotTracked,
-0.9707031,0.1645508,-0.2119141,-0.9838867,-0.2314453,-0.07763672,7,1,-1,-1,-4,-2,-1,-6,12,0,-1,-1,-2,-8,-63,29,3.1875,3.1875,3.1875,-10.0625,-10.0625,-10.0625,8.78952,7.076013,8.058566,2.205384,7.13547,1.881026,-0.1968813,-0.5341659,1.61635,0.1971595,-0.5318522,1.59608,-0.009927383,0.2333646,1.674539,-0.1537862,-0.523869,1.600071,0.154822,-0.4887804,1.585999,-0.004867197,-0.188847,1.667713,-0.00108098,-0.4930691,1.658711,-0.1721518,-0.01962922,1.65579,-0.07592213,-0.4833959,1.624648,-0.2056583,-0.2761236,1.676619,0.2016235,-0.2623824,1.66257,NA,NA,NotTracked,NotTracked,
-0.9536133,0.1552734,-0.2026367,-0.987793,-0.2319336,-0.07226563,-4,0,-3,0,-2,1,-1,2,6,3,1,0,2,3,17,-1,5,5,5,-4.5625,-4.5625,-4.5625,8.790355,7.075104,8.056333,2.185033,7.135309,1.86789,-0.1968729,-0.5345849,1.617906,0.1971571,-0.5326382,1.597838,-0.009989035,0.2333393,1.67473,-0.1527457,-0.526116,1.601733,0.155392,-0.4814837,1.589445,-0.004998604,-0.1889448,1.669079,-0.001093836,-0.4932152,1.660637,-0.172305,-0.01942434,1.656935,-0.07601481,-0.4837765,1.626974,-0.2057519,-0.2753584,1.677607,0.2016128,-0.2623,1.663745,NA,NA,NotTracked,NotTracked,
-0.9545898,0.1699219,-0.2158203,-0.9892578,-0.2138672,-0.08007813,-1,-3,-3,-2,-1,0,2,-1,1,-1,-1,1,0,0,11,3,1.625,1.625,1.625,-6.0625,-6.0625,-6.0625,8.791755,7.071171,8.053768,2.147432,7.135806,1.837083,-0.1985665,-0.5352079,1.620473,0.1960433,-0.5301757,1.60186,-0.009864433,0.2332081,1.675227,-0.1554903,-0.5163441,1.608963,0.1529424,-0.4950179,1.590993,-0.00478851,-0.1891133,1.671713,-0.0005871746,-0.4931711,1.664455,-0.1725846,-0.0190319,1.659321,-0.07552096,-0.4837938,1.630878,-0.2062409,-0.2739486,1.679195,0.2011447,-0.2627541,1.666926,NA,NA,NotTracked,NotTracked,
-0.9575195,0.1582031,-0.203125,-0.9985352,-0.2167969,-0.08837891,-2,-1,-2,0,0,-1,-1,-3,-14,-11,-7,-3,-3,-5,-6,-17,-3.875,-3.875,-3.875,-6.125,-6.125,-6.125,8.791394,7.068984,8.055892,2.122768,7.136354,1.819956,-0.2003401,-0.5347348,1.621796,0.1952377,-0.5302284,1.603832,-0.009816744,0.2331511,1.675686,-0.1552633,-0.4911506,1.605294,0.1595306,-0.5039034,1.605271,-0.004817285,-0.1893808,1.673115,-0.0004554274,-0.4936086,1.66623,-0.1727775,-0.01872632,1.660601,-0.07536935,-0.4842051,1.63291,-0.2066089,-0.2725397,1.6805,0.2009196,-0.262558,1.668296,NA,NA,NotTracked,NotTracked,
-0.9692383,0.1655273,-0.2124023,-0.9995117,-0.2075195,-0.06396484,-2,-1,-2,-3,-2,1,-3,-2,-4,-7,-4,-2,-1,-4,-10,-2,-7.0625,-7.0625,-7.0625,-3.5625,-3.5625,-3.5625,8.79261,7.066595,8.063995,2.111761,7.137765,1.813521,-0.2002682,-0.5362578,1.624136,0.1956551,-0.5308585,1.606184,-0.009704811,0.2329517,1.676384,-0.1555373,-0.5170114,1.61325,0.1660583,-0.5089495,1.620806,-0.00500358,-0.1896283,1.674947,-0.0009242847,-0.493983,1.668616,-0.1728209,-0.01851611,1.66242,-0.07579084,-0.4843701,1.635405,-0.2067435,-0.2719059,1.681982,0.2007354,-0.2620561,1.669914,NA,NA,NotTracked,NotTracked,
-0.9575195,0.1669922,-0.2119141,-0.9863281,-0.2114258,-0.07568359,-1,0,-1,-2,0,-1,2,3,-10,-6,-3,-4,-3,-6,-15,-9,-7.3125,-7.3125,-7.3125,-1.375,-1.375,-1.375,8.795093,7.065333,8.074574,2.108967,7.139294,1.811723,-0.19992,-0.5365613,1.626359,0.1948193,-0.5329316,1.607821,-0.009672788,0.2327373,1.677264,-0.1558997,-0.52043,1.616267,0.1516958,-0.5063065,1.600125,-0.004861538,-0.1897016,1.676808,-0.0008347979,-0.4940051,1.670761,-0.1729714,-0.01778356,1.664778,-0.07571125,-0.484319,1.637661,-0.2068633,-0.2715781,1.683895,0.2006435,-0.2617013,1.67198,NA,NA,NotTracked,NotTracked,
-0.949707,0.1508789,-0.203125,-0.9921875,-0.2148438,-0.07617188,2,-1,-2,-2,0,0,3,3,-1,-2,-1,0,0,-1,-4,0,-1.0625,-1.0625,-1.0625,2.6875,2.6875,2.6875,8.799896,7.066374,8.082509,2.105984,7.140845,1.807077,-0.2006902,-0.5348633,1.627157,0.1939119,-0.530662,1.608853,-0.009626165,0.2327279,1.677907,-0.1556053,-0.5128303,1.613413,0.1513474,-0.4813291,1.596,-0.004832461,-0.1898607,1.67832,-0.0009046014,-0.4940995,1.672398,-0.1729752,-0.01761208,1.665851,-0.07577167,-0.484278,1.638993,-0.2070029,-0.2712411,1.685157,0.2005329,-0.2614954,1.673616,NA,NA,NotTracked,NotTracked,
-0.9609375,0.1811523,-0.2060547,-0.9858398,-0.2045898,-0.06933594,0,-2,0,-2,-3,-1,-1,-4,-1,-2,-1,-1,-1,1,3,-1,0.9375,0.9375,0.9375,3.5625,3.5625,3.5625,8.801389,7.066803,8.081882,2.110067,7.144859,1.804824,-0.2006359,-0.5343432,1.630668,0.1939857,-0.5312637,1.611581,-0.009656329,0.2326397,1.678521,-0.1561424,-0.5027372,1.617944,0.1645947,-0.5108535,1.623895,-0.004886653,-0.1902608,1.680503,-0.001006706,-0.4945112,1.675249,-0.1735192,-0.01762939,1.668366,-0.0758389,-0.4844767,1.641315,-0.2070192,-0.2710262,1.686612,0.2003771,-0.2615077,1.675742,NA,NA,NotTracked,NotTracked,
-0.9599609,0.1816406,-0.1943359,-0.9868164,-0.2182617,-0.06982422,0,-1,2,0,1,0,3,1,5,2,0,2,1,1,-5,9,-4.875,-4.875,-4.875,2.5,2.5,2.5,8.794481,7.068773,8.078749,2.111539,7.145904,1.803798,-0.2002232,-0.5344921,1.63268,0.1941326,-0.5316108,1.61412,-0.009428995,0.2323296,1.680407,-0.1569658,-0.5141531,1.623235,0.1628085,-0.5120727,1.626051,-0.004644827,-0.1907657,1.683414,-0.0008745878,-0.4947537,1.678825,-0.1737612,-0.01723197,1.671877,-0.07574924,-0.4845648,1.645426,-0.2071698,-0.2710788,1.69005,0.200244,-0.2607279,1.679261,NA,NA,NotTracked,NotTracked,
-0.9682617,0.1782227,-0.1875,-1.010742,-0.2011719,-0.05615234,-1,-1,-2,-3,-3,1,6,1,-13,-7,-1,-1,-3,-2,-5,-15,-0.5,-0.5,-0.5,2.625,2.625,2.625,8.782978,7.075208,8.071554,2.121986,7.148029,1.811122,-0.1989639,-0.5339407,1.634807,0.1930445,-0.5308943,1.615219,-0.009233007,0.2321474,1.681397,-0.1556765,-0.4984471,1.622812,0.1646502,-0.5107088,1.629969,-0.00467441,-0.1910827,1.685211,-0.0009997697,-0.4949109,1.681178,-0.1736127,-0.01688388,1.674292,-0.07592174,-0.4846799,1.648171,-0.2070761,-0.2705774,1.691267,0.2000568,-0.2605971,1.681095,NA,NA,NotTracked,NotTracked,
-0.9746094,0.1806641,-0.1894531,-1.001465,-0.2128906,-0.05419922,-2,0,1,0,0,-4,-8,-4,9,4,2,2,1,2,3,13,0.9375,0.9375,0.9375,-1.1875,-1.1875,-1.1875,8.780279,7.077301,8.068225,2.13522,7.149623,1.824866,-0.1978319,-0.5353134,1.636054,0.1936734,-0.5320116,1.61712,-0.009185695,0.2320985,1.682972,-0.1531655,-0.5106652,1.620363,0.1624673,-0.5066327,1.629364,-0.004901412,-0.1913186,1.687593,-0.001358615,-0.4951793,1.683667,-0.1738967,-0.01663462,1.676935,-0.07625746,-0.4849477,1.650683,-0.2071534,-0.270809,1.693359,0.1997714,-0.2611879,1.683443,NA,NA,NotTracked,NotTracked,
-0.9785156,0.1831055,-0.1835938,-0.9936523,-0.2246094,-0.04882813,-2,-1,-2,-2,-3,-4,-3,-3,-4,-1,-1,-2,-1,-1,-4,-10,2,2,2,-1.75,-1.75,-1.75,8.778328,7.079624,8.064997,2.143748,7.150735,1.834546,-0.1965545,-0.5349352,1.636928,0.1930305,-0.5325654,1.618842,-0.009223409,0.2319687,1.684688,-0.152735,-0.5103276,1.623726,0.1490375,-0.4859241,1.61,-0.004972827,-0.1913973,1.689433,-0.001178921,-0.4951378,1.685603,-0.1740871,-0.01669656,1.679693,-0.07605285,-0.4849732,1.653015,-0.2069125,-0.2719,1.695608,0.1996903,-0.2615692,1.685575,NA,NA,NotTracked,NotTracked,
-0.9638672,0.1826172,-0.1787109,-0.9990234,-0.2133789,-0.06054688,-2,-2,-2,-3,-3,-4,-11,-7,-2,-1,-2,-2,-3,-1,1,0,3.1875,3.1875,3.1875,-1.5625,-1.5625,-1.5625,8.773765,7.085321,8.057092,2.16,7.153477,1.85294,-0.195727,-0.5343986,1.63746,0.1918367,-0.5325822,1.618676,-0.009132607,0.2317592,1.685994,-0.153158,-0.4993624,1.62126,0.1481732,-0.4840283,1.6085,-0.005007324,-0.1916571,1.690899,-0.001184988,-0.4952782,1.68703,-0.174108,-0.01678363,1.681305,-0.07606903,-0.4850657,1.654289,-0.2066965,-0.2721905,1.696874,0.1993004,-0.2621413,1.687028,NA,NA,NotTracked,NotTracked,
-0.9667969,0.1796875,-0.1870117,-0.9916992,-0.2124023,-0.06396484,-1,-2,-2,-2,-2,0,4,2,-3,0,-1,-3,-1,-2,4,-6,3.5,3.5,3.5,-5.0625,-5.0625,-5.0625,8.773339,7.08708,8.054511,2.170978,7.155507,1.86906,-0.1946584,-0.5348041,1.638389,0.1917399,-0.5328658,1.620206,-0.008965076,0.2316398,1.687685,-0.1523743,-0.5156724,1.627715,0.1584961,-0.5039022,1.627386,-0.004924008,-0.1919221,1.692464,-0.001180716,-0.4954799,1.688504,-0.1739333,-0.01674202,1.682705,-0.07610396,-0.4851777,1.655797,-0.2064693,-0.2732991,1.69859,0.1989017,-0.2627713,1.688358,NA,NA,NotTracked,NotTracked,
-0.972168,0.1875,-0.1923828,-0.9936523,-0.2094727,-0.06298828,-2,-1,-1,0,2,5,-1,0,-7,-2,-2,-1,0,-3,-1,-12,2.625,2.625,2.625,-5.25,-5.25,-5.25,8.756241,7.093904,8.029178,2.185606,7.157638,1.890616,-0.194849,-0.5347591,1.639593,0.1900487,-0.5329729,1.621281,-0.009161714,0.2310496,1.691289,-0.15305,-0.5103729,1.623605,0.1475908,-0.4889908,1.614143,-0.004978633,-0.1923567,1.69495,-0.001365662,-0.4957947,1.691083,-0.1740844,-0.01711787,1.686261,-0.07632742,-0.4854704,1.658324,-0.2062051,-0.2737644,1.700719,0.1981664,-0.2630368,1.690326,NA,NA,NotTracked,NotTracked,
-0.9726563,0.1933594,-0.2006836,-0.9902344,-0.2104492,-0.05761719,-2,-1,0,1,-3,-8,-14,-7,-2,5,1,0,-3,-1,0,-1,2.8125,2.8125,2.8125,-5.75,-5.75,-5.75,8.750215,7.093538,8.021474,2.205714,7.160384,1.91797,-0.1954008,-0.5343114,1.640227,0.1897055,-0.5318193,1.621996,-0.009171128,0.2309615,1.692828,-0.1517546,-0.4969162,1.623615,0.1493092,-0.4848526,1.614875,-0.005039405,-0.1924202,1.696508,-0.001520764,-0.4957399,1.692309,-0.1742901,-0.01720842,1.687982,-0.07650612,-0.4855251,1.659369,-0.2061595,-0.273877,1.702187,0.1976191,-0.2631926,1.691498,NA,NA,NotTracked,NotTracked,
-0.9584961,0.2021484,-0.206543,-1.00293,-0.2094727,-0.04882813,2,0,1,-1,0,-1,2,5,-3,-4,-1,-1,2,0,0,1,0.3125,0.3125,0.3125,-5.75,-5.75,-5.75,8.731689,7.08715,7.996186,2.229039,7.16232,1.948515,-0.1951292,-0.5346959,1.639924,0.188471,-0.5332423,1.62243,-0.009173121,0.2306207,1.694372,-0.1527308,-0.5116611,1.62848,0.1576472,-0.5067723,1.629034,-0.004882747,-0.1925665,1.697573,-0.001416667,-0.4957576,1.693166,-0.1742761,-0.01734621,1.688848,-0.07641853,-0.4856273,1.660231,-0.2061945,-0.2740385,1.70295,0.1970495,-0.2632419,1.692618,NA,NA,NotTracked,NotTracked,
-0.9550781,0.2133789,-0.1904297,-1.003418,-0.21875,-0.05322266,-2,0,-2,-1,-2,0,2,1,-1,1,2,-1,-1,-1,-1,0,-10.3125,-10.3125,-10.3125,-4.0625,-4.0625,-4.0625,8.717583,7.085072,7.987533,2.25433,7.163836,1.979919,-0.195294,-0.534817,1.63996,0.186938,-0.532378,1.622724,-0.00912275,0.2304884,1.6957,-0.152975,-0.5080577,1.628314,0.1545361,-0.5046,1.625796,-0.004978864,-0.1925963,1.698772,-0.00149007,-0.4958245,1.694105,-0.1742801,-0.0174206,1.689497,-0.07650045,-0.4856924,1.661281,-0.206423,-0.2739342,1.704342,0.1966046,-0.2631763,1.693427,NA,NA,NotTracked,NotTracked,
-0.9521484,0.2060547,-0.1645508,-1.000977,-0.2207031,-0.05175781,0,-2,0,-1,1,3,11,5,-2,-8,-4,-3,-3,-3,-2,-3,-20,-20,-20,-2.5625,-2.5625,-2.5625,8.697067,7.083817,7.978037,2.267304,7.164573,1.994855,-0.1974857,-0.535527,1.639925,0.1863167,-0.5327618,1.621667,-0.009177952,0.2305886,1.696769,-0.1529956,-0.5103211,1.626908,0.152298,-0.4998985,1.622529,-0.005169102,-0.1926718,1.699725,-0.001671306,-0.4959022,1.694741,-0.1746061,-0.01722917,1.691133,-0.07668246,-0.4858266,1.661909,-0.2068813,-0.2739997,1.705143,0.1963193,-0.2630413,1.694025,NA,NA,NotTracked,NotTracked,
-0.9726563,0.1777344,-0.1474609,-0.9931641,-0.2202148,-0.04736328,-2,0,-2,1,-1,0,1,1,-2,-2,-3,-2,-3,-1,-1,-3,-19.6875,-19.6875,-19.6875,0.375,0.375,0.375,8.636611,7.080019,7.954971,2.292351,7.165094,2.020876,-0.1987747,-0.5366502,1.639091,0.1857462,-0.5331963,1.620938,-0.009238771,0.2304635,1.697334,-0.1529294,-0.5063163,1.625503,0.1515037,-0.5019578,1.62225,-0.005412273,-0.1928599,1.700522,-0.001878307,-0.4960473,1.695359,-0.1751012,-0.01729163,1.692577,-0.0768981,-0.485908,1.662575,-0.2073057,-0.2738726,1.706218,0.1960657,-0.2629336,1.694502,NA,NA,NotTracked,NotTracked,
-0.9702148,0.1738281,-0.1455078,-1.004883,-0.2133789,-0.03955078,0,0,0,1,1,6,9,5,-12,-6,-4,-4,-5,-5,-5,-13,-14.4375,-14.4375,-14.4375,-2.0625,-2.0625,-2.0625,8.616192,7.07959,7.942142,2.314903,7.164927,2.045362,-0.2006925,-0.5357998,1.638506,0.1849076,-0.5326508,1.620858,-0.009318793,0.2302346,1.698666,-0.1605601,-0.5152011,1.640269,0.1447332,-0.4825535,1.612625,-0.005657012,-0.1930005,1.701182,-0.002013351,-0.4960934,1.695733,-0.1752729,-0.01748395,1.69382,-0.07703289,-0.4859791,1.662929,-0.2076121,-0.2737485,1.706995,0.1958403,-0.2630233,1.695058,NA,NA,NotTracked,NotTracked,
-0.9799805,0.1821289,-0.1621094,-0.9980469,-0.2143555,-0.03955078,0,-2,0,2,1,2,1,-1,0,-1,-1,-1,-1,-4,-3,-2,-2.75,-2.75,-2.75,-5.4375,-5.4375,-5.4375,8.589005,7.078997,7.920244,2.334557,7.164764,2.071134,-0.2026716,-0.5365622,1.639872,0.1841885,-0.5327116,1.621366,-0.00947143,0.2300845,1.69948,-0.1522778,-0.5397162,1.629333,0.1454064,-0.4919447,1.614207,-0.00585126,-0.1930994,1.702074,-0.002109691,-0.4961457,1.696121,-0.175794,-0.01767154,1.695059,-0.07711944,-0.4860932,1.66331,-0.2081093,-0.2738512,1.708117,0.1955522,-0.2627701,1.695564,NA,NA,NotTracked,NotTracked,
-0.9799805,0.1821289,-0.1621094,-0.9980469,-0.2143555,-0.03955078,0,-2,0,2,1,2,1,-1,0,-1,-1,-1,-1,-4,-3,-2,-2.75,-2.75,-2.75,-5.4375,-5.4375,-5.4375,8.589005,7.078997,7.920244,2.334557,7.164764,2.071134,-0.2033092,-0.5365071,1.639868,0.1842194,-0.5330322,1.621274,-0.009676599,0.2299919,1.70075,-0.156246,-0.5122156,1.63295,0.1457491,-0.4864101,1.615553,-0.005982278,-0.193093,1.702763,-0.002174994,-0.4961003,1.69648,-0.1761856,-0.01791252,1.696486,-0.07717927,-0.4861404,1.663742,-0.2086053,-0.2739285,1.708961,0.1952403,-0.2625637,1.696148,NA,NA,NotTracked,NotTracked,
-0.9638672,0.1791992,-0.1704102,-0.9897461,-0.21875,-0.04248047,-1,0,-1,-1,-1,-2,-3,-3,0,5,3,-1,0,1,0,0,3.3125,3.3125,3.3125,-3.0625,-3.0625,-3.0625,8.572167,7.078694,7.897699,2.351739,7.162391,2.093816,-0.204288,-0.5366989,1.639198,0.183441,-0.5328691,1.619887,-0.009779242,0.230015,1.701773,-0.153717,-0.5159077,1.629206,0.1501231,-0.5091329,1.620446,-0.006239736,-0.1932392,1.703245,-0.002315953,-0.4961875,1.696668,-0.1764871,-0.01807041,1.697744,-0.07733736,-0.4863083,1.663949,-0.2088397,-0.2737492,1.70939,0.1950858,-0.2625592,1.696416,NA,NA,NotTracked,NotTracked,
-0.9575195,0.1762695,-0.1738281,-0.9887695,-0.2246094,-0.04882813,-1,-1,-1,0,1,1,-2,-1,-5,-2,-4,-1,0,0,-3,-3,3.4375,3.4375,3.4375,0.375,0.375,0.375,8.571494,7.07866,7.894641,2.362785,7.160261,2.105817,-0.2058299,-0.5349185,1.639953,0.183546,-0.5324714,1.620004,-0.009801558,0.2300426,1.702778,-0.1650609,-0.5142822,1.642947,0.1432521,-0.48897,1.610769,-0.006564385,-0.1933346,1.703632,-0.002446251,-0.4962105,1.696789,-0.1766558,-0.0179421,1.698394,-0.07746876,-0.4863826,1.664039,-0.2092951,-0.2735085,1.709828,0.1949102,-0.2624551,1.696669,NA,NA,NotTracked,NotTracked,
-0.9667969,0.1831055,-0.1630859,-1.006836,-0.2211914,-0.03417969,0,0,-1,-1,1,1,5,3,10,4,5,4,3,5,4,15,-1.625,-1.625,-1.625,-0.375,-0.375,-0.375,8.573596,7.08057,7.896227,2.360819,7.157597,2.104236,-0.2053242,-0.5353268,1.640465,0.1833169,-0.5328149,1.619559,-0.01011224,0.2300201,1.703686,-0.1579146,-0.514672,1.633683,0.1408213,-0.5035981,1.612083,-0.006723141,-0.1933724,1.70397,-0.002497457,-0.4962398,1.696959,-0.1767989,-0.01796673,1.698895,-0.07750934,-0.4864035,1.664181,-0.2095453,-0.2734232,1.710263,0.1947402,-0.2623842,1.696887,NA,NA,NotTracked,NotTracked,
-0.9667969,0.1831055,-0.1552734,-1.001953,-0.2158203,-0.03955078,-1,-1,-1,0,-1,-3,0,0,-2,-1,-2,-2,-2,-2,-1,-4,-4.3125,-4.3125,-4.3125,-1.25,-1.25,-1.25,8.580705,7.08416,7.908298,2.355719,7.157128,2.100814,-0.2040141,-0.5356117,1.640785,0.1822205,-0.5322754,1.618992,-0.009953178,0.2300262,1.704714,-0.1580285,-0.5226837,1.634322,0.1399624,-0.4902678,1.609143,-0.006831026,-0.1933678,1.704224,-0.002577857,-0.4962534,1.697089,-0.1768418,-0.01775536,1.699186,-0.07758024,-0.4864525,1.664309,-0.2097315,-0.2731044,1.710827,0.1946657,-0.2624017,1.696966,NA,NA,NotTracked,NotTracked,
-0.9731445,0.1875,-0.152832,-0.9960938,-0.222168,-0.03857422,0,0,0,0,-3,-2,-3,0,-3,-3,-3,-1,-1,1,0,0,0.375,0.375,0.375,-0.25,-0.25,-0.25,8.599303,7.087437,7.92833,2.35444,7.157104,2.099536,-0.2025864,-0.5345807,1.640813,0.1819033,-0.5294508,1.619579,-0.009834714,0.2300486,1.705723,-0.1570794,-0.4946197,1.626077,0.1405463,-0.5149708,1.612714,-0.006852249,-0.1933189,1.704322,-0.002648046,-0.4962072,1.697133,-0.1768629,-0.01777691,1.699285,-0.07762334,-0.4864335,1.66434,-0.209813,-0.2730871,1.711206,0.1945494,-0.2622859,1.697066,NA,NA,NotTracked,NotTracked,
-0.9741211,0.1850586,-0.1601563,-0.987793,-0.1958008,-0.04833984,-3,-2,0,0,-3,-6,-10,-5,6,4,1,-1,-1,0,4,8,6,6,6,3.5625,3.5625,3.5625,8.621782,7.092211,7.946474,2.362928,7.155772,2.103694,-0.2006558,-0.5342234,1.641139,0.1823174,-0.532477,1.618695,-0.009873109,0.2301176,1.708274,-0.1576623,-0.5060039,1.630235,0.1425118,-0.5074695,1.614481,-0.007217157,-0.1931894,1.704603,-0.003080726,-0.496129,1.697299,-0.1768446,-0.01769511,1.699331,-0.07801782,-0.4863774,1.664459,-0.2099641,-0.2728769,1.711993,0.1943358,-0.2622976,1.697168,NA,NA,NotTracked,NotTracked,
-0.9692383,0.2021484,-0.1816406,-0.9838867,-0.2094727,-0.04541016,0,1,-2,0,1,0,2,3,6,1,-3,-2,-2,-1,-1,4,8.6875,8.6875,8.6875,2.625,2.625,2.625,8.646295,7.097851,7.955963,2.377728,7.154485,2.116413,-0.1996902,-0.5333061,1.63967,0.1813754,-0.5316373,1.616488,-0.009826168,0.2301903,1.70911,-0.1568868,-0.5060953,1.6262,0.1421795,-0.5092105,1.612267,-0.007290692,-0.1931322,1.704584,-0.003278554,-0.4960572,1.697198,-0.1768425,-0.01746203,1.699269,-0.07825813,-0.4862766,1.664209,-0.2099103,-0.2731991,1.712008,0.1942028,-0.2623219,1.69714,NA,NA,NotTracked,NotTracked,
-0.9829102,0.190918,-0.171875,-1,-0.2114258,-0.05029297,-2,-2,-2,-1,-1,-2,-1,-3,1,1,-1,0,1,3,1,2,5.25,5.25,5.25,6.5,6.5,6.5,8.648319,7.102993,7.951192,2.399161,7.152378,2.132549,-0.1986271,-0.5332604,1.638437,0.1821272,-0.5325078,1.616319,-0.009628437,0.2303605,1.709891,-0.1565166,-0.5252081,1.627846,0.1402815,-0.5202665,1.6112,-0.007371821,-0.1930671,1.70459,-0.00356801,-0.4959825,1.697098,-0.1767001,-0.01722394,1.699207,-0.07855218,-0.4862345,1.664047,-0.2099002,-0.2732087,1.711992,0.1940966,-0.2625591,1.697029,NA,NA,NotTracked,NotTracked,
-0.9780273,0.184082,-0.1689453,-1.008301,-0.2167969,-0.04248047,-1,-2,-1,-1,0,1,0,-1,6,0,0,0,0,0,1,7,5.4375,5.4375,5.4375,6.8125,6.8125,6.8125,8.64887,7.106055,7.948726,2.422899,7.151525,2.149342,-0.1977528,-0.5326828,1.636988,0.1823703,-0.5327351,1.616418,-0.009346892,0.230562,1.710863,-0.1567137,-0.4990774,1.622187,0.1397856,-0.5165262,1.60983,-0.007529444,-0.1928887,1.704586,-0.003811219,-0.4957865,1.696973,-0.1768256,-0.01659678,1.699339,-0.07874289,-0.4860849,1.663917,-0.2098262,-0.2733238,1.711809,0.1938438,-0.2628127,1.696911,NA,NA,NotTracked,NotTracked,
