ALX,ALY,ALZ,ARX,ARY,ARZ,EMG0L,EMG1L,EMG2L,EMG3L,EMG4L,EMG5L,EMG6L,EMG7L,EMG0R,EMG1R,EMG2R,EMG3R,EMG4R,EMG5R,EMG6R,EMG7R,GLX,GLY,GLZ,GRX,GRY,GRZ,ORL,OPL,OYL,ORR,OPR,OYR,LHNX,LHNY,LHNZ,RHNX,RHNY,RHNZ,HX,HY,HZ,LTX,LTY,LTZ,RTX,RTY,RTZ,SpineMidX,SpineMidY,SpineMidZ,SpineBaseX,SpineBaseY,SpineBaseZ,ShoulderLeftX,ShoulderLeftY,ShoulderLeftZ,ShoulderRightX,ShoulderRightY,ShoulderRightZ,ElbowLeftX,ElbowLeftY,ElbowLeftZ,ElbowRightX,ElbowRightY,ElbowRightZ,Myo_Pose_left,Myo_Pose_Right,Kinect_pose_left,Kinect_pose_right
-0.9697266,0.1796875,-0.1411133,-1.030762,-0.3671875,0.331543,1,1,-1,-2,1,-1,-1,0,6,-11,-28,13,-4,-2,0,3,0.375,0.375,0.375,8.25,8.25,8.25,8.521487,7.129453,8.804931,2.983235,7.11794,5.121141,-0.1449805,-0.5260702,1.600584,0.1761409,-0.4428426,1.425765,0.03676392,0.2358576,1.658317,-0.09940344,-0.5072589,1.573282,0.147797,-0.4365028,1.444214,0.0368108,-0.1601885,1.652802,0.03477361,-0.4417915,1.639556,-0.1233799,0.004986785,1.659521,-0.03578185,-0.4330599,1.612101,-0.162645,-0.2453374,1.669007,0.2372891,-0.2159256,1.649757,NA,NA,NotTracked,Lasso,
-0.9697266,0.1796875,-0.1411133,-1.186523,-0.3779297,0.4267578,1,1,-1,-2,1,-1,-1,0,9,-5,-39,-51,-11,-12,5,2,0.375,0.375,0.375,36.4375,36.4375,36.4375,8.521487,7.129453,8.804931,3.582225,6.938253,5.691146,-0.14362,-0.5252668,1.597304,0.1616344,-0.3248053,1.345706,0.03583701,0.2357338,1.658895,-0.0996673,-0.5068792,1.572279,0.1293836,-0.316332,1.362923,0.03454548,-0.1599661,1.65352,0.02853251,-0.4405946,1.638802,-0.123821,0.004492727,1.661036,-0.04188468,-0.4322028,1.612202,-0.162059,-0.243688,1.669896,0.2422602,-0.2027908,1.631559,NA,NA,NotTracked,Unknown,
-0.9697266,0.1796875,-0.1411133,-1.166016,-0.3691406,0.5551758,1,1,-1,-2,1,-1,-1,0,12,10,11,-5,7,7,6,2,0.375,0.375,0.375,18.75,18.75,18.75,8.521487,7.129453,8.804931,3.956779,6.642653,6.054578,-0.1423595,-0.5236789,1.593077,0.1510423,-0.1922929,1.290768,0.0353303,0.2354759,1.659176,-0.09801026,-0.4991427,1.574511,0.1258948,-0.1614475,1.273647,0.0343086,-0.1602243,1.654737,0.02837631,-0.4407155,1.639005,-0.1241166,0.004251754,1.66269,-0.04211587,-0.4324017,1.612596,-0.161835,-0.2441204,1.670156,0.2693837,-0.1877974,1.587715,NA,NA,NotTracked,Unknown,
-0.9697266,0.1796875,-0.1411133,-0.9750977,-0.4575195,0.6899414,1,1,-1,-2,1,-1,-1,0,0,-3,-13,-30,-1,3,-3,-1,0.375,0.375,0.375,8.1875,8.1875,8.1875,8.521487,7.129453,8.804931,4.133146,6.18102,6.265049,-0.1409774,-0.5221081,1.587381,0.137626,-0.04618928,1.277339,0.03496028,0.2349347,1.659947,-0.09855828,-0.5044636,1.572095,0.1073521,-0.01378714,1.29275,0.0341629,-0.1603951,1.656567,0.02874849,-0.4406242,1.639626,-0.1244102,0.002991334,1.66538,-0.04155933,-0.4327446,1.613664,-0.1615223,-0.2442584,1.67022,0.2616623,-0.1925425,1.511713,NA,NA,NotTracked,Unknown,
-0.9697266,0.1796875,-0.1411133,-0.7758789,-0.4130859,0.7211914,1,1,-1,-2,1,-1,-1,0,-5,-7,-28,-71,-36,-6,3,-2,0.375,0.375,0.375,35.75,35.75,35.75,8.521487,7.129453,8.804931,4.240398,5.721762,6.338956,-0.1401736,-0.5234178,1.58424,0.1221811,0.08685397,1.295888,0.03386059,0.2350179,1.660345,-0.09653609,-0.5089206,1.570507,0.09087174,0.1151315,1.316,0.03233195,-0.1618746,1.657615,0.0286609,-0.443412,1.63969,-0.1244821,0.002674605,1.667279,-0.04203507,-0.4361993,1.615634,-0.1612774,-0.2435241,1.670334,0.2453453,-0.1504082,1.487404,NA,NA,NotTracked,Unknown,
-0.9697266,0.1796875,-0.1411133,-0.578125,-0.3432617,0.628418,1,1,-1,-2,1,-1,-1,0,-16,-27,-41,-74,-43,-15,-1,-11,0.375,0.375,0.375,27.875,27.875,27.875,8.521487,7.129453,8.804931,4.304152,5.424581,6.370586,-0.1418373,-0.522964,1.581602,0.1152436,0.1746928,1.3461,0.03049223,0.2345196,1.660417,-0.0969418,-0.502798,1.569627,0.08271385,0.2038031,1.383375,0.0318082,-0.1618341,1.65746,0.02624516,-0.440744,1.637415,-0.125431,0.002916065,1.668271,-0.04578061,-0.4334781,1.614135,-0.161094,-0.2427208,1.670304,0.2315295,-0.0642369,1.4308,NA,NA,NotTracked,Unknown,
-0.9697266,0.1796875,-0.1411133,-0.4848633,-0.340332,0.7675781,1,1,-1,-2,1,-1,-1,0,-3,-15,-16,-11,-32,-22,-45,9,0.375,0.375,0.375,10.8125,10.8125,10.8125,8.521487,7.129453,8.804931,4.324496,5.26059,6.382522,-0.1427324,-0.5227975,1.581166,0.1112176,0.2270218,1.404512,0.0291163,0.2336195,1.660344,-0.09611965,-0.4940684,1.568235,0.08761768,0.2258811,1.438951,0.03203917,-0.1594395,1.656792,0.02358009,-0.4342691,1.634561,-0.1254249,0.003482893,1.668905,-0.04954735,-0.4270375,1.610961,-0.1610826,-0.2393328,1.670123,0.2441212,-0.06452598,1.434613,NA,NA,NotTracked,Unknown,
-0.9697266,0.1796875,-0.1411133,0.2651367,-0.2661133,0.7661133,1,1,-1,-2,1,-1,-1,0,0,-6,-12,-30,-17,-12,29,22,0.375,0.375,0.375,-5.75,-5.75,-5.75,8.521487,7.129453,8.804931,4.326431,4.999857,6.409406,-0.1429483,-0.5223741,1.580254,0.09905355,0.2552949,1.464674,0.02863888,0.2336158,1.659274,-0.09701046,-0.5062343,1.56749,0.07061809,0.2444341,1.538526,0.03228315,-0.1572757,1.655821,0.02237602,-0.4310091,1.632572,-0.1254893,0.004165651,1.669734,-0.05108051,-0.4242088,1.609617,-0.1608449,-0.2389865,1.670297,0.2216795,0.0193288,1.420066,NA,NA,NotTracked,Open,
-0.9697266,0.1796875,-0.1411133,-0.05273438,-0.3637695,0.7626953,1,1,-1,-2,1,-1,-1,0,13,17,28,63,35,21,17,24,0.375,0.375,0.375,5.5625,5.5625,5.5625,8.521487,7.129453,8.804931,4.332808,4.910901,6.421215,-0.1432608,-0.5216958,1.580882,0.08313973,0.2615635,1.504772,0.02846278,0.2342623,1.657788,-0.09695369,-0.4945247,1.564455,0.04680566,0.2488309,1.538885,0.03262926,-0.1538282,1.654784,0.02131403,-0.4290047,1.631762,-0.1254824,0.00516521,1.670567,-0.05243203,-0.4218792,1.609124,-0.1608503,-0.2378628,1.670382,0.2206458,0.02770089,1.420688,NA,NA,NotTracked,Unknown,
-0.9697266,0.1796875,-0.1411133,-0.01416016,-0.4233398,0.8032227,1,1,-1,-2,1,-1,-1,0,1,9,18,20,29,7,-4,-1,0.375,0.375,0.375,-7.625,-7.625,-7.625,8.521487,7.129453,8.804931,4.321219,4.913599,6.417275,-0.1440857,-0.5213401,1.583112,0.07832748,0.2595944,1.512916,0.02840411,0.2348263,1.655993,-0.09745815,-0.5020483,1.567939,0.032315,0.23612,1.538781,0.03257946,-0.1529047,1.6546,0.0207682,-0.4283801,1.631915,-0.1255351,0.005651246,1.670918,-0.05313443,-0.4210348,1.60944,-0.1607771,-0.2367049,1.670655,0.2193002,0.0350694,1.42087,NA,NA,NotTracked,Unknown,
-0.9697266,0.1796875,-0.1411133,-0.04980469,-0.425293,0.9072266,1,1,-1,-2,1,-1,-1,0,-4,-6,-8,-21,-13,-5,-3,-19,0.375,0.375,0.375,-6.0625,-6.0625,-6.0625,8.521487,7.129453,8.804931,4.306836,4.923857,6.417018,-0.1435923,-0.5234179,1.58166,0.07331188,0.2612958,1.515308,0.0281316,0.2350135,1.655249,-0.09764811,-0.5053748,1.566047,0.03853056,0.2314271,1.540839,0.032463,-0.1525066,1.654692,0.02037231,-0.4281069,1.632186,-0.1256517,0.005878019,1.671185,-0.05375021,-0.4204824,1.610004,-0.1607815,-0.2366643,1.670999,0.2193536,0.03712267,1.420082,NA,NA,NotTracked,Unknown,
-0.9697266,0.1796875,-0.1411133,-0.2177734,-0.4228516,0.9199219,1,1,-1,-2,1,-1,-1,0,2,3,18,37,7,4,-1,3,0.375,0.375,0.375,9.75,9.75,9.75,8.521487,7.129453,8.804931,4.306573,4.948289,6.418019,-0.1437755,-0.5243815,1.581827,0.07221051,0.2570657,1.51605,0.02779977,0.2351053,1.654588,-0.1013829,-0.5130423,1.568711,0.03959396,0.2292694,1.541882,0.03234,-0.1517495,1.654429,0.02022934,-0.427861,1.632152,-0.1241292,0.006182945,1.67139,-0.053943,-0.4202315,1.609967,-0.1608449,-0.2365295,1.671096,0.2192044,0.03793206,1.419856,NA,NA,NotTracked,Unknown,
-0.9697266,0.1796875,-0.1411133,-0.0390625,-0.4633789,0.9482422,1,1,-1,-2,1,-1,-1,0,-2,-1,3,3,-4,-2,6,8,0.375,0.375,0.375,3.375,3.375,3.375,8.521487,7.129453,8.804931,4.308163,4.949593,6.424581,-0.144062,-0.5242982,1.581244,0.07200883,0.2592148,1.515618,0.02750127,0.2349262,1.654083,-0.1012335,-0.5119218,1.567838,0.05600765,0.2221491,1.546917,0.03226555,-0.1514742,1.654322,0.0198891,-0.4275356,1.632103,-0.1244286,0.006351112,1.671512,-0.05429637,-0.419917,1.610001,-0.1608464,-0.2364956,1.671013,0.2191627,0.03842483,1.41967,NA,NA,NotTracked,Unknown,
-0.9697266,0.1796875,-0.1411133,-0.03808594,-0.4628906,0.8769531,1,1,-1,-2,1,-1,-1,0,-7,-2,-4,4,2,0,-13,-29,0.375,0.375,0.375,6.5,6.5,6.5,8.521487,7.129453,8.804931,4.314327,4.953683,6.426425,-0.1440911,-0.5232753,1.580023,0.07266362,0.2596104,1.510083,0.02731063,0.2347199,1.653651,-0.09857251,-0.5082053,1.565989,0.0625216,0.2259723,1.544526,0.03218346,-0.1513391,1.654214,0.01967139,-0.4274117,1.632021,-0.1246349,0.006398276,1.67155,-0.05455273,-0.4197637,1.609885,-0.1609419,-0.236511,1.670933,0.2189608,0.03811924,1.420502,NA,NA,NotTracked,Unknown,
-0.9697266,0.1796875,-0.1411133,-0.04492188,-0.4101563,0.7910156,1,1,-1,-2,1,-1,-1,0,8,5,7,1,3,1,-12,21,0.375,0.375,0.375,-1.875,-1.875,-1.875,8.521487,7.129453,8.804931,4.309619,4.958411,6.418438,-0.1444381,-0.5230939,1.578457,0.09789155,0.2547581,1.450796,0.02729219,0.2346453,1.653641,-0.09878654,-0.4963268,1.562955,0.07371014,0.2500555,1.5296,0.03210236,-0.1513726,1.654108,0.01936113,-0.4270512,1.631614,-0.1247721,0.006460856,1.671483,-0.05489124,-0.4192019,1.609109,-0.160923,-0.2364326,1.670485,0.2200212,0.03639181,1.419926,NA,NA,NotTracked,Unknown,
-0.9697266,0.1796875,-0.1411133,-0.2392578,-0.355957,0.5473633,1,1,-1,-2,1,-1,-1,0,2,1,-2,1,-1,1,9,12,0.375,0.375,0.375,-21.8125,-21.8125,-21.8125,8.521487,7.129453,8.804931,4.251484,5.066789,6.372185,-0.1447181,-0.5232741,1.577619,0.09144575,0.26086,1.401682,0.02687685,0.234506,1.654493,-0.09886999,-0.5022274,1.562505,0.08039303,0.2437424,1.445637,0.03266783,-0.1504774,1.65334,0.01940651,-0.4266635,1.630923,-0.1248106,0.006795485,1.671042,-0.05476224,-0.418459,1.607622,-0.1610425,-0.2367856,1.669665,0.2105895,0.04633484,1.419989,NA,NA,NotTracked,Unknown,
-0.9697266,0.1796875,-0.1411133,-0.4389648,-0.3081055,0.4990234,1,1,-1,-2,1,-1,-1,0,-5,4,7,9,11,10,5,-12,0.375,0.375,0.375,-14.0625,-14.0625,-14.0625,8.521487,7.129453,8.804931,4.19828,5.388688,6.28462,-0.1441294,-0.5263331,1.577253,0.1000833,0.1883164,1.327784,0.0245443,0.2337343,1.657588,-0.09791283,-0.5153135,1.56288,0.08503813,0.1825047,1.35175,0.03221517,-0.1513167,1.652918,0.01940728,-0.4271445,1.630163,-0.1224651,0.006185151,1.667656,-0.05480739,-0.4190895,1.606651,-0.1612882,-0.2386682,1.667888,0.2475895,-0.0556775,1.430031,NA,NA,NotTracked,Unknown,
-0.9697266,0.1796875,-0.1411133,-0.7104492,-0.3510742,0.7407227,1,1,-1,-2,1,-1,-1,0,-7,-5,-2,-4,0,7,3,2,0.375,0.375,0.375,-54.6875,-54.6875,-54.6875,8.521487,7.129453,8.804931,4.122566,5.767199,6.195753,-0.1433945,-0.5259528,1.577011,0.1224276,0.04532137,1.272211,0.02567425,0.2367542,1.662451,-0.09611269,-0.5341422,1.560417,0.105886,0.08257183,1.251173,0.02738627,-0.1568186,1.652477,0.01993137,-0.4376433,1.629295,-0.1243911,0.005139098,1.667365,-0.05326235,-0.4311963,1.607778,-0.1613629,-0.2417889,1.665966,0.2561871,-0.131271,1.470752,NA,NA,NotTracked,Unknown,
-0.9697266,0.1796875,-0.1411133,-0.8740234,-0.5507813,0.784668,1,1,-1,-2,1,-1,-1,0,-13,-8,-8,-2,-4,-6,21,-45,0.375,0.375,0.375,-74,-74,-74,8.521487,7.129453,8.804931,3.950304,6.132218,6.084981,-0.1422951,-0.526948,1.577903,0.1380933,-0.1240733,1.250689,0.0266478,0.23834,1.666978,-0.09742764,-0.5017367,1.563107,0.1076425,-0.11088,1.2693,0.02724483,-0.1563592,1.652539,0.02032259,-0.4369475,1.629366,-0.1254604,0.005608676,1.666704,-0.05212014,-0.4308396,1.607248,-0.1613957,-0.2428018,1.665214,0.2607061,-0.1468628,1.520896,NA,NA,NotTracked,Closed,
-0.9697266,0.1796875,-0.1411133,-1.039551,-0.5151367,0.809082,1,1,-1,-2,1,-1,-1,0,-13,-15,-20,-34,-20,3,107,-39,0.375,0.375,0.375,-52.5625,-52.5625,-52.5625,8.521487,7.129453,8.804931,3.740059,6.452055,5.912978,-0.1422324,-0.52618,1.576909,0.1598576,-0.2786205,1.282508,0.02626803,0.2392917,1.668134,-0.0990058,-0.4915413,1.559552,0.1268231,-0.3165663,1.2828,0.02754265,-0.1559752,1.651713,0.02122243,-0.436615,1.628283,-0.1264192,0.005424064,1.665412,-0.0501726,-0.4303783,1.605112,-0.1616813,-0.2433205,1.664354,0.2640198,-0.1718705,1.552124,NA,NA,NotTracked,Unknown,
-0.9697266,0.1796875,-0.1411133,-1.097656,-0.5288086,0.4462891,1,1,-1,-2,1,-1,-1,0,6,-1,-2,-2,2,4,-42,9,0.375,0.375,0.375,-21.8125,-21.8125,-21.8125,8.521487,7.129453,8.804931,3.371822,6.766665,5.555395,-0.1418866,-0.5265508,1.577935,0.1861422,-0.3996642,1.351517,0.02600932,0.239915,1.668621,-0.09782198,-0.5008909,1.560238,0.1965177,-0.4458095,1.344077,0.02757418,-0.1558211,1.650345,0.02158731,-0.4368491,1.627431,-0.1271233,0.005622155,1.663808,-0.04944277,-0.4299905,1.603984,-0.1620048,-0.2435055,1.66377,0.2652834,-0.2029537,1.577127,NA,NA,NotTracked,Unknown,
-0.9697266,0.1796875,-0.1411133,-1.124512,-0.4086914,0.07617188,1,1,-1,-2,1,-1,-1,0,-16,-1,12,29,-2,7,39,-40,0.375,0.375,0.375,-14.25,-14.25,-14.25,8.521487,7.129453,8.804931,3.044807,6.910863,5.220878,-0.1436462,-0.5266786,1.578614,0.2063719,-0.4706255,1.420331,0.02609936,0.2402228,1.668476,-0.09815394,-0.5028048,1.559722,0.2353339,-0.4820673,1.4151,0.02916731,-0.1559779,1.648707,0.02544603,-0.4376639,1.627226,-0.1268327,0.006178562,1.661588,-0.04485082,-0.430576,1.603387,-0.1623349,-0.2447534,1.663007,0.2488776,-0.2129631,1.598653,NA,NA,NotTracked,Unknown,
-0.9697266,0.1796875,-0.1411133,-1.076172,-0.3955078,0.006347656,1,1,-1,-2,1,-1,-1,0,9,1,-1,-4,1,-8,-41,7,0.375,0.375,0.375,-19,-19,-19,8.521487,7.129453,8.804931,2.60711,6.997263,4.790093,-0.1442498,-0.5262886,1.579962,0.2173388,-0.4989161,1.475446,0.02671247,0.2405043,1.667541,-0.09833925,-0.5055319,1.559937,0.2486092,-0.4865172,1.474,0.03058128,-0.1559301,1.64699,0.02815712,-0.438276,1.626892,-0.1265097,0.006505182,1.658535,-0.04209024,-0.4310061,1.602581,-0.1629722,-0.2455413,1.662131,0.2492314,-0.2212584,1.616043,NA,NA,NotTracked,Unknown,
-0.9697266,0.1796875,-0.1411133,-1.022461,-0.2949219,0.1494141,1,1,-1,-2,1,-1,-1,0,-10,-5,-1,-1,2,16,55,-38,0.375,0.375,0.375,38.5625,38.5625,38.5625,8.521487,7.129453,8.804931,2.250852,7.04608,4.355059,-0.1450415,-0.5272723,1.582036,0.2226578,-0.5076466,1.516517,0.02784269,0.2407802,1.666293,-0.09844263,-0.5081016,1.558531,0.2541491,-0.5009785,1.509036,0.03169537,-0.1559953,1.645304,0.03054832,-0.4384997,1.626259,-0.1259501,0.006445664,1.655285,-0.03949328,-0.4312687,1.601088,-0.1630953,-0.2461871,1.661469,0.2484952,-0.2260064,1.632397,NA,NA,NotTracked,NotTracked,
-0.9697266,0.1796875,-0.1411133,-0.9643555,-0.2353516,0.06005859,1,1,-1,-2,1,-1,-1,0,-7,-4,-2,-1,-1,6,63,-23,0.375,0.375,0.375,31.4375,31.4375,31.4375,8.521487,7.129453,8.804931,2.136951,7.068144,4.165169,-0.1456366,-0.5252118,1.58178,0.220165,-0.5106379,1.544893,0.02970842,0.2413521,1.663667,-0.09804529,-0.508222,1.556749,0.2544132,-0.5162308,1.524657,0.03285678,-0.156087,1.64328,0.03195464,-0.4386039,1.625444,-0.1244752,0.007650447,1.65013,-0.03785235,-0.4311651,1.599437,-0.1631301,-0.245768,1.659728,0.247663,-0.2306602,1.643646,NA,NA,NotTracked,NotTracked,
-0.9697266,0.1796875,-0.1411133,-1.007813,-0.277832,0.01269531,1,1,-1,-2,1,-1,-1,0,-44,-34,-16,0,-1,-6,-6,-35,0.375,0.375,0.375,-7,-7,-7,8.521487,7.129453,8.804931,2.065856,7.088327,4.081465,-0.1456499,-0.5241001,1.58015,0.2187153,-0.5150267,1.561933,0.03143462,0.2411533,1.661721,-0.09901449,-0.5098312,1.555733,0.2623626,-0.5120802,1.5635,0.03453296,-0.1562786,1.641352,0.03435541,-0.4387306,1.623878,-0.1236388,0.007493345,1.646905,-0.03547737,-0.4310764,1.597122,-0.1628202,-0.2452855,1.658262,0.2467003,-0.2322688,1.648702,NA,NA,NotTracked,NotTracked,
-0.9697266,0.1796875,-0.1411133,-0.9702148,-0.2016602,0.0004882813,1,1,-1,-2,1,-1,-1,0,-20,-7,-2,0,-1,5,3,-33,0.375,0.375,0.375,-38,-38,-38,8.521487,7.129453,8.804931,2.137103,7.137055,4.202986,-0.1449718,-0.5237955,1.574051,0.2198712,-0.5212158,1.570564,0.03228023,0.2408359,1.660357,-0.1000322,-0.5035485,1.553087,0.2584837,-0.5192221,1.562897,0.03550893,-0.1565907,1.640389,0.03539181,-0.4388436,1.623173,-0.1231356,0.007012195,1.645283,-0.03452638,-0.4311921,1.596228,-0.1624093,-0.2449639,1.656371,0.2458301,-0.2332214,1.650566,NA,NA,NotTracked,NotTracked,
-0.9697266,0.1796875,-0.1411133,-0.9814453,-0.2875977,-0.1157227,1,1,-1,-2,1,-1,-1,0,-12,-23,-17,-11,-6,0,27,-23,0.375,0.375,0.375,-31,-31,-31,8.521487,7.129453,8.804931,2.165342,7.151911,4.293139,-0.1442765,-0.5218696,1.567376,0.2225362,-0.5240849,1.575583,0.03282888,0.2405565,1.65898,-0.09945964,-0.5042338,1.552416,0.2622725,-0.5302367,1.56945,0.03620496,-0.1569959,1.639357,0.03672216,-0.4392444,1.621889,-0.1229261,0.006108616,1.644043,-0.03345811,-0.4315187,1.594694,-0.1623019,-0.2449014,1.654559,0.2454462,-0.2334194,1.650525,NA,NA,NotTracked,NotTracked,
-0.9697266,0.1796875,-0.1411133,-0.9736328,-0.2231445,-0.1225586,1,1,-1,-2,1,-1,-1,0,-8,-5,-2,-3,-3,-3,7,-11,0.375,0.375,0.375,-9.6875,-9.6875,-9.6875,8.521487,7.129453,8.804931,2.233679,7.157833,4.404457,-0.1448325,-0.5226501,1.561628,0.223614,-0.5271344,1.573291,0.03311573,0.2403413,1.657662,-0.09875235,-0.5077367,1.551191,0.26299,-0.5289627,1.566677,0.03694224,-0.1572136,1.638698,0.03790543,-0.439607,1.620928,-0.1229381,0.005654608,1.643565,-0.03224358,-0.4319268,1.593356,-0.162284,-0.244677,1.652216,0.2442199,-0.2343931,1.649239,NA,NA,NotTracked,NotTracked,
-0.9697266,0.1796875,-0.1411133,-1.006348,-0.2294922,-0.08447266,1,1,-1,-2,1,-1,-1,0,-5,-7,-6,-3,-7,-18,-60,16,0.375,0.375,0.375,-2.3125,-2.3125,-2.3125,8.521487,7.129453,8.804931,2.273813,7.151637,4.455082,-0.1460109,-0.5237641,1.558561,0.2236211,-0.526547,1.56919,0.03331621,0.2398065,1.656559,-0.09964588,-0.5059832,1.551124,0.2620108,-0.525,1.563537,0.03756872,-0.1575538,1.638005,0.03861528,-0.4397682,1.620205,-0.1229427,0.005595753,1.643486,-0.03158905,-0.4321112,1.592506,-0.1622602,-0.2454422,1.650212,0.2431531,-0.2351308,1.647434,NA,NA,NotTracked,NotTracked,
-0.9697266,0.1796875,-0.1411133,-0.9907227,-0.2089844,-0.07177734,1,1,-1,-2,1,-1,-1,0,-13,-5,-2,1,0,-5,-17,-19,0.375,0.375,0.375,-4.625,-4.625,-4.625,8.521487,7.129453,8.804931,2.313707,7.145606,4.502771,-0.1468253,-0.5236042,1.560141,0.2222058,-0.5261587,1.562857,0.03328107,0.2393866,1.655181,-0.09950823,-0.5027064,1.550159,0.2628128,-0.5272489,1.55135,0.0379372,-0.1577612,1.637413,0.03910506,-0.4399109,1.619349,-0.1228719,0.005357889,1.643137,-0.03116047,-0.4322627,1.591622,-0.1626419,-0.2453019,1.648687,0.2422862,-0.2356323,1.645242,NA,NA,NotTracked,NotTracked,
-0.9697266,0.1796875,-0.1411133,-0.9951172,-0.1982422,-0.02783203,1,1,-1,-2,1,-1,-1,0,-13,-9,-7,-1,-2,2,-4,-25,0.375,0.375,0.375,-2,-2,-2,8.521487,7.129453,8.804931,2.372835,7.140472,4.568637,-0.1480525,-0.5254974,1.563616,0.2212748,-0.5274171,1.557125,0.03337373,0.2387822,1.653672,-0.09935202,-0.5260755,1.55255,0.2661174,-0.5304964,1.554504,0.03803785,-0.1580494,1.637231,0.03920028,-0.4401617,1.619087,-0.1229597,0.005195546,1.64303,-0.03105802,-0.4324136,1.591311,-0.1629733,-0.2452471,1.64805,0.2417556,-0.2361435,1.643385,NA,NA,NotTracked,NotTracked,
-0.9697266,0.1796875,-0.1411133,-0.9907227,-0.2207031,-0.06005859,1,1,-1,-2,1,-1,-1,0,-13,-6,-1,-2,0,10,51,-33,0.375,0.375,0.375,2.125,2.125,2.125,8.521487,7.129453,8.804931,2.443348,7.136927,4.642316,-0.1489656,-0.5261031,1.56797,0.220952,-0.5265017,1.553165,0.03338685,0.238293,1.652702,-0.09972075,-0.4968174,1.547682,0.263072,-0.5248234,1.540346,0.0381718,-0.1583409,1.636799,0.03945966,-0.4404006,1.618275,-0.1231567,0.004753421,1.642924,-0.03078705,-0.4326533,1.590344,-0.1630877,-0.2457048,1.647381,0.2410315,-0.2364218,1.641074,NA,NA,NotTracked,NotTracked,
-0.9697266,0.1796875,-0.1411133,-0.9902344,-0.2226563,-0.0546875,1,1,-1,-2,1,-1,-1,0,-2,-6,-1,2,4,1,29,8,0.375,0.375,0.375,2.8125,2.8125,2.8125,8.521487,7.129453,8.804931,2.471035,7.134244,4.666351,-0.1491639,-0.5269262,1.570628,0.22026,-0.5265695,1.549798,0.03340733,0.2378433,1.651812,-0.1010402,-0.5009221,1.548656,0.239583,-0.5181814,1.51123,0.03817729,-0.1585551,1.636577,0.03947202,-0.4406132,1.61784,-0.1232685,0.004585134,1.642971,-0.03078933,-0.4328359,1.589771,-0.1633406,-0.2462623,1.64736,0.2405858,-0.2369281,1.639584,NA,NA,NotTracked,NotTracked,
-0.9697266,0.1796875,-0.1411133,-0.9960938,-0.2167969,-0.04345703,1,1,-1,-2,1,-1,-1,0,-25,-10,-6,-3,-5,-7,-38,-20,0.375,0.375,0.375,0.875,0.875,0.875,8.521487,7.129453,8.804931,2.474535,7.135812,4.668993,-0.1489386,-0.5270105,1.572569,0.2201924,-0.5264864,1.548967,0.03347781,0.2374725,1.651142,-0.1002191,-0.5066913,1.550193,0.2408036,-0.5214729,1.511134,0.03828564,-0.1587003,1.636316,0.03951903,-0.4407452,1.617578,-0.1234291,0.004239497,1.642861,-0.0307642,-0.4329353,1.589376,-0.1634887,-0.2465693,1.647373,0.240199,-0.2368307,1.638369,NA,NA,NotTracked,NotTracked,
-0.9697266,0.1796875,-0.1411133,-0.9946289,-0.2255859,-0.04199219,1,1,-1,-2,1,-1,-1,0,7,4,1,-2,-2,2,9,18,0.375,0.375,0.375,1.125,1.125,1.125,8.521487,7.129453,8.804931,2.456445,7.139861,4.650174,-0.1483937,-0.528104,1.571532,0.2189986,-0.5263491,1.548817,0.03352603,0.2373602,1.650809,-0.09931511,-0.5323547,1.548647,0.2407137,-0.5203725,1.512945,0.03834519,-0.1589065,1.636016,0.03961525,-0.4409751,1.617266,-0.1237072,0.004103332,1.642923,-0.03069767,-0.4331793,1.589053,-0.1635306,-0.2467025,1.647454,0.2399646,-0.2368809,1.637595,NA,NA,NotTracked,NotTracked,
-0.9697266,0.1796875,-0.1411133,-0.9956055,-0.2226563,-0.03369141,1,1,-1,-2,1,-1,-1,0,0,-1,-2,-2,-2,-1,-11,5,0.375,0.375,0.375,3.1875,3.1875,3.1875,8.521487,7.129453,8.804931,2.436391,7.143541,4.626738,-0.1477491,-0.5275746,1.57198,0.2183427,-0.5269802,1.550658,0.03360282,0.2371944,1.650514,-0.1010315,-0.5067315,1.548414,0.2370047,-0.5266843,1.511013,0.03829943,-0.159078,1.635873,0.03959099,-0.441128,1.617019,-0.1238681,0.003859674,1.642917,-0.03073596,-0.4333377,1.588788,-0.1635624,-0.2466863,1.647604,0.2397337,-0.2372386,1.637287,NA,NA,NotTracked,NotTracked,
-0.9697266,0.1796875,-0.1411133,-0.9926758,-0.2211914,-0.03564453,1,1,-1,-2,1,-1,-1,0,-6,-5,-3,0,-1,-1,1,-7,0.375,0.375,0.375,2.1875,2.1875,2.1875,8.521487,7.129453,8.804931,2.423754,7.147812,4.61014,-0.1475372,-0.5277855,1.569622,0.2180856,-0.5264832,1.551329,0.03371642,0.237054,1.650263,-0.101764,-0.5019608,1.548414,0.2571527,-0.5262265,1.536849,0.03822574,-0.1592551,1.635725,0.03940979,-0.44135,1.61671,-0.124248,0.003198892,1.643171,-0.0309455,-0.4334981,1.588473,-0.1635616,-0.2466524,1.647651,0.2395771,-0.2372673,1.637003,NA,NA,NotTracked,NotTracked,
-0.9697266,0.1796875,-0.1411133,-0.9887695,-0.2197266,-0.04199219,1,1,-1,-2,1,-1,-1,0,6,1,-1,-2,-3,0,9,10,0.375,0.375,0.375,2.1875,2.1875,2.1875,8.521487,7.129453,8.804931,2.425003,7.151458,4.606633,-0.1468074,-0.5273355,1.566603,0.2172504,-0.5267537,1.551146,0.03379475,0.2370019,1.650172,-0.1000336,-0.5203246,1.549689,0.2602216,-0.5269594,1.547583,0.03819403,-0.1593367,1.635605,0.039284,-0.4413933,1.616508,-0.1242876,0.003169741,1.643184,-0.03109227,-0.4335457,1.588239,-0.16352,-0.2468526,1.64757,0.2394817,-0.2371733,1.636947,NA,NA,NotTracked,NotTracked,
-0.9697266,0.1796875,-0.1411133,-0.9912109,-0.2119141,-0.04296875,1,1,-1,-2,1,-1,-1,0,7,0,-6,-5,-3,-6,-9,-5,0.375,0.375,0.375,5.4375,5.4375,5.4375,8.521487,7.129453,8.804931,2.443072,7.153374,4.618494,-0.1461314,-0.5258359,1.563881,0.2174263,-0.5265539,1.551152,0.03395994,0.2368759,1.650005,-0.09959807,-0.5407354,1.551077,0.2633215,-0.5270887,1.555625,0.0381003,-0.1594918,1.635463,0.03922719,-0.4414908,1.616267,-0.1243697,0.003277777,1.643328,-0.0311672,-0.4336302,1.587895,-0.163504,-0.2469901,1.647243,0.2393415,-0.2372942,1.636843,NA,NA,NotTracked,NotTracked,
-0.9697266,0.1796875,-0.1411133,-1.002441,-0.2207031,-0.03466797,1,1,-1,-2,1,-1,-1,0,-1,-1,-2,2,3,7,9,-1,0.375,0.375,0.375,3.1875,3.1875,3.1875,8.521487,7.129453,8.804931,2.469252,7.153067,4.638606,-0.1459052,-0.5247114,1.559605,0.216301,-0.5262864,1.548175,0.034231,0.2366544,1.649678,-0.1013933,-0.4922979,1.545179,0.2606409,-0.5297142,1.543991,0.038155,-0.1597347,1.635241,0.03923038,-0.4416759,1.615939,-0.1244342,0.003215579,1.643156,-0.03119886,-0.4337561,1.587318,-0.1635562,-0.2464243,1.646554,0.2391791,-0.2372951,1.636707,NA,NA,NotTracked,NotTracked,
-0.9697266,0.1796875,-0.1411133,-1.001953,-0.2226563,-0.03613281,1,1,-1,-2,1,-1,-1,0,-7,-4,-2,0,2,2,2,-2,0.375,0.375,0.375,0.9375,0.9375,0.9375,8.521487,7.129453,8.804931,2.476506,7.153489,4.64256,-0.1472043,-0.5250556,1.561366,0.2161859,-0.5266864,1.550218,0.03454515,0.2364766,1.649655,-0.09972722,-0.4985597,1.546823,0.2525237,-0.5317634,1.530742,0.03827486,-0.1599031,1.635148,0.03934442,-0.4417956,1.615852,-0.1244655,0.003208241,1.643145,-0.03108715,-0.4338466,1.587232,-0.1636996,-0.2464221,1.646016,0.2390199,-0.237292,1.636724,NA,NA,NotTracked,NotTracked,
-0.9697266,0.1796875,-0.1411133,-0.9887695,-0.2138672,-0.02880859,1,1,-1,-2,1,-1,-1,0,-1,0,-1,-2,-4,0,-5,-4,0.375,0.375,0.375,0.4375,0.4375,0.4375,8.521487,7.129453,8.804931,2.473776,7.153745,4.639632,-0.1475202,-0.525928,1.562288,0.215928,-0.5262647,1.550311,0.0347145,0.2363633,1.649583,-0.1009866,-0.5023157,1.547401,0.2511513,-0.5330305,1.529865,0.03828416,-0.1599552,1.635118,0.03932616,-0.4418344,1.615792,-0.124492,0.00313272,1.643132,-0.03111349,-0.4339016,1.587117,-0.1638784,-0.2466551,1.645733,0.2386798,-0.2374267,1.636864,NA,NA,NotTracked,NotTracked,
-0.9697266,0.1796875,-0.1411133,-0.9970703,-0.2084961,-0.03613281,1,1,-1,-2,1,-1,-1,0,-14,-8,-4,0,-3,-15,-61,-15,0.375,0.375,0.375,2.3125,2.3125,2.3125,8.521487,7.129453,8.804931,2.464688,7.155077,4.628207,-0.1477333,-0.525393,1.564748,0.2163086,-0.5263015,1.551705,0.03509632,0.2363343,1.649752,-0.100726,-0.5008148,1.547393,0.2308267,-0.5317212,1.511618,0.03831162,-0.159983,1.635162,0.0393575,-0.4418586,1.615883,-0.1244839,0.003138131,1.643127,-0.03105121,-0.4338537,1.587211,-0.1639718,-0.2467142,1.645738,0.238397,-0.2374075,1.6372,NA,NA,NotTracked,NotTracked,
-0.9697266,0.1796875,-0.1411133,-0.9882813,-0.2250977,-0.04052734,1,1,-1,-2,1,-1,-1,0,-13,-7,-6,-6,-8,0,0,-12,0.375,0.375,0.375,-1.375,-1.375,-1.375,8.521487,7.129453,8.804931,2.453786,7.155193,4.618132,-0.1476902,-0.525641,1.566076,0.2157336,-0.5262723,1.553073,0.03546084,0.2362754,1.649897,-0.1003405,-0.5076076,1.551049,0.2351469,-0.5307624,1.516522,0.0382428,-0.1600238,1.635232,0.03939136,-0.4418745,1.615996,-0.1245579,0.003178687,1.643201,-0.03104867,-0.4338728,1.58725,-0.1641056,-0.2461401,1.645814,0.2380394,-0.2376182,1.637578,NA,NA,NotTracked,NotTracked,
-0.9697266,0.1796875,-0.1411133,-0.9921875,-0.2070313,-0.04394531,1,1,-1,-2,1,-1,-1,0,3,0,-3,-2,-1,-5,-31,0,0.375,0.375,0.375,0.5625,0.5625,0.5625,8.521487,7.129453,8.804931,2.442837,7.155608,4.606766,-0.1475552,-0.52635,1.568115,0.215994,-0.5269729,1.554725,0.03584295,0.2364068,1.650291,-0.1013071,-0.5043876,1.549357,0.2577946,-0.5260602,1.551467,0.03811608,-0.1600881,1.635519,0.03922703,-0.4419057,1.616481,-0.1245837,0.00319323,1.643394,-0.03118124,-0.4338664,1.58766,-0.1642491,-0.2460722,1.646106,0.2376311,-0.2374308,1.638328,NA,NA,NotTracked,NotTracked,
