ALX,ALY,ALZ,ARX,ARY,ARZ,EMG0L,EMG1L,EMG2L,EMG3L,EMG4L,EMG5L,EMG6L,EMG7L,EMG0R,EMG1R,EMG2R,EMG3R,EMG4R,EMG5R,EMG6R,EMG7R,GLX,GLY,GLZ,GRX,GRY,GRZ,ORL,OPL,OYL,ORR,OPR,OYR,LHNX,LHNY,LHNZ,RHNX,RHNY,RHNZ,HX,HY,HZ,LTX,LTY,LTZ,RTX,RTY,RTZ,SpineMidX,SpineMidY,SpineMidZ,SpineBaseX,SpineBaseY,SpineBaseZ,ShoulderLeftX,ShoulderLeftY,ShoulderLeftZ,ShoulderRightX,ShoulderRightY,ShoulderRightZ,ElbowLeftX,ElbowLeftY,ElbowLeftZ,ElbowRightX,ElbowRightY,ElbowRightZ,Myo_Pose_left,Myo_Pose_Right,Kinect_pose_left,Kinect_pose_right
-1.140137,-0.2915039,0.7543945,-0.9692383,0.1777344,-0.1567383,-11,-19,-31,-9,12,-6,3,-4,1,0,-1,-1,-1,3,-1,1,-217.6875,-217.6875,-217.6875,0.25,0.25,0.25,3.337873,6.544247,6.80666,8.690833,7.116886,8.171453,-0.0941584,-0.535871,1.562645,0.04609606,-0.2615522,1.420576,0.07746291,0.2340691,1.640893,-0.1375546,-0.5405526,1.557233,0.07320695,-0.313561,1.472097,0.08148871,-0.1628752,1.625848,0.07466426,-0.4426019,1.605103,-0.08043453,-0.01017038,1.624235,0.001593298,-0.434638,1.579033,-0.1135965,-0.2503207,1.625601,0.2887419,-0.1901033,1.518661,NA,NA,NotTracked,Unknown,
-1.128906,-0.3657227,0.7114258,-0.9692383,0.1777344,-0.1567383,-12,-14,-31,-40,-19,-5,-8,-4,1,0,-1,-1,-1,3,-1,1,-166.3125,-166.3125,-166.3125,0.25,0.25,0.25,3.372786,6.255567,7.253184,8.690833,7.116886,8.171453,-0.09190656,-0.5342161,1.560224,-0.0188334,-0.1574614,1.448954,0.07740258,0.2344951,1.642515,-0.1321254,-0.5453336,1.555025,0.008594256,-0.2051401,1.494679,0.08170915,-0.161015,1.627787,0.07355244,-0.4398572,1.607932,-0.08007945,-0.01023133,1.626523,0.00103558,-0.4317324,1.584876,-0.1117271,-0.2570849,1.624978,0.2552184,-0.1693586,1.46309,NA,NA,NotTracked,Unknown,
-0.8681641,-0.1132813,0.3974609,-0.9692383,0.1777344,-0.1567383,-2,2,-4,33,2,2,10,-5,1,0,-1,-1,-1,3,-1,1,-213.875,-213.875,-213.875,0.25,0.25,0.25,3.324256,5.907681,7.802726,8.690833,7.116886,8.171453,-0.08861717,-0.5329835,1.556603,-0.01952524,-0.0938703,1.46131,0.07886777,0.2354045,1.644631,-0.1283879,-0.5306446,1.554451,-0.004896355,-0.1403778,1.492729,0.08289191,-0.1590265,1.629507,0.07386125,-0.4379256,1.610548,-0.07929519,-0.005720613,1.62182,0.001714461,-0.4295054,1.590139,-0.1100595,-0.2583978,1.623673,0.2123156,-0.1782496,1.475085,NA,NA,NotTracked,Closed,
-0.7431641,-0.3139648,0.06054688,-0.9692383,0.1777344,-0.1567383,-9,-2,-4,-4,12,14,-32,10,1,0,-1,-1,-1,3,-1,1,-176.625,-176.625,-176.625,0.25,0.25,0.25,3.16414,5.716298,8.145273,8.690833,7.116886,8.171453,-0.08664069,-0.5321933,1.553555,-0.1063341,-0.03015083,1.515691,0.08200019,0.2366387,1.645557,-0.1258001,-0.5328265,1.546486,-0.09257863,-0.002987325,1.528625,0.08363965,-0.158058,1.630331,0.07598832,-0.437277,1.612724,-0.07831208,-0.004574428,1.616085,0.00382678,-0.4294353,1.593415,-0.1082118,-0.2515843,1.624548,0.1173164,-0.09322022,1.414684,NA,NA,NotTracked,Unknown,
-0.6708984,-0.5878906,-0.1079102,-0.9692383,0.1777344,-0.1567383,-7,-6,-11,-7,-4,-4,-7,-22,1,0,-1,-1,-1,3,-1,1,-17.375,-17.375,-17.375,0.25,0.25,0.25,3.131687,5.594475,8.361598,8.690833,7.116886,8.171453,-0.08501935,-0.5309395,1.550521,-0.06209427,0.008831275,1.550834,0.08533736,0.237512,1.645753,-0.1269576,-0.5293906,1.54537,-0.1319607,-0.01407917,1.534367,0.08399111,-0.1573569,1.630768,0.0769854,-0.4371572,1.614495,-0.07826041,-0.004656468,1.611421,0.004669821,-0.4296985,1.596103,-0.1070341,-0.2457801,1.624899,0.09830138,-0.08729047,1.419001,NA,NA,NotTracked,NotTracked,
-0.5556641,-0.8676758,0.05908203,-0.9692383,0.1777344,-0.1567383,-3,-4,-8,-31,-5,2,-2,1,1,0,-1,-1,-1,3,-1,1,48.625,48.625,48.625,0.25,0.25,0.25,3.182326,5.643768,8.393263,8.690833,7.116886,8.171453,-0.08572744,-0.5297399,1.548206,-0.06685119,0.01254848,1.554993,0.08750747,0.2379063,1.64562,-0.1277951,-0.5375012,1.543375,0.01135508,0.02627005,1.561712,0.08375111,-0.1568048,1.630581,0.07714525,-0.4369073,1.614956,-0.07811283,-0.004613996,1.608981,0.004690895,-0.4294175,1.596839,-0.1067685,-0.2434547,1.625331,0.09115212,-0.08746889,1.423382,NA,NA,NotTracked,NotTracked,
-0.6069336,-0.7382813,0.2792969,-0.9692383,0.1777344,-0.1567383,-2,-6,-16,-34,-24,-8,-2,-7,1,0,-1,-1,-1,3,-1,1,94.4375,94.4375,94.4375,0.25,0.25,0.25,3.253508,5.710975,8.264524,8.690833,7.116886,8.171453,-0.0873856,-0.5309981,1.550026,-0.04265045,-0.003435887,1.529069,0.08842406,0.2378273,1.645737,-0.1300398,-0.5481948,1.548565,0.03202906,0.02543518,1.5651,0.0829623,-0.1565917,1.630257,0.07663458,-0.4369549,1.615201,-0.07798848,-0.004933099,1.607688,0.00392597,-0.4294856,1.597369,-0.1071562,-0.2429387,1.625751,0.1180699,-0.1031134,1.414413,NA,NA,NotTracked,NotTracked,
-0.6157227,-0.722168,0.4628906,-0.9692383,0.1777344,-0.1567383,-6,-6,-12,-13,-1,-3,-3,-5,1,0,-1,-1,-1,3,-1,1,47.75,47.75,47.75,0.25,0.25,0.25,3.283054,5.806885,8.035845,8.690833,7.116886,8.171453,-0.08972741,-0.5328955,1.553766,-0.02475973,-0.02588882,1.507551,0.08867072,0.237505,1.646016,-0.1327026,-0.5457867,1.547881,0.04474089,-0.0096733,1.553538,0.08269908,-0.1564225,1.630694,0.07432418,-0.4372078,1.615425,-0.07724294,-0.005151411,1.606253,0.001570269,-0.4296571,1.597477,-0.1074482,-0.2442475,1.626204,0.1483638,-0.120135,1.413227,NA,NA,NotTracked,NotTracked,
-0.6757813,-0.7412109,0.6201172,-0.9692383,0.1777344,-0.1567383,-2,-1,-12,-34,4,2,-3,2,1,0,-1,-1,-1,3,-1,1,24.4375,24.4375,24.4375,0.25,0.25,0.25,3.261569,5.886205,7.870426,8.690833,7.116886,8.171453,-0.09052143,-0.5321121,1.551907,-0.02265094,-0.04446231,1.476045,0.08824965,0.2371152,1.646145,-0.1313607,-0.5580044,1.542778,-0.006704428,-0.08697113,1.502667,0.08263461,-0.156421,1.630736,0.07259644,-0.437407,1.614779,-0.07663705,-0.005670293,1.605358,-0.0002810093,-0.4297456,1.596353,-0.1077839,-0.2458905,1.626266,0.1937946,-0.173991,1.481351,NA,NA,NotTracked,Unknown,
-0.5859375,-0.7207031,0.7998047,-0.9692383,0.1777344,-0.1567383,-2,-1,-2,-9,-3,-8,-2,-7,1,0,-1,-1,-1,3,-1,1,50.875,50.875,50.875,0.25,0.25,0.25,3.285865,5.93213,7.777338,8.690833,7.116886,8.171453,-0.08993053,-0.5318949,1.550313,-0.02010459,-0.05544485,1.478325,0.08754869,0.2367271,1.646461,-0.1323508,-0.5316302,1.542176,-0.005756338,-0.0950507,1.499421,0.08269716,-0.1562435,1.630803,0.07183795,-0.4369053,1.614246,-0.07661367,-0.005507383,1.606597,-0.0009662272,-0.4291744,1.595555,-0.1077002,-0.2499723,1.627367,0.2023782,-0.1744927,1.484736,NA,NA,NotTracked,Unknown,
-0.5087891,-0.7768555,0.9619141,-0.9692383,0.1777344,-0.1567383,2,1,1,24,-8,-4,-2,2,1,0,-1,-1,-1,3,-1,1,-13.5625,-13.5625,-13.5625,0.25,0.25,0.25,3.314085,5.952023,7.708117,8.690833,7.116886,8.171453,-0.09003853,-0.5316726,1.547362,-0.01908311,-0.06430306,1.475429,0.08698945,0.2362372,1.64648,-0.1333972,-0.5348244,1.544488,0.03077107,-0.04287022,1.509239,0.08270349,-0.1562239,1.630805,0.07118693,-0.4365606,1.613596,-0.07689718,-0.005696479,1.607673,-0.001471235,-0.4288527,1.594916,-0.1075042,-0.2518991,1.62686,0.2055868,-0.174417,1.485158,NA,NA,NotTracked,Unknown,
-0.5444336,-1.04541,0.9101563,-0.9692383,0.1777344,-0.1567383,4,10,0,6,11,5,5,2,1,0,-1,-1,-1,3,-1,1,-15.9375,-15.9375,-15.9375,0.25,0.25,0.25,3.318394,5.874336,7.723718,8.690833,7.116886,8.171453,-0.08864997,-0.530897,1.545624,-0.01608324,-0.0548666,1.464298,0.08695989,0.2358662,1.646351,-0.1323409,-0.5364052,1.543311,-0.002383834,-0.0926858,1.499301,0.08217163,-0.156366,1.630031,0.07105219,-0.4365025,1.612993,-0.07681368,-0.005637579,1.607709,-0.001556712,-0.428764,1.59382,-0.1072618,-0.2524171,1.626379,0.2043329,-0.1732514,1.483306,NA,NA,NotTracked,Unknown,
-0.6118164,-0.6669922,0.6547852,-0.9692383,0.1777344,-0.1567383,-3,1,-8,-36,-9,-9,-9,-10,1,0,-1,-1,-1,3,-1,1,-27.625,-27.625,-27.625,0.25,0.25,0.25,3.41449,5.639945,7.894099,8.690833,7.116886,8.171453,-0.08738256,-0.5313599,1.540923,0.09241331,-0.04635543,1.415871,0.08779411,0.2354544,1.646321,-0.1277539,-0.5386017,1.530839,0.009946727,-0.02675544,1.423145,0.08231959,-0.1563514,1.630033,0.07128286,-0.436578,1.612357,-0.07626908,-0.005578332,1.606906,-0.001360164,-0.4287978,1.592722,-0.1075335,-0.2494453,1.62416,0.193482,-0.1682621,1.475321,NA,NA,NotTracked,Unknown,
-0.5327148,-0.5283203,0.4853516,-0.9692383,0.1777344,-0.1567383,-54,-32,-13,7,-4,-18,-39,-40,1,0,-1,-1,-1,3,-1,1,-15.75,-15.75,-15.75,0.25,0.25,0.25,3.444064,5.497819,8.061743,8.690833,7.116886,8.171453,-0.08617786,-0.5317445,1.540778,0.09133165,-0.0253449,1.418689,0.09024929,0.2353827,1.645608,-0.1259008,-0.5449557,1.530885,0.05196769,-0.05693704,1.479143,0.0823926,-0.1561911,1.629957,0.07258657,-0.4369622,1.611875,-0.07422052,-0.005783421,1.600663,-0.0006272324,-0.4291746,1.592327,-0.1072761,-0.2434874,1.622085,0.1880861,-0.1655883,1.473332,NA,NA,NotTracked,Unknown,
-0.3647461,-0.5405273,0.3720703,-0.9692383,0.1777344,-0.1567383,-7,-9,-10,-26,-1,3,15,-9,1,0,-1,-1,-1,3,-1,1,-17.875,-17.875,-17.875,0.25,0.25,0.25,3.478388,5.411243,8.247842,8.690833,7.116886,8.171453,-0.08565145,-0.53082,1.540461,0.06461209,-0.01698621,1.432263,0.09340695,0.2361698,1.644184,-0.1274421,-0.5283287,1.533059,-0.02290806,-0.001937654,1.454075,0.08134576,-0.1557432,1.628333,0.07305716,-0.4368196,1.611664,-0.07413433,-0.002264231,1.596284,-0.0004754188,-0.4291301,1.592222,-0.1078242,-0.2301911,1.620489,0.1734062,-0.1599592,1.468511,NA,NA,NotTracked,Unknown,
-0.3974609,-0.7675781,0.237793,-0.9692383,0.1777344,-0.1567383,30,25,17,11,1,10,-7,53,1,0,-1,-1,-1,3,-1,1,-30.75,-30.75,-30.75,0.25,0.25,0.25,3.435158,5.427098,8.416775,8.690833,7.116886,8.171453,-0.08500575,-0.5314124,1.541408,-0.01990867,0.02428836,1.468033,0.0965699,0.2361779,1.643018,-0.1290617,-0.5392714,1.544316,-0.03499325,-0.001697803,1.481667,0.08051403,-0.1551572,1.627005,0.07351755,-0.4365065,1.611405,-0.07408375,8.268371E-06,1.594457,-0.0001581986,-0.4289858,1.592,-0.1078911,-0.2290638,1.619722,0.1677612,-0.1609147,1.473583,NA,NA,NotTracked,Unknown,
-0.4277344,-0.7250977,0.2915039,-0.9692383,0.1777344,-0.1567383,-4,-7,-13,-35,-11,-5,-3,-10,1,0,-1,-1,-1,3,-1,1,-11.375,-11.375,-11.375,0.25,0.25,0.25,3.418842,5.485538,8.459466,8.690833,7.116886,8.171453,-0.08425097,-0.5316944,1.540727,-0.01395549,0.00290917,1.466591,0.0978398,0.236071,1.642395,-0.1276247,-0.5309229,1.539022,-0.02527511,-0.0268318,1.481231,0.08006697,-0.1548698,1.626426,0.07362874,-0.4364613,1.611185,-0.07363912,0.000375142,1.593514,-8.77439E-05,-0.4289726,1.591926,-0.1081404,-0.22824,1.619458,0.1661116,-0.1621121,1.477492,NA,NA,NotTracked,Unknown,
-0.4033203,-0.7949219,0.4350586,-0.9692383,0.1777344,-0.1567383,-6,-8,-11,-25,-4,-8,-7,-8,1,0,-1,-1,-1,3,-1,1,21.5625,21.5625,21.5625,0.25,0.25,0.25,3.403997,5.603584,8.466654,8.690833,7.116886,8.171453,-0.08478839,-0.5324308,1.542647,-0.04806785,-0.003082845,1.488171,0.09797392,0.2357084,1.642097,-0.1271565,-0.5399371,1.538326,-0.06016311,-0.02460507,1.4892,0.07956591,-0.1549084,1.625839,0.07368259,-0.4365323,1.610831,-0.07416487,-0.001170121,1.594172,6.754529E-06,-0.4291519,1.592068,-0.1085125,-0.2298792,1.620508,0.1396147,-0.1574689,1.466341,NA,NA,NotTracked,Unknown,
-0.53125,-0.7890625,0.6469727,-0.9692383,0.1777344,-0.1567383,-5,-2,-7,-33,-2,2,-8,-19,1,0,-1,-1,-1,3,-1,1,20.375,20.375,20.375,0.25,0.25,0.25,3.459565,5.800826,8.390239,8.690833,7.116886,8.171453,-0.08555423,-0.532943,1.544579,-0.04745606,0.01580291,1.58028,0.09744053,0.2352162,1.641989,-0.128656,-0.5367121,1.545884,-0.1182808,-0.0189416,1.514836,0.0784512,-0.1554548,1.62486,0.07300852,-0.4368984,1.610278,-0.07552529,-0.00379437,1.597029,-0.0004030743,-0.429652,1.592441,-0.1090866,-0.2361748,1.622602,0.1189572,-0.1789826,1.456604,NA,NA,NotTracked,NotTracked,
-0.6123047,-0.5673828,0.5395508,-0.9692383,0.1777344,-0.1567383,-2,4,4,-14,1,7,14,-5,1,0,-1,-1,-1,3,-1,1,-11.125,-11.125,-11.125,0.25,0.25,0.25,3.48842,5.932323,8.360682,8.690833,7.116886,8.171453,-0.0862191,-0.5327345,1.54798,-0.07953332,-0.0641505,1.528577,0.09563126,0.2348506,1.641441,-0.1281991,-0.5375002,1.542297,-0.1322449,-0.08564151,1.526217,0.07725984,-0.1553597,1.624182,0.07088309,-0.4361916,1.609686,-0.07773705,-0.003277504,1.60542,-0.001868999,-0.4291072,1.593585,-0.1092364,-0.2439159,1.625155,0.1326133,-0.1814115,1.460115,NA,NA,NotTracked,NotTracked,
-0.7036133,-0.6806641,0.5869141,-0.9692383,0.1777344,-0.1567383,-1,-4,-14,-21,-7,1,10,4,1,0,-1,-1,-1,3,-1,1,44.75,44.75,44.75,0.25,0.25,0.25,3.527325,6.054364,8.338525,8.690833,7.116886,8.171453,-0.08789884,-0.5339476,1.549159,-0.08691998,-0.08222851,1.527926,0.09395892,0.2345719,1.641072,-0.128463,-0.5360658,1.543277,-0.1267678,-0.1043928,1.514222,0.07674672,-0.155018,1.624422,0.0690263,-0.4353901,1.609324,-0.07831327,-0.003274245,1.610776,-0.003278627,-0.4283188,1.595292,-0.1094331,-0.2454229,1.625288,0.1769764,-0.2311909,1.507539,NA,NA,NotTracked,NotTracked,
-0.6757813,-0.6123047,0.6254883,-0.9692383,0.1777344,-0.1567383,-4,1,2,3,-5,-5,-22,-26,1,0,-1,-1,-1,3,-1,1,25,25,25,0.25,0.25,0.25,3.594746,6.08834,8.344057,8.690833,7.116886,8.171453,-0.08870176,-0.5356079,1.550458,-0.02279903,-0.09116063,1.493721,0.09039389,0.2341128,1.640357,-0.1295443,-0.5365267,1.544793,-0.01636353,-0.1071235,1.445769,0.07568515,-0.1550916,1.623988,0.06755058,-0.4349081,1.609284,-0.07863995,-0.003135103,1.614613,-0.004389151,-0.4279102,1.596415,-0.1098361,-0.2509344,1.625773,0.1770845,-0.2310801,1.508185,NA,NA,NotTracked,Unknown,
-0.7290039,-0.6318359,0.5126953,-0.9692383,0.1777344,-0.1567383,-5,-6,-4,-4,-6,0,14,-1,1,0,-1,-1,-1,3,-1,1,-0.5625,-0.5625,-0.5625,0.25,0.25,0.25,3.603014,6.093005,8.340446,8.690833,7.116886,8.171453,-0.09097192,-0.5358267,1.553099,-0.1000117,-0.1078261,1.525245,0.08860026,0.2339339,1.640183,-0.1316625,-0.5501222,1.54435,-0.1374351,-0.1411421,1.5204,0.07516984,-0.1552274,1.62401,0.06676037,-0.4348328,1.609369,-0.07915477,-0.00311379,1.616889,-0.004959606,-0.4279034,1.596937,-0.1087413,-0.2554002,1.624998,0.1406706,-0.1357335,1.428924,NA,NA,NotTracked,NotTracked,
-0.7099609,-0.6650391,0.2929688,-0.9692383,0.1777344,-0.1567383,-14,-4,0,3,0,-6,-2,-49,1,0,-1,-1,-1,3,-1,1,-10.875,-10.875,-10.875,0.25,0.25,0.25,3.517236,6.049536,8.248266,8.690833,7.116886,8.171453,-0.09307823,-0.536149,1.552875,-0.1011133,-0.1041488,1.515857,0.08661816,0.234146,1.64018,-0.1346631,-0.5455948,1.543702,-0.1386564,-0.1293085,1.499667,0.07498319,-0.1551836,1.624074,0.06654917,-0.4347493,1.609468,-0.07882765,-0.001404889,1.625347,-0.004972679,-0.4279073,1.597026,-0.1086199,-0.2629165,1.624944,0.1421473,-0.1351947,1.427247,NA,NA,NotTracked,Unknown,
-0.6157227,-0.6777344,0.3295898,-0.9692383,0.1777344,-0.1567383,-5,0,5,10,1,-4,-12,-11,1,0,-1,-1,-1,3,-1,1,15.375,15.375,15.375,0.25,0.25,0.25,3.41342,6.042893,8.101338,8.690833,7.116886,8.171453,-0.09683301,-0.5361653,1.553784,-0.09338116,-0.1041301,1.480373,0.0836506,0.2345184,1.640797,-0.1396751,-0.5402107,1.548002,-0.05048673,-0.0828061,1.435065,0.07474139,-0.1549558,1.624712,0.06588788,-0.4343098,1.609907,-0.0802383,-0.001387514,1.627185,-0.005239416,-0.4275841,1.597445,-0.1139544,-0.2582957,1.618766,0.180676,-0.1686344,1.480783,NA,NA,NotTracked,Unknown,
-0.8574219,-0.4179688,0.2973633,-0.9692383,0.1777344,-0.1567383,7,2,-1,0,4,2,4,0,1,0,-1,-1,-1,3,-1,1,93.375,93.375,93.375,0.25,0.25,0.25,3.395179,6.095442,7.883456,8.690833,7.116886,8.171453,-0.1015708,-0.5367773,1.556329,-0.09725028,-0.1267254,1.448578,0.08114581,0.2352013,1.642448,-0.1495416,-0.5433047,1.553368,-0.03810677,-0.1587021,1.513063,0.07471241,-0.1542616,1.625676,0.06565742,-0.4337639,1.610205,-0.08099825,-0.002265622,1.627869,-0.005248803,-0.4270112,1.597184,-0.1157127,-0.2778869,1.624057,0.1817683,-0.1399438,1.423001,NA,NA,NotTracked,Unknown,
-0.8046875,-0.4389648,0.3530273,-0.9692383,0.1777344,-0.1567383,6,10,7,11,7,1,-1,3,1,0,-1,-1,-1,3,-1,1,127.0625,127.0625,127.0625,0.25,0.25,0.25,3.414933,6.225182,7.538341,8.690833,7.116886,8.171453,-0.1082901,-0.5374848,1.558585,-0.05141107,-0.1582011,1.396106,0.07947057,0.2357838,1.644375,-0.1540302,-0.5342578,1.548271,-0.02257339,-0.1596868,1.469267,0.07492615,-0.1540207,1.626256,0.06560512,-0.4333955,1.610325,-0.08158515,-0.004000255,1.628972,-0.005042123,-0.4263918,1.596332,-0.1176524,-0.282277,1.623225,0.2166051,-0.1481289,1.435152,NA,NA,NotTracked,Unknown,
-0.9291992,-0.3691406,0.3461914,-0.9692383,0.1777344,-0.1567383,-8,-15,-15,-10,-8,-4,-10,-3,1,0,-1,-1,-1,3,-1,1,135.75,135.75,135.75,0.25,0.25,0.25,3.4297,6.296871,7.341028,8.690833,7.116886,8.171453,-0.1111241,-0.5370313,1.559973,8.23646E-05,-0.2105383,1.354375,0.07847049,0.2357792,1.645785,-0.1591732,-0.5439277,1.554,-0.01487697,-0.1914909,1.32905,0.07497701,-0.1539714,1.626461,0.06547347,-0.4330013,1.610265,-0.08246707,-0.005549243,1.625161,-0.005126604,-0.425421,1.594212,-0.1267572,-0.2538587,1.621396,0.2504781,-0.1566039,1.460131,NA,NA,NotTracked,Unknown,
-0.7856445,-0.449707,0.4443359,-0.9692383,0.1777344,-0.1567383,-12,-21,-29,-32,-17,-5,-2,-53,1,0,-1,-1,-1,3,-1,1,51.0625,51.0625,51.0625,0.25,0.25,0.25,3.301715,6.458252,6.959673,8.690833,7.116886,8.171453,-0.1133385,-0.5355168,1.560183,0.06186571,-0.280607,1.331102,0.0779048,0.236441,1.646415,-0.1613689,-0.5325713,1.554069,0.04832177,-0.2530023,1.303698,0.07515776,-0.1539406,1.626442,0.06610369,-0.4328708,1.609766,-0.08307946,-0.006322912,1.625016,-0.004006001,-0.425218,1.590566,-0.1270766,-0.2537963,1.621645,0.2704928,-0.1649723,1.481513,NA,NA,NotTracked,Unknown,
-0.9194336,-0.5439453,0.3701172,-0.9692383,0.1777344,-0.1567383,4,4,7,8,4,5,-25,10,1,0,-1,-1,-1,3,-1,1,127.1875,127.1875,127.1875,0.25,0.25,0.25,3.217852,6.607736,6.654014,8.690833,7.116886,8.171453,-0.1138663,-0.5357016,1.560203,0.127246,-0.3492468,1.341992,0.07782481,0.2372964,1.646569,-0.1588785,-0.5354245,1.551927,0.1236071,-0.3163663,1.311663,0.07468823,-0.1545847,1.625867,0.06585689,-0.4337418,1.609652,-0.08333776,-0.006479776,1.624684,-0.004781967,-0.4257092,1.589114,-0.1270148,-0.2530419,1.621805,0.2761571,-0.1799298,1.513259,NA,NA,NotTracked,Unknown,
-0.8964844,-0.2651367,0.2563477,-0.9692383,0.1777344,-0.1567383,0,-3,-7,-19,-2,10,13,7,1,0,-1,-1,-1,3,-1,1,136.1875,136.1875,136.1875,0.25,0.25,0.25,3.139435,6.815793,6.165918,8.690833,7.116886,8.171453,-0.1143262,-0.536369,1.557465,0.1824182,-0.4100839,1.374586,0.07791783,0.2374515,1.646514,-0.1587112,-0.5384647,1.547662,0.1568725,-0.3996286,1.463378,0.07367818,-0.1555113,1.625483,0.06225443,-0.4367199,1.607309,-0.0836326,-0.006817386,1.624123,-0.01022429,-0.4267142,1.584654,-0.1268109,-0.2524621,1.621416,0.2846973,-0.1897904,1.54108,NA,NA,NotTracked,Unknown,
-1.032227,-0.3188477,0.3081055,-0.9692383,0.1777344,-0.1567383,-2,-3,-3,0,4,-2,-16,0,1,0,-1,-1,-1,3,-1,1,70.0625,70.0625,70.0625,0.25,0.25,0.25,3.023246,6.92509,5.874022,8.690833,7.116886,8.171453,-0.1132625,-0.5371132,1.555529,0.2345423,-0.4561934,1.401685,0.07811433,0.2373677,1.646028,-0.1573934,-0.5578393,1.5444,0.218396,-0.454189,1.439769,0.07394921,-0.1572442,1.62434,0.06421858,-0.4397916,1.604337,-0.08370683,-0.007251605,1.623208,-0.00810842,-0.4303407,1.579922,-0.1265395,-0.252929,1.62114,0.2904355,-0.2073864,1.56655,NA,NA,NotTracked,Unknown,
-1.171875,-0.3071289,0.1733398,-0.9692383,0.1777344,-0.1567383,-1,1,-1,1,0,5,-2,-7,1,0,-1,-1,-1,3,-1,1,56.4375,56.4375,56.4375,0.25,0.25,0.25,2.764133,7.035845,5.457689,8.690833,7.116886,8.171453,-0.1121983,-0.5368298,1.55396,0.2648432,-0.4971207,1.437307,0.07822895,0.2369577,1.644633,-0.1539666,-0.5411168,1.541627,0.2935458,-0.517714,1.441444,0.07595507,-0.1591702,1.623191,0.07108977,-0.4432997,1.602004,-0.08357994,-0.007466137,1.622411,-0.0007984142,-0.4344285,1.575676,-0.1257286,-0.2544191,1.620984,0.292581,-0.2280728,1.583524,NA,NA,NotTracked,Lasso,
-1.03125,-0.3964844,0.07373047,-0.9692383,0.1777344,-0.1567383,-4,0,-1,-2,2,12,18,-5,1,0,-1,-1,-1,3,-1,1,68.0625,68.0625,68.0625,0.25,0.25,0.25,2.562224,7.109803,5.147949,8.690833,7.116886,8.171453,-0.1100812,-0.5357191,1.555568,0.288122,-0.5197963,1.483589,0.07880361,0.2367886,1.642433,-0.1542266,-0.5385321,1.548373,0.3094401,-0.5331174,1.482445,0.07684211,-0.159803,1.622364,0.0743479,-0.4438922,1.600756,-0.08342786,-0.007619809,1.621163,0.002418085,-0.4352497,1.573714,-0.1247246,-0.2535102,1.620397,0.2941489,-0.2392068,1.59855,NA,NA,NotTracked,NotTracked,
-1.019531,-0.2739258,-0.003417969,-0.9692383,0.1777344,-0.1567383,-9,-6,-1,0,4,-3,5,-6,1,0,-1,-1,-1,3,-1,1,70.4375,70.4375,70.4375,0.25,0.25,0.25,2.381312,7.15652,4.824273,8.690833,7.116886,8.171453,-0.1077657,-0.5354143,1.556955,0.2983087,-0.5352237,1.525575,0.07946569,0.2365032,1.640326,-0.1528239,-0.5365591,1.549777,0.3107468,-0.5299439,1.494628,0.07785078,-0.1602889,1.621463,0.07600234,-0.4439161,1.60012,-0.08303592,-0.007416911,1.619769,0.004099142,-0.4352691,1.572646,-0.1236941,-0.2525454,1.620051,0.2933812,-0.2473451,1.614372,NA,NA,NotTracked,NotTracked,
-1.05957,-0.2456055,0.05273438,-0.9692383,0.1777344,-0.1567383,0,5,3,1,-2,-7,-7,1,1,0,-1,-1,-1,3,-1,1,2.4375,2.4375,2.4375,0.25,0.25,0.25,2.070079,7.19268,4.459177,8.690833,7.116886,8.171453,-0.1070374,-0.5362101,1.559245,0.2960935,-0.5396417,1.554856,0.08005605,0.2359909,1.638679,-0.1514687,-0.5349921,1.550703,0.3112582,-0.5404404,1.524411,0.07834902,-0.160793,1.62085,0.07695024,-0.4442644,1.599649,-0.08262116,-0.007579113,1.618318,0.005085493,-0.4355606,1.57173,-0.1229198,-0.2520512,1.619544,0.2917489,-0.2500751,1.625199,NA,NA,NotTracked,NotTracked,
-0.9916992,-0.2436523,-0.006835938,-0.9692383,0.1777344,-0.1567383,14,2,6,2,6,16,14,32,1,0,-1,-1,-1,3,-1,1,-4,-4,-4,0.25,0.25,0.25,1.929909,7.222527,4.322836,8.690833,7.116886,8.171453,-0.1052633,-0.5361683,1.558593,0.2884001,-0.5422384,1.568865,0.08065715,0.2354929,1.637854,-0.1472998,-0.5350432,1.550292,0.318044,-0.5386669,1.55435,0.07937459,-0.1615963,1.62045,0.07914361,-0.4448482,1.599821,-0.08195061,-0.007944246,1.616835,0.007070343,-0.4362226,1.571408,-0.1222199,-0.2519821,1.619185,0.2900611,-0.2495265,1.63115,NA,NA,NotTracked,NotTracked,
-1.004395,-0.2016602,-0.03857422,-0.9692383,0.1777344,-0.1567383,3,3,-1,-3,-2,-1,4,-4,1,0,-1,-1,-1,3,-1,1,23.6875,23.6875,23.6875,0.25,0.25,0.25,1.901776,7.236038,4.262882,8.690833,7.116886,8.171453,-0.1033606,-0.5344864,1.562493,0.2840333,-0.5454635,1.575744,0.0813618,0.2351361,1.637123,-0.1471376,-0.523778,1.564667,0.3153055,-0.5413692,1.560039,0.08033092,-0.1620898,1.620473,0.08110069,-0.4453327,1.600742,-0.08136056,-0.008142038,1.616012,0.008704985,-0.436745,1.571605,-0.1212235,-0.252154,1.619181,0.2892734,-0.2481912,1.634421,NA,NA,NotTracked,NotTracked,
-1.005371,-0.2075195,-0.06445313,-0.9692383,0.1777344,-0.1567383,7,9,4,0,0,6,9,13,1,0,-1,-1,-1,3,-1,1,-11.875,-11.875,-11.875,0.25,0.25,0.25,1.894597,7.24903,4.257066,8.690833,7.116886,8.171453,-0.1027697,-0.533506,1.563192,0.2824054,-0.5447602,1.577644,0.08186725,0.2351496,1.636831,-0.1453249,-0.5444844,1.560389,0.2917656,-0.5522365,1.544417,0.08124199,-0.1620595,1.620803,0.08322382,-0.4450707,1.602138,-0.08076838,-0.007876845,1.615253,0.01057247,-0.4366234,1.572416,-0.1193134,-0.2515736,1.619522,0.2886232,-0.2464982,1.63606,NA,NA,NotTracked,NotTracked,
-1.024902,-0.1821289,-0.05957031,-0.9692383,0.1777344,-0.1567383,8,6,2,-1,0,2,-4,10,1,0,-1,-1,-1,3,-1,1,-1.125,-1.125,-1.125,0.25,0.25,0.25,1.941994,7.251588,4.32052,8.690833,7.116886,8.171453,-0.1008245,-0.5331028,1.56306,0.282141,-0.5449217,1.574425,0.08256122,0.2353705,1.636525,-0.144554,-0.5374962,1.559688,0.3170463,-0.5343123,1.569308,0.08249861,-0.1620169,1.621144,0.084381,-0.4450563,1.603179,-0.08001278,-0.007495382,1.61466,0.01156076,-0.4366318,1.573065,-0.1181068,-0.2502023,1.619653,0.2884513,-0.2459745,1.636565,NA,NA,NotTracked,NotTracked,
-0.9985352,-0.1928711,-0.05078125,-0.9692383,0.1777344,-0.1567383,28,8,-2,-6,-8,-13,-12,21,1,0,-1,-1,-1,3,-1,1,-0.625,-0.625,-0.625,0.25,0.25,0.25,2.00947,7.24934,4.389451,8.690833,7.116886,8.171453,-0.1004254,-0.5323253,1.563227,0.2845326,-0.5464959,1.571916,0.08347703,0.2353506,1.636445,-0.1436791,-0.5327083,1.556774,0.3195305,-0.5422878,1.567066,0.08305502,-0.1621829,1.621389,0.08515417,-0.4454547,1.604207,-0.07951368,-0.007380147,1.614588,0.01232403,-0.4369504,1.574061,-0.1174223,-0.2493144,1.619905,0.288355,-0.245669,1.636752,NA,NA,NotTracked,NotTracked,
-1.006836,-0.1606445,-0.07519531,-0.9692383,0.1777344,-0.1567383,6,3,0,-2,0,10,41,-4,1,0,-1,-1,-1,3,-1,1,-0.5625,-0.5625,-0.5625,0.25,0.25,0.25,2.071306,7.241977,4.451432,8.690833,7.116886,8.171453,-0.1002523,-0.5321277,1.562428,0.2879037,-0.5458784,1.568869,0.08430834,0.2351902,1.636688,-0.1424812,-0.529988,1.553865,0.3222016,-0.5454667,1.558786,0.08397813,-0.1623289,1.621969,0.08567312,-0.4456767,1.605013,-0.07880295,-0.007224099,1.614787,0.01288125,-0.4370192,1.57502,-0.1168146,-0.2494056,1.620228,0.2883043,-0.2451374,1.636691,NA,NA,NotTracked,NotTracked,
-0.9970703,-0.1767578,-0.08203125,-0.9692383,0.1777344,-0.1567383,11,3,-2,-2,0,4,11,16,1,0,-1,-1,-1,3,-1,1,-5.5,-5.5,-5.5,0.25,0.25,0.25,2.099597,7.231871,4.495636,8.690833,7.116886,8.171453,-0.09923945,-0.5315056,1.561104,0.2898343,-0.5431181,1.566217,0.08544493,0.2350872,1.636985,-0.1417262,-0.5307658,1.554214,0.3216594,-0.5407649,1.5475,0.08485423,-0.162346,1.622268,0.0865562,-0.4456968,1.605676,-0.07821167,-0.00699442,1.615001,0.01389334,-0.4370458,1.575859,-0.1163266,-0.249208,1.620499,0.2884042,-0.2450646,1.63619,NA,NA,NotTracked,NotTracked,
-1.005371,-0.1674805,-0.08251953,-0.9692383,0.1777344,-0.1567383,5,4,1,-1,-1,1,-8,4,1,0,-1,-1,-1,3,-1,1,-3.5,-3.5,-3.5,0.25,0.25,0.25,2.100425,7.226743,4.503497,8.690833,7.116886,8.171453,-0.09940352,-0.5312998,1.562984,0.2917628,-0.5419197,1.565104,0.08601382,0.2353392,1.637049,-0.143176,-0.5241709,1.563964,0.3229541,-0.5455307,1.547231,0.08533783,-0.1621106,1.622609,0.08704961,-0.4455425,1.606388,-0.07743675,-0.006278754,1.615206,0.01443428,-0.4369167,1.576975,-0.115931,-0.2487298,1.621001,0.2886098,-0.2451036,1.63582,NA,NA,NotTracked,NotTracked,
-1.005859,-0.1704102,-0.07519531,-0.9692383,0.1777344,-0.1567383,-5,-3,-3,-5,-2,10,25,-16,1,0,-1,-1,-1,3,-1,1,-5.5,-5.5,-5.5,0.25,0.25,0.25,2.089157,7.224031,4.501623,8.690833,7.116886,8.171453,-0.09824907,-0.5308966,1.56434,0.2922765,-0.5413614,1.565337,0.08675104,0.2356085,1.637364,-0.1416138,-0.5356879,1.562808,0.3297799,-0.5338249,1.5641,0.08588883,-0.1619941,1.622862,0.08737727,-0.4454406,1.606903,-0.07686103,-0.005705029,1.615658,0.01479281,-0.4368043,1.577741,-0.1154461,-0.2486208,1.621457,0.2890176,-0.2453633,1.635221,NA,NA,NotTracked,NotTracked,
